# OpenSignals Text File Format
# {"00:07:80:4D:2E:99": {"sensor": ["ECG", "XYZ", "XYZ", "XYZ", "SpO2", "SpO2"], "device name": "00:07:80:4D:2E:99", "column": ["nSeq", "DI", "ECG", "XYZ", "XYZ", "XYZ", "SpO2", "SpO2"], "sync interval": 2, "time": "15:22:33", "comments": "", "keywords": "", "device connection": "BTH00:07:80:4D:2E:99", "channels": [1, 2, 3, 4, 9, 10], "date": "2020-09-11", "mode": 0, "digital IO": [0, 1], "firmware version": 775, "device": "biosignalsplux", "position": 0, "sampling rate": 100, "label": ["ECG", "XYZ", "XYZ", "XYZ", "SpO2", "SpO2"], "resolution": [16, 16, 16, 16, 16, 16], "special": [{}, {}, {}, {}, {}, {}], "sleeve color": ["UNKNOWN", "UNKNOWN", "UNKNOWN", "UNKNOWN", "UNKNOWN", "UNKNOWN"]}, "internal sensors": {"sensor": ["xAcc", "yAcc", "zAcc", "xGyr", "yGyr", "zGyr", "xMag", "yMag", "zMag"], "device name": "internal sensors", "column": ["nSeq", "xAcc", "yAcc", "zAcc", "xGyr", "yGyr", "zGyr", "xMag", "yMag", "zMag"], "sync interval": 2, "time": "15:22:35", "comments": "", "keywords": "", "device connection": "UNKNOWNinternal sensors", "channels": [0, 1, 2, 3, 4, 5, 6, 7, 8], "date": "2020-09-11", "mode": 0, "digital IO": [], "firmware version": 0, "device": "android", "position": 0, "sampling rate": 100, "label": ["xAcc", "yAcc", "zAcc", "xGyr", "yGyr", "zGyr", "xMag", "yMag", "zMag"], "resolution": [1, 1, 1, 1, 1, 1, 1, 1, 1], "special": [{}, {}, {}, {}, {}, {}, {}, {}, {}], "sleeve color": ["UNKNOWN", "UNKNOWN", "UNKNOWN", "UNKNOWN", "UNKNOWN", "UNKNOWN", "UNKNOWN", "UNKNOWN", "UNKNOWN"]}}
# EndOfHeader
0.0	0.0	-0.07439221203385674	-1.44157755	-2.2829881199999997	10.575491359999997	0.311151123046875	0.4033447265625	99.85000000000001	8.428787	-0.20590134	-5.187038	-4.271418e-05	0.0010201493	0.0015515983	-28.0	-22.0	8.300003	
0.010000348262181546	0.0	-0.06055597936089304	-1.4160802599999998	-2.3143694	10.50684481	0.31116943359375	0.4033447265625	99.86	8.440758	-0.22864626	-5.1942205	0.0005681515	0.0022418797	0.0015515983	-28.0	-22.0	8.300003	
0.020000696524348882	0.0	-0.06055597936089304	-1.4455002099999996	-2.3457506799999996	10.54018742	0.31116943359375	0.40330810546875	99.87	8.440758	-0.22864626	-5.1942205	0.0005681515	0.001631014	0.0009407331	-28.0	-22.0	8.300003	
0.030001044786516218	0.0	-0.05480585669160943	-1.4474615399999995	-2.36144132	10.461734220000002	0.31116943359375	0.403271484375	99.88	8.459911	-0.23104046	-5.2181625	-4.271418e-05	0.00040928368	-0.00028099725	-28.0	-22.0	8.300003	
0.04000139304868355	0.0	-0.04779789468842002	-1.4356935599999996	-2.3751706299999995	10.46369555	0.31116943359375	0.403253173828125	99.89	8.461109	-0.20829555	-5.2061915	-0.0012644455	-0.0008124467	-0.00089186244	-28.0	-21.899994	8.300003	
0.0500017413108651	0.0	-0.031086600680814525	-1.4513842000000001	-2.4359718599999995	10.48134752	0.31122436523437497	0.403289794921875	99.9	8.453926	-0.17477672	-5.1942205	-0.0024861768	-0.0014233124	-0.0033353234	-28.0	-21.899994	8.300003	
0.060002089573032436	0.0	-0.027447851179158492	-1.4356935599999996	-2.4242038799999994	10.50488348	0.3112060546875	0.403216552734375	99.91	8.445546	-0.16160862	-5.1762643	-0.003707908	-0.002034177	-0.003946189	-28.0	-21.899994	8.399994	
0.07000243783519977	0.0	-0.00880487533734053	-1.4494228700000003	-2.4320492	10.528419439999999	0.3112060546875	0.403289794921875	99.92	8.432379	-0.16519992	-5.149928	-0.0018753111	-0.0014233124	-0.0033353234	-28.0	-21.899994	8.399994	
0.08000278609738132	0.0	0.0012578393339057901	-1.4200029200000004	-2.4948117599999993	10.410739639999997	0.3112060546875	0.403271484375	99.93	8.423999	-0.15562311	-5.161899	0.0005681515	0.00040928368	-0.0015027276	-28.099998	-22.0	8.399994	
0.09000313435954865	0.0	0.008984566670755643	-1.3984282899999994	-2.4555851599999996	10.418584959999997	0.311260986328125	0.40330810546875	99.94	8.425196	-0.16759412	-5.183447	0.0017898828	-0.0008124467	-0.00089186244	-28.099998	-22.0	8.399994	
0.10000348262171599	0.0	0.015273763340284595	-1.43373223	-2.4085132400000004	10.410739639999997	0.31122436523437497	0.403253173828125	99.95	8.418014	-0.15682021	-5.199009	0.0005681515	-0.0032559074	-0.00089186244	-28.099998	-22.0	8.399994	
0.11000383088389754	0.0	0.023180182010549562	-1.44353888	-2.43989452	10.418584959999997	0.3112060546875	0.403253173828125	99.96000000000001	8.426393	-0.18315643	-5.1846437	0.0011790171	-0.003866773	-0.00028099725	-28.099998	-22.0	8.399994	
0.12000417914606487	0.0	0.013297158672718353	-1.4455002099999996	-2.41047457	10.485270179999999	0.31131591796874997	0.403253173828125	99.97	8.437167	-0.18315643	-5.1906295	0.0005681515	-0.0014233124	0.0009407331	-28.0	-22.0	8.399994	
0.1300045274082322	0.0	0.006828270669774289	-1.4356935599999996	-2.4085132400000004	10.459772890000002	0.311334228515625	0.40330810546875	99.98	8.433576	-0.19033903	-5.199009	-4.271418e-05	0.0010201493	0.0015515983	-28.0	-22.0	8.399994	
0.14000487567041375	0.0	-0.0017969133341511287	-1.4258869099999996	-2.40066792	10.50488348	0.311370849609375	0.403289794921875	99.99000000000001	8.433576	-0.18794483	-5.221754	-0.0012644455	0.001631014	0.0009407331	-28.099998	-22.0	8.399994	
0.1500052239325811	0.0	-0.00035938266683022574	-1.4808041500000002	-2.3379053599999993	10.50488348	0.311279296875	0.40323486328124997	100.0	8.432379	-0.20111294	-5.2157683	-0.0018753111	0.00040928368	0.00032986794	-28.099998	-22.0	8.399994	
0.16000557219474842	0.0	0.0007187653336604515	-1.4200029200000004	-2.3653639799999997	10.536264759999998	0.31138916015625	0.403271484375	100.01	8.428787	-0.19752164	-5.187038	-0.0030970424	-0.0008124467	0.0009407331	-28.099998	-22.0	8.5	
0.17000592045692997	0.0	0.0039532093351324835	-1.44157755	-2.35947999	10.48134752	0.3113525390625	0.403253173828125	100.02	8.428787	-0.18555063	-5.1798553	-0.0024861768	-0.0008124467	0.00032986794	-28.099998	-22.0	8.5	
0.1800062687190973	0.0	-0.0008984566670755643	-1.43373223	-2.3339827	10.48134752	0.311370849609375	0.403216552734375	100.03	8.428787	-0.18794483	-5.1810527	-0.0018753111	-0.00020158105	0.00032986794	-28.099998	-22.0	8.5	
0.19000661698126464	0.0	0.00017969133341511287	-1.4317709	-2.35163467	10.44408225	0.3113525390625	0.40330810546875	100.04	8.429984	-0.20231004	-5.1798553	-4.271418e-05	-0.00020158105	0.00032986794	-28.099998	-22.0	8.5	
0.20000696524343198	0.0	-0.004132900668547596	-1.44353888	-2.3849772799999998	10.497038159999997	0.311370849609375	0.403253173828125	100.05	8.435969	-0.19871874	-5.189432	-4.271418e-05	-0.00020158105	-0.00028099725	-28.099998	-22.0	8.399994	
0.21000731350561352	0.0	-0.0033242896681795883	-1.4200029200000004	-2.44970117	10.42643028	0.31138916015625	0.403363037109375	100.06	8.433576	-0.20231004	-5.1930237	-0.0018753111	0.00040928368	0.00032986794	-28.099998	-22.0	8.399994	
0.22000766176778086	0.0	-0.0034141353348871445	-1.44157755	-2.3928225999999997	10.42643028	0.31140747070312497	0.403363037109375	100.07000000000001	8.432379	-0.18794483	-5.197812	-0.00065357983	-0.00020158105	0.00032986794	-28.099998	-22.0	8.399994	
0.2300080100299482	0.0	0.003099675501410697	-1.4513842000000001	-2.3849772799999998	10.4342756	0.31140747070312497	0.4033447265625	100.08	8.432379	-0.18794483	-5.197812	-0.00065357983	-0.00020158105	-0.0015027276	-28.099998	-22.0	8.399994	
0.24000835829212974	0.0	0.005211048669038273	-1.43373223	-2.3928225999999997	10.4735022	0.31140747070312497	0.40330810546875	100.09	8.429984	-0.17836803	-5.1930237	-0.0014538243	0.0010629091	-0.0019669866	-28.099998	-22.0	8.399994	
0.2500087065542971	0.0	0.005570431335868499	-1.3886216399999993	-2.3928225999999997	10.442120919999999	0.311444091796875	0.40341796874999997	100.10000000000001	8.429984	-0.16639702	-5.1726727	-0.0008429587	0.0022846395	-0.0019669866	-28.099998	-22.0	8.399994	
0.2600090548164644	0.0	0.006468888002944063	-1.4101962700000004	-2.4242038799999994	10.449966239999998	0.31149902343749997	0.4033447265625	100.11	8.437167	-0.16400282	-5.1846437	-0.0014538243	0.0022846395	-0.0013561212	-28.099998	-22.0	8.399994	
0.27000940307864596	0.0	0.010961171338321885	-1.43373223	-2.386938609999999	10.461734220000002	0.31153564453125	0.403363037109375	100.12	8.420407	-0.18076223	-5.1798553	-0.0008429587	0.0028955047	-0.0013561212	-28.099998	-22.0	8.399994	
0.2800097513408133	0.0	0.012758084672473014	-1.4043122799999999	-2.3928225999999997	10.50488348	0.311553955078125	0.403472900390625	100.13	8.420407	-0.18076223	-5.1798553	-0.00023209304	0.00350637	-0.00074525597	-28.099998	-22.0	8.399994	
0.29001009960298063	0.0	0.014644843673331699	-1.44157755	-2.3673253099999996	10.497038159999997	0.311444091796875	0.40338134765625	100.14	8.432379	-0.19393034	-5.1882353	-0.00023209304	0.00350637	-0.00074525597	-28.099998	-22.0	8.399994	
0.3000104478651622	0.0	0.015273763340284595	-1.4592295200000003	-2.3457506799999996	10.524496779999998	0.31149902343749997	0.40341796874999997	100.15	8.432379	-0.19393034	-5.1882353	-0.0008429587	0.0022846395	-0.00013439078	-28.099998	-22.0	8.5	
0.3100107961273295	0.0	0.015453454673699707	-1.4455002099999996	-2.3379053599999993	10.5127288	0.31149902343749997	0.40341796874999997	100.16	8.435969	-0.18555063	-5.201403	-0.00023209304	0.0004520435	-0.00013439078	-28.099998	-22.0	8.5	
0.32001114438949685	0.0	0.015498377507053485	-1.4729588299999998	-2.3692866400000003	10.546071410000001	0.311517333984375	0.403436279296875	100.17	8.42759	-0.17717093	-5.201403	-0.0014538243	-0.00015882123	-0.00013439078	-28.099998	-22.100006	8.5	
0.3300114926516784	0.0	0.01617222000736016	-1.4455002099999996	-2.39086127	10.48134752	0.31159057617187497	0.40341796874999997	100.18	8.438364	-0.18914193	-5.187038	-0.00206469	-0.0013805525	0.0004764744	-28.099998	-22.100006	8.5	
0.34001184091384573	0.0	0.014420229506562809	-1.42392558	-2.3928225999999997	10.451927569999999	0.31160888671875	0.403472900390625	100.19	8.431181	-0.18315643	-5.1810527	-0.0014538243	-0.0007696869	0.0004764744	-28.099998	-22.0	8.5	
0.35001218917601307	0.0	0.013656541339548578	-1.42392558	-2.3692866400000003	10.52057412	0.311627197265625	0.403472900390625	100.2	8.446744	-0.19632454	-5.1822495	-0.0014538243	-0.0007696869	0.0010873396	-28.099998	-22.0	8.5	
0.3600125374381804	0.0	0.014914380673454368	-1.4455002099999996	-2.3771319599999994	10.489192839999998	0.31159057617187497	0.403582763671875	100.21000000000001	8.444349	-0.18674773	-5.1906295	-0.00206469	-0.0007696869	-0.00013439078	-28.099998	-22.100006	8.5	
0.37001288570036195	0.0	0.016262065674067714	-1.4670748399999995	-2.3692866400000003	10.451927569999999	0.311627197265625	0.403546142578125	100.22	8.444349	-0.18674773	-5.1906295	-0.0014538243	-0.0007696869	-0.00013439078	-28.099998	-22.100006	8.5	
0.3800132339625293	0.0	0.013297158672718353	-1.4396162200000002	-2.42224255	10.43819826	0.311572265625	0.40352783203125	100.23	8.439561	-0.17238252	-5.1918263	-0.0008429587	-0.0007696869	-0.00013439078	-28.099998	-22.0	8.399994	
0.3900135822246966	0.0	0.01284793033918057	-1.4455002099999996	-2.40066792	10.475463529999999	0.31160888671875	0.403619384765625	100.24000000000001	8.439561	-0.17238252	-5.1918263	-0.0008429587	0.0004520435	-0.00013439078	-28.099998	-22.0	8.399994	
0.40001393048687817	0.0	0.010287328838015211	-1.44353888	-2.4143972299999996	10.50488348	0.31168212890624997	0.40367431640625	100.25	8.431181	-0.17477672	-5.1786585	0.00037877262	0.0016737739	-0.00074525597	-28.200005	-22.100006	8.399994	
0.4100142787490455	0.0	0.013297158672718353	-1.43373223	-2.3967452599999994	10.50488348	0.311663818359375	0.403619384765625	100.26	8.422802	-0.18195933	-5.183447	0.00037877262	0.0016737739	-0.00074525597	-28.200005	-22.100006	8.399994	
0.42001462701121284	0.0	0.009927946171184986	-1.4631521799999998	-2.3692866400000003	10.442120919999999	0.311700439453125	0.403546142578125	100.27	8.421604	-0.17597382	-5.189432	-0.00023209304	0.0010629091	-0.00074525597	-28.200005	-22.0	8.5	
0.4300149752733944	0.0	0.008984566670755643	-1.4455002099999996	-2.3692866400000003	10.465656880000001	0.311663818359375	0.4036376953125	100.28	8.435969	-0.19632454	-5.1942205	-0.00023209304	0.0010629091	-0.00013439078	-28.200005	-22.0	8.5	
0.4400153235355617	0.0	0.008625184003925418	-1.4180415899999994	-2.3928225999999997	10.5127288	0.311700439453125	0.403729248046875	100.29	8.42759	-0.18674773	-5.1930237	-0.00023209304	0.0010629091	0.0010873396	-28.200005	-22.0	8.399994	
0.45001567179772906	0.0	0.012129165005520118	-1.4356935599999996	-2.3692866400000003	10.442120919999999	0.311737060546875	0.4037109375	100.3	8.42759	-0.18674773	-5.1930237	-0.00023209304	0.0004520435	0.0004764744	-28.200005	-22.0	8.399994	
0.4600160200599106	0.0	0.008625184003925418	-1.4317709	-2.3849772799999998	10.489192839999998	0.31175537109375	0.403729248046875	100.31	8.437167	-0.18555063	-5.1942205	-0.0008429587	0.0004520435	0.0004764744	-28.200005	-22.100006	8.5	
0.47001636832207794	0.0	0.009703332004416095	-1.4670748399999995	-2.3771319599999994	10.48134752	0.31175537109375	0.40378417968749997	100.32000000000001	8.443152	-0.18794483	-5.185841	-0.0014538243	0.0004520435	-0.00013439078	-28.200005	-22.100006	8.5	
0.4800167165842453	0.0	0.004851666002208047	-1.4808041500000002	-2.38105462	10.42839161	0.31175537109375	0.40378417968749997	100.33	8.432379	-0.18555063	-5.1882353	-0.00206469	-0.00015882123	0.0004764744	-28.200005	-22.100006	8.5	
0.4900170648464126	0.0	0.0044922833353778216	-1.4455002099999996	-2.3849772799999998	10.451927569999999	0.3117919921875	0.403857421875	100.34	8.429984	-0.19273324	-5.187038	-0.00206469	-0.00015882123	0.0004764744	-28.200005	-22.100006	8.5	
0.5000174131085942	0.0	0.0019766046675662417	-1.4455002099999996	-2.36144132	10.489192839999998	0.311737060546875	0.40382080078125	100.35000000000001	8.429984	-0.19273324	-5.187038	-0.0014538243	0.0004520435	-0.00013439078	-28.200005	-22.100006	8.399994	
0.5100177613707615	0.0	-0.0008984566670755643	-1.4200029200000004	-2.386938609999999	10.50488348	0.31177368164062497	0.403857421875	100.36	8.432379	-0.18555063	-5.1822495	-0.0008429587	0.0004520435	-0.00013439078	-28.200005	-22.100006	8.399994	
0.5200181096329288	0.0	-0.0017969133341511287	-1.4494228700000003	-2.3535959999999996	10.50488348	0.311810302734375	0.403802490234375	100.37	8.433576	-0.17956513	-5.183447	-0.0014538243	0.0010629091	-0.00013439078	-28.200005	-22.100006	8.399994	
0.5300184578951104	0.0	0.0017969133341511287	-1.4631521799999998	-2.3673253099999996	10.483308849999998	0.31186523437499997	0.40387573242187497	100.38	8.432379	-0.17357962	-5.195418	-0.0014538243	0.0010629091	-0.00074525597	-28.200005	-22.100006	8.399994	
0.5400188061572777	0.0	0.0023359873343964674	-1.4651135099999997	-2.3771319599999994	10.47742486	0.3117919921875	0.40396728515624997	100.39	8.432379	-0.18435353	-5.189432	-0.0014538243	0.0004520435	-0.00013439078	-28.200005	-22.0	8.399994	
0.550019154419445	0.0	0.00754703600343474	-1.43373223	-2.3653639799999997	10.489192839999998	0.311810302734375	0.4039306640625	100.4	8.438364	-0.18195933	-5.189432	-0.0008429587	0.0004520435	0.0010873396	-28.200005	-22.0	8.399994	
0.5600195026816266	0.0	0.0044922833353778216	-1.4200029200000004	-2.39870659	10.502922150000002	0.311846923828125	0.40387573242187497	100.41	8.432379	-0.19033903	-5.1906295	-0.0014538243	0.0004520435	0.0004764744	-28.200005	-22.0	8.300003	
0.5700198509437939	0.0	0.014285461006501474	-1.4317709	-2.3653639799999997	10.489192839999998	0.31195678710937497	0.403948974609375	100.42	8.437167	-0.18555063	-5.1930237	-0.0008429587	0.0004520435	-0.00013439078	-28.200005	-22.0	8.300003	
0.5800201992059613	0.0	0.01513899484022326	-1.4474615399999995	-2.38301595	10.50488348	0.31186523437499997	0.404022216796875	100.43	8.439561	-0.19033903	-5.1930237	-0.00023209304	-0.00015882123	-0.00013439078	-28.200005	-22.0	8.300003	
0.5900205474681428	0.0	0.018508207341756625	-1.4572681899999995	-2.3673253099999996	10.446043579999998	0.31190185546875	0.403985595703125	100.44	8.439561	-0.17597382	-5.1822495	-0.00023209304	-0.00015882123	0.0004764744	-28.200005	-22.0	8.300003	
0.6000208957303101	0.0	0.009748254837769874	-1.45334553	-2.35947999	10.4735022	0.31190185546875	0.4040771484375	100.45	8.444349	-0.19393034	-5.183447	-0.00023209304	0.0004520435	-0.00013439078	-28.200005	-22.0	8.199997	
0.6100212439924775	0.0	0.012219010672227675	-1.4258869099999996	-2.35163467	10.48134752	0.31197509765625	0.40404052734375	100.46000000000001	8.437167	-0.20111294	-5.177461	-0.00023209304	-0.00015882123	-0.00013439078	-28.200005	-22.0	8.199997	
0.620021592254659	0.0	0.014554998006624143	-1.4356935599999996	-2.3692866400000003	10.40289432	0.31201171875	0.404095458984375	100.47	8.437167	-0.20111294	-5.177461	-0.0014538243	-0.00015882123	-0.00074525597	-28.200005	-22.0	8.100006	
0.6300219405168264	0.0	0.015273763340284595	-1.4356935599999996	-2.3673253099999996	10.465656880000001	0.311993408203125	0.404168701171875	100.48	8.438364	-0.18555063	-5.1846437	-0.0008429587	-0.0007696869	0.0004764744	-28.200005	-22.0	8.100006	
0.6400222887789937	0.0	-0.018328516008341515	-1.4455002099999996	-2.36144132	10.48134752	0.311993408203125	0.40404052734375	100.49000000000001	8.438364	-0.18555063	-5.1846437	-0.0008429587	-0.0007696869	0.0004764744	-28.200005	-22.0	8.100006	
0.650022637041161	0.0	-0.15561269473748776	-1.4141189299999999	-2.3928225999999997	10.48134752	0.311993408203125	0.40415039062499997	100.5	8.437167	-0.19273324	-5.1810527	-0.0008429587	-0.0007696869	-0.00074525597	-28.200005	-22.0	8.100006	
0.6600229853033426	0.0	-0.06648579336359177	-1.4356935599999996	-2.36144132	10.528419439999999	0.311993408203125	0.40418701171875	100.51	8.439561	-0.18435353	-5.183447	-0.00206469	-0.0007696869	-0.00013439078	-28.200005	-21.899994	8.0	
0.6700233335655099	0.0	0.42209494219210014	-1.4592295200000003	-2.3849772799999998	10.50880614	0.312066650390625	0.4042236328125	100.52	8.435969	-0.18674773	-5.189432	-0.00206469	-0.00015882123	0.0004764744	-28.200005	-21.899994	8.0	
0.6800236818276773	0.0	0.5529102329183023	-1.4670748399999995	-2.3535959999999996	10.528419439999999	0.312066650390625	0.4042236328125	100.53	8.4347725	-0.17956513	-5.189432	-0.0008429587	-0.00015882123	0.0004764744	-28.200005	-21.899994	8.0	
0.6900240300898588	0.0	0.2416848434433268	-1.43373223	-2.40066792	10.48134752	0.31204833984374997	0.40426025390625	100.54	8.42759	-0.18195933	-5.195418	-0.0014538243	0.0010629091	0.0004764744	-28.200005	-21.899994	8.0	
0.7000243783520261	0.0	0.07331406403336606	-1.4474615399999995	-2.3535959999999996	10.528419439999999	0.3120849609375	0.40426025390625	100.55	8.422802	-0.18076223	-5.1942205	-0.0014538243	-0.00015882123	-0.00013439078	-28.200005	-21.899994	8.0	
0.7100247266141935	0.0	-0.01936174117547841	-1.43373223	-2.3261373799999996	10.253833239999999	0.3120849609375	0.404296875	100.56	8.432379	-0.17956513	-5.187038	-0.0008429587	0.0010629091	-0.00013439078	-28.200005	-21.899994	8.0	
0.720025074876375	0.0	-0.07771650170203631	-1.4827654799999999	-2.4065519099999992	10.416623629999998	0.312103271484375	0.40433349609374997	100.57000000000001	8.425196	-0.19273324	-5.1906295	-0.00023209304	0.0004520435	-0.00013439078	-28.200005	-21.899994	8.0	
0.7300254231385424	0.0	-0.08445492670510305	-1.4317709	-2.3849772799999998	10.48134752	0.312066650390625	0.404351806640625	100.58	8.425196	-0.19273324	-5.1906295	-0.0014538243	0.0010629091	0.0004764744	-28.200005	-21.899994	8.0	
0.7400257714007097	0.0	-0.0837361613714426	-1.4298095700000004	-2.40066792	10.42839161	0.312158203125	0.40440673828125	100.59	8.428787	-0.18914193	-5.183447	-0.0014538243	0.0010629091	0.0004764744	-28.200005	-21.899994	8.0	
0.7500261196628912	0.0	-0.07942356936947989	-1.5376827200000005	-2.36144132	10.449966239999998	0.312213134765625	0.404443359375	100.60000000000001	8.4347725	-0.18555063	-5.195418	-0.0014538243	0.0004520435	-0.00013439078	-28.200005	-21.899994	8.0	
0.7600264679250586	0.0	-0.07511097736751718	-1.4827654799999999	-2.4261652099999993	10.371513039999998	0.31213989257812497	0.404461669921875	100.61	8.437167	-0.18914193	-5.199009	-0.0008429587	0.0010629091	-0.00074525597	-28.200005	-21.899994	7.800003	
0.7700268161872259	0.0	-0.07273006719976693	-1.3670470099999996	-2.4065519099999992	10.395049	0.31219482421875	0.40447998046875	100.62	8.439561	-0.18674773	-5.1882353	-0.0008429587	0.0016737739	-0.00074525597	-28.200005	-21.899994	7.800003	
0.7800271644494075	0.0	-0.06877685786463446	-1.3258590799999999	-2.3751706299999995	10.52057412	0.312158203125	0.404571533203125	100.63	8.439561	-0.18674773	-5.1882353	-0.00023209304	0.0016737739	-0.00013439078	-28.200005	-21.899994	7.800003	
0.7900275127115748	0.0	-0.06271227536187439	-1.3964669599999997	-2.3496733400000003	10.58333668	0.312176513671875	0.404534912109375	100.64	8.431181	-0.17477672	-5.1906295	-0.00206469	0.0010629091	-0.00013439078	-28.200005	-21.899994	7.800003	
0.8000278609737421	0.0	-0.06397011469578018	-1.4180415899999994	-2.33006004	10.5519554	0.31219482421875	0.404534912109375	100.65	8.422802	-0.16519992	-5.1918263	-0.00206469	-0.00015882123	0.0010873396	-28.200005	-21.899994	7.899994	
0.8100282092359095	0.0	-0.06235289269504417	-1.4200029200000004	-2.32221472	10.5519554	0.312176513671875	0.404461669921875	100.66	8.428787	-0.16519992	-5.1786585	-0.0014538243	-0.00015882123	0.0010873396	-28.200005	-21.899994	7.899994	
0.820028557498091	0.0	-0.059837214027232584	-1.4180415899999994	-2.2810267900000003	10.47742486	0.312213134765625	0.40447998046875	100.67	8.425196	-0.18315643	-5.1798553	-0.0008429587	0.0010629091	0.0016982048	-28.200005	-21.899994	7.899994	
0.8300289057602583	0.0	-0.05498554802502454	-1.4043122799999999	-2.2771041299999997	10.52057412	0.31219482421875	0.404534912109375	100.68	8.425196	-0.18315643	-5.1798553	-0.00023209304	0.0016737739	0.0023090704	-28.200005	-21.899994	7.899994	
0.8400292540224257	0.0	-0.04869635135549559	-1.4455002099999996	-2.32025339	10.52253545	0.312158203125	0.404461669921875	100.69	8.444349	-0.23104046	-5.2049947	-0.0008429587	0.0022846395	0.0016982048	-28.200005	-21.899994	7.899994	
0.8500296022846072	0.0	-0.04159854368559863	-1.4709975000000002	-2.33006004	10.489192839999998	0.31213989257812497	0.40440673828125	100.7	8.444349	-0.23104046	-5.2049947	-0.00023209304	0.0004520435	0.0016982048	-28.200005	-21.899994	7.899994	
0.8600299505467746	0.0	-0.03719610601692837	-1.4513842000000001	-2.3535959999999996	10.546071410000001	0.31213989257812497	0.404351806640625	100.71000000000001	8.462306	-0.21906945	-5.2049947	-0.00206469	-0.0007696869	0.0004764744	-28.299995	-21.899994	7.899994	
0.8700302988089419	0.0	-0.023000490677134448	-1.4572681899999995	-2.3535959999999996	10.4735022	0.31213989257812497	0.40426025390625	100.72	8.462306	-0.20111294	-5.2049947	-0.0032864213	-0.0007696869	-0.00074525597	-28.299995	-21.899994	7.899994	
0.8800306470711234	0.0	-0.009883023337831209	-1.4455002099999996	-2.40066792	10.410739639999997	0.31219482421875	0.404296875	100.73	8.429984	-0.16998832	-5.1547165	-0.0032864213	-0.0019914173	-0.0025778518	-28.299995	-21.899994	7.899994	
0.8900309953332908	0.0	0.0039532093351324835	-1.4709975000000002	-2.42028122	10.398971659999999	0.312158203125	0.40426025390625	100.74000000000001	8.429984	-0.16998832	-5.1547165	-0.003897287	-0.002602283	-0.0025778518	-28.299995	-21.899994	7.899994	
0.9000313435954581	0.0	0.02066450334273798	-1.4592295200000003	-2.3888999400000004	10.4342756	0.31219482421875	0.4042236328125	100.75	8.423999	-0.14724341	-5.195418	-0.0032864213	-0.0013805525	-0.0025778518	-28.299995	-21.800003	7.800003	
0.9100316918576397	0.0	0.03126629201422964	-1.4670748399999995	-2.3849772799999998	10.48134752	0.312066650390625	0.40415039062499997	100.76	8.423999	-0.14724341	-5.195418	-0.00023209304	-0.00015882123	-0.0019669866	-28.299995	-21.800003	7.800003	
0.920032040119807	0.0	0.034321044682286556	-1.4455002099999996	-2.42812654	10.43623693	0.31212158203125	0.40424194335937497	100.77	8.435969	-0.1592144	-5.207389	0.0016005039	-0.00015882123	-0.00074525597	-28.200005	-21.800003	7.800003	
0.9300323883819743	0.0	0.03611795801643769	-1.4827654799999999	-2.3751706299999995	10.48134752	0.312103271484375	0.40418701171875	100.78	8.435969	-0.1592144	-5.207389	0.00037877262	-0.0032131476	-0.00013439078	-28.200005	-21.800003	7.800003	
0.9400327366441559	0.0	0.02749277401251227	-1.4749201599999997	-2.4085132400000004	10.475463529999999	0.31219482421875	0.4042236328125	100.79	8.433576	-0.16759412	-5.185841	-0.0008429587	-0.0038240133	0.0004764744	-28.299995	-21.800003	7.800003	
0.9500330849063232	0.0	0.016262065674067714	-1.4592295200000003	-2.3888999400000004	10.465656880000001	0.31213989257812497	0.404095458984375	100.8	8.431181	-0.18076223	-5.1810527	-0.00023209304	-0.0013805525	0.0004764744	-28.299995	-21.800003	7.800003	
0.9600334331684905	0.0	0.009029489504109423	-1.4651135099999997	-2.3575186599999993	10.497038159999997	0.31212158203125	0.404095458984375	100.81	8.435969	-0.18195933	-5.213374	-0.00023209304	0.0016737739	0.0010873396	-28.299995	-21.800003	7.800003	
0.9700337814306579	0.0	0.00017969133341511287	-1.44353888	-2.3555573299999994	10.528419439999999	0.312103271484375	0.404095458984375	100.82000000000001	8.435969	-0.18435353	-5.207389	-0.0008429587	0.0022846395	0.0010873396	-28.299995	-21.800003	7.800003	
0.9800341296928394	0.0	0.001437530667320903	-1.4455002099999996	-2.3280987100000003	10.497038159999997	0.3120849609375	0.4040771484375	100.83	8.420407	-0.19273324	-5.197812	-0.00206469	0.0004520435	0.0010873396	-28.299995	-21.800003	7.800003	
0.9900344779550068	0.0	-0.001437530667320903	-1.4513842000000001	-2.33006004	10.5127288	0.312103271484375	0.404022216796875	100.84	8.420407	-0.19273324	-5.197812	-0.0026755556	-0.0007696869	0.0016982048	-28.299995	-21.800003	7.800003	
1.000034826217174	0.0	-0.003503981001594701	-1.43373223	-2.32221472	10.567646039999998	0.31213989257812497	0.40400390625	100.85000000000001	8.422802	-0.18555063	-5.1822495	-0.0026755556	-0.0013805525	0.0016982048	-28.200005	-21.800003	7.800003	
1.0100351744793556	0.0	-0.001437530667320903	-1.4356935599999996	-2.3143694	10.42839161	0.312066650390625	0.40396728515624997	100.86	8.431181	-0.19033903	-5.1810527	-0.0008429587	0.0004520435	0.0023090704	-28.200005	-21.800003	7.800003	
1.020035522741523	0.0	-0.0017969133341511287	-1.4651135099999997	-2.3555573299999994	10.54018742	0.31212158203125	0.4039306640625	100.87	8.433576	-0.19991584	-5.189432	-0.0008429587	0.0004520435	0.0016982048	-28.200005	-21.800003	7.800003	
1.0300358710036903	0.0	0.00017969133341511287	-1.4121576	-2.4555851599999996	10.410739639999997	0.312103271484375	0.4039306640625	100.88	8.439561	-0.19752164	-5.1966147	-0.0014538243	-0.00015882123	0.0016982048	-28.200005	-21.800003	7.800003	
1.0400362192658719	0.0	-0.002875061334641806	-1.3886216399999993	-2.3928225999999997	10.449966239999998	0.31204833984374997	0.40389404296875	100.89	8.435969	-0.20111294	-5.213374	-0.00206469	-0.00015882123	0.0010873396	-28.200005	-21.800003	7.899994	
1.0500365675280392	0.0	-0.004312592001962709	-1.4200029200000004	-2.3751706299999995	10.395049	0.31213989257812497	0.40396728515624997	100.9	8.441956	-0.19273324	-5.213374	-0.00206469	0.0004520435	0.0004764744	-28.200005	-21.800003	7.899994	
1.0600369157902065	0.0	-0.006423965169590285	-1.4494228700000003	-2.3496733400000003	10.465656880000001	0.3120849609375	0.403948974609375	100.91	8.446744	-0.18076223	-5.2037973	-0.0026755556	0.0016737739	-0.00074525597	-28.200005	-21.800003	7.800003	
1.070037264052388	0.0	-0.0039532093351324835	-1.4474615399999995	-2.3280987100000003	10.48134752	0.3120849609375	0.40396728515624997	100.92	8.440758	-0.17118542	-5.2002063	-0.0026755556	0.0016737739	-0.0019669866	-28.200005	-21.800003	7.800003	
1.0800376123145554	0.0	-0.0017969133341511287	-1.4513842000000001	-2.3751706299999995	10.46957954	0.31204833984374997	0.403985595703125	100.93	8.440758	-0.17118542	-5.2002063	-0.0014538243	0.0016737739	-0.0013561212	-28.200005	-21.800003	7.800003	
1.0900379605767228	0.0	0.002740292834580471	-1.4121576	-2.40066792	10.459772890000002	0.31213989257812497	0.403948974609375	100.94	8.428787	-0.17118542	-5.1918263	-0.0008429587	0.0028955047	-0.0013561212	-28.200005	-21.800003	7.800003	
1.1000383088389043	0.0	0.003054752668056919	-1.3768536599999996	-2.3849772799999998	10.50488348	0.312103271484375	0.403912353515625	100.95	8.426393	-0.19033903	-5.1762643	-0.0008429587	0.00350637	-0.0013561212	-28.200005	-21.800003	7.800003	
1.1100386571010716	0.0	0.0032344440014720316	-1.3886216399999993	-2.3457506799999996	10.530380769999999	0.312066650390625	0.40400390625	100.96000000000001	8.426393	-0.18435353	-5.1942205	0.00037877262	0.00350637	-0.00074525597	-28.200005	-21.800003	7.800003	
1.120039005363239	0.0	0.0019766046675662417	-1.4749201599999997	-2.3457506799999996	10.538226090000002	0.3120849609375	0.4039306640625	100.97	8.425196	-0.18435353	-5.21098	0.00037877262	0.0016737739	0.0004764744	-28.200005	-21.800003	7.800003	
1.1300393536254063	0.0	0.005570431335868499	-1.4592295200000003	-2.3673253099999996	10.575491359999997	0.312030029296875	0.403948974609375	100.98	8.428787	-0.17357962	-5.197812	-0.0008429587	0.0004520435	0.0010873396	-28.200005	-21.800003	7.800003	
1.1400397018875879	0.0	0.007007962003189402	-1.44157755	-2.3928225999999997	10.5519554	0.3120849609375	0.403912353515625	100.99000000000001	8.438364	-0.17956513	-5.197812	-0.0014538243	-0.0013805525	0.0016982048	-28.200005	-21.800003	7.800003	
1.1500400501497552	0.0	0.011140862671736997	-1.4670748399999995	-2.3535959999999996	10.497038159999997	0.312066650390625	0.4039306640625	101.0	8.445546	-0.19033903	-5.1882353	-0.0014538243	-0.0019914173	0.0010873396	-28.200005	-21.800003	7.800003	
1.1600403984119225	0.0	0.006738425003066733	-1.4200029200000004	-2.386938609999999	10.4735022	0.312066650390625	0.4039306640625	101.01	8.445546	-0.19153613	-5.1930237	-0.00206469	-0.0007696869	0.0010873396	-28.200005	-21.699997	7.800003	
1.170040746674104	0.0	0.011724859505336116	-1.4200029200000004	-2.3849772799999998	10.50488348	0.31204833984374997	0.404022216796875	101.02	8.443152	-0.18435353	-5.21098	-0.0026755556	0.0004520435	0.0010873396	-28.200005	-21.699997	7.800003	
1.1800410949362714	0.0	0.00754703600343474	-1.4278482399999994	-2.36144132	10.48134752	0.3120849609375	0.403985595703125	101.03	8.438364	-0.17836803	-5.2002063	-0.00206469	-0.0007696869	0.0004764744	-28.200005	-21.800003	7.800003	
1.1900414431984387	0.0	0.009703332004416095	-1.4043122799999999	-2.4065519099999992	10.442120919999999	0.31204833984374997	0.40396728515624997	101.04	8.438364	-0.18315643	-5.195418	-0.00206469	-0.0007696869	0.0004764744	-28.200005	-21.800003	7.800003	
1.2000417914606203	0.0	0.004851666002208047	-1.44353888	-2.39870659	10.4735022	0.312030029296875	0.403912353515625	101.05	8.432379	-0.17956513	-5.1846437	-0.0026755556	-0.0007696869	-0.00074525597	-28.200005	-21.800003	7.899994	
1.2100421397227876	0.0	0.010242406004661433	-1.4749201599999997	-2.3967452599999994	10.459772890000002	0.3120849609375	0.40400390625	101.06	8.422802	-0.18076223	-5.187038	-0.00206469	-0.00015882123	-0.00013439078	-28.200005	-21.800003	7.899994	
1.220042487984955	0.0	0.008445492670510304	-1.44353888	-2.4320492	10.489192839999998	0.3120849609375	0.403948974609375	101.07000000000001	8.422802	-0.18076223	-5.187038	-0.0008429587	0.0004520435	-0.00013439078	-28.200005	-21.800003	8.0	
1.2300428362471365	0.0	0.00202152750092002	-1.4356935599999996	-2.3928225999999997	10.442120919999999	0.3120849609375	0.403985595703125	101.08	8.429984	-0.17956513	-5.195418	-0.00023209304	0.0004520435	-0.00013439078	-28.200005	-21.800003	8.0	
1.2400431845093038	0.0	-0.00013476850006133466	-1.4513842000000001	-2.3692866400000003	10.4735022	0.3120849609375	0.40389404296875	101.09	8.414422	-0.18435353	-5.201403	-0.00023209304	0.0004520435	0.0004764744	-28.200005	-21.800003	8.0	
1.2500435327714712	0.0	0.005974736836052503	-1.4141189299999999	-2.3457506799999996	10.44408225	0.312030029296875	0.404022216796875	101.10000000000001	8.41921	-0.17597382	-5.197812	-0.0008429587	0.0004520435	0.0004764744	-28.200005	-21.800003	8.0	
1.2600438810336385	0.0	-0.0010781480004906773	-1.4200029200000004	-2.3673253099999996	10.50684481	0.312158203125	0.40400390625	101.11	8.421604	-0.18914193	-5.199009	-0.00023209304	-0.00015882123	0.0010873396	-28.200005	-21.800003	7.899994	
1.27004422929582	0.0	-0.0008984566670755643	-1.4278482399999994	-2.40262925	10.457811559999998	0.312030029296875	0.403985595703125	101.12	8.428787	-0.18674773	-5.2026005	-0.0008429587	-0.00015882123	0.0016982048	-28.200005	-21.800003	7.899994	
1.2800445775579874	0.0	-0.0008984566670755643	-1.4808041500000002	-2.38301595	10.485270179999999	0.31212158203125	0.403985595703125	101.13	8.433576	-0.20231004	-5.209783	-0.00023209304	-0.00015882123	0.0016982048	-28.200005	-21.800003	7.899994	
1.2900449258201547	0.0	0.00377351800171737	-1.44157755	-2.3771319599999994	10.491154169999998	0.31204833984374997	0.40396728515624997	101.14	8.4347725	-0.19273324	-5.2061915	-0.00033593923	-0.00031764712	0.0014477503	-28.200005	-21.800003	7.899994	
1.3000452740823363	0.0	0.0016172220007360158	-1.44157755	-2.40459058	10.459772890000002	0.312103271484375	0.404022216796875	101.15	8.439561	-0.19512744	-5.2085857	-0.0009468049	0.0002932176	0.00083688507	-28.200005	-21.800003	8.0	
1.3100456223445036	0.0	0.006289196669528951	-1.4258869099999996	-2.38301595	10.50488348	0.31212158203125	0.404022216796875	101.16	8.439561	-0.19273324	-5.1930237	-0.0015576705	0.00090408325	0.00083688507	-28.200005	-21.800003	8.0	
1.320045970606671	0.0	0.0016172220007360158	-1.4200029200000004	-2.36144132	10.4735022	0.31204833984374997	0.40404052734375	101.17	8.435969	-0.18555063	-5.1942205	-0.0015576705	0.00090408325	0.00022601988	-28.099998	-21.800003	8.0	
1.3300463188688525	0.0	0.005929814002698725	-1.44157755	-2.3771319599999994	10.449966239999998	0.312030029296875	0.40400390625	101.18	8.432379	-0.18674773	-5.201403	-0.0015576705	-0.00031764712	0.00022601988	-28.099998	-21.800003	8.0	
1.3400466671310198	0.0	0.0016172220007360158	-1.43373223	-2.3888999400000004	10.489192839999998	0.3120849609375	0.403985595703125	101.19	8.432379	-0.18315643	-5.1942205	-0.0015576705	0.0002932176	-0.0003848453	-28.200005	-21.800003	8.0	
1.3500470153931872	0.0	0.011500245338567224	-1.4396162200000002	-2.3732092999999996	10.497038159999997	0.312066650390625	0.4040771484375	101.2	8.432379	-0.18315643	-5.197812	-0.0015576705	-0.00031764712	-0.0009957105	-28.200005	-21.800003	8.0	
1.3600473636553687	0.0	0.007412267503373406	-1.40235095	-2.4085132400000004	10.451927569999999	0.312066650390625	0.404095458984375	101.21000000000001	8.426393	-0.17118542	-5.201403	-0.0021685362	-0.0009285128	0.00022601988	-28.200005	-21.800003	8.100006	
1.370047711917536	0.0	0.008445492670510304	-1.4258869099999996	-2.40066792	10.42054629	0.312066650390625	0.40411376953125	101.22	8.439561	-0.17956513	-5.199009	-0.0009468049	-0.00031764712	0.00083688507	-28.200005	-21.800003	8.100006	
1.3800480601797034	0.0	0.006828270669774289	-1.4356935599999996	-2.3928225999999997	10.518612789999999	0.312066650390625	0.40405883789062497	101.23	8.432379	-0.19033903	-5.199009	-0.0015576705	-0.0009285128	0.0014477503	-28.200005	-21.800003	8.0	
1.390048408441885	0.0	0.0021562960009813546	-1.42392558	-2.40066792	10.50684481	0.312103271484375	0.40405883789062497	101.24000000000001	8.433576	-0.18674773	-5.197812	-0.0015576705	-0.00031764712	0.0014477503	-28.200005	-21.800003	8.0	
1.4000487567040523	0.0	0.010242406004661433	-1.4592295200000003	-2.3771319599999994	10.449966239999998	0.312158203125	0.40404052734375	101.25	8.429984	-0.18315643	-5.1930237	-0.0009468049	-0.0009285128	0.00083688507	-28.200005	-21.800003	8.100006	
1.4100491049662196	0.0	0.01060178867149166	-1.4356935599999996	-2.36144132	10.4735022	0.31212158203125	0.40411376953125	101.26	8.441956	-0.17597382	-5.1966147	-0.0009468049	-0.0009285128	0.00083688507	-28.200005	-21.800003	8.100006	
1.420049453228387	0.0	0.010107637504600099	-1.4356935599999996	-2.3771319599999994	10.457811559999998	0.31212158203125	0.404168701171875	101.27	8.429984	-0.18195933	-5.1882353	-0.0009468049	-0.0009285128	0.00022601988	-28.200005	-21.800003	8.100006	
1.4300498014905685	0.0	0.008625184003925418	-1.4278482399999994	-2.3928225999999997	10.52057412	0.31204833984374997	0.40418701171875	101.28	8.429984	-0.18195933	-5.1882353	-0.0015576705	-0.00031764712	0.00022601988	-28.200005	-21.800003	8.100006	
1.4400501497527358	0.0	0.003054752668056919	-1.4043122799999999	-2.4085132400000004	10.475463529999999	0.31213989257812497	0.404205322265625	101.29	8.433576	-0.18555063	-5.2049947	-0.0015576705	-0.00031764712	0.00083688507	-28.200005	-21.899994	8.100006	
1.4500504980149032	0.0	0.003054752668056919	-1.4592295200000003	-2.36144132	10.510767470000001	0.312103271484375	0.404205322265625	101.3	8.42759	-0.19512744	-5.2002063	-0.0009468049	-0.0015393784	-0.0003848453	-28.200005	-21.899994	8.100006	
1.4600508462770847	0.0	0.005076280168976939	-1.3866603099999997	-2.40262925	10.457811559999998	0.31213989257812497	0.404278564453125	101.31	8.4347725	-0.19153613	-5.195418	-0.0009468049	-0.00031764712	-0.0003848453	-28.200005	-21.899994	8.100006	
1.470051194539252	0.0	0.004671974668792935	-1.44157755	-2.3849772799999998	10.5127288	0.31223144531249997	0.40426025390625	101.32000000000001	8.42759	-0.18914193	-5.2026005	-0.0015576705	-0.00031764712	0.00083688507	-28.200005	-21.899994	8.100006	
1.4800515428014194	0.0	0.005390740002453386	-1.4513842000000001	-2.4065519099999992	10.5127288	0.312158203125	0.40426025390625	101.33	8.435969	-0.18315643	-5.199009	-0.0009468049	-0.00031764712	0.00083688507	-28.200005	-21.899994	8.100006	
1.490051891063601	0.0	0.007007962003189402	-1.4180415899999994	-2.40066792	10.4735022	0.31219482421875	0.4043701171875	101.34	8.435969	-0.18315643	-5.199009	-0.0015576705	-0.00031764712	0.00022601988	-28.200005	-21.899994	8.100006	
1.5000522393257683	0.0	0.005929814002698725	-1.4611908500000002	-2.3928225999999997	10.50488348	0.31219482421875	0.4043701171875	101.35000000000001	8.420407	-0.18555063	-5.2049947	-0.0015576705	-0.00031764712	-0.0003848453	-28.200005	-21.899994	8.100006	
1.5100525875879356	0.0	0.010961171338321885	-1.3925443	-2.4143972299999996	10.497038159999997	0.312176513671875	0.40433349609374997	101.36	8.420407	-0.18555063	-5.2049947	-0.0009468049	-0.00031764712	-0.0003848453	-28.200005	-21.899994	8.100006	
1.5200529358501171	0.0	0.0039532093351324835	-1.4200029200000004	-2.4085132400000004	10.491154169999998	0.31213989257812497	0.40440673828125	101.37	8.422802	-0.18555063	-5.2085857	-0.0015576705	-0.00031764712	0.00022601988	-28.200005	-21.899994	8.0	
1.5300532841122845	0.0	0.008265801337095192	-1.4396162200000002	-2.3849772799999998	10.528419439999999	0.31219482421875	0.40442504882812497	101.38	8.422802	-0.18555063	-5.2085857	-0.0015576705	-0.00031764712	0.00022601988	-28.200005	-21.899994	8.0	
1.5400536323744518	0.0	0.008984566670755643	-1.4298095700000004	-2.40066792	10.48134752	0.31219482421875	0.40451660156249997	101.39	8.426393	-0.17836803	-5.195418	-0.0015576705	0.0002932176	0.00022601988	-28.200005	-21.899994	8.0	
1.5500539806366334	0.0	0.005211048669038273	-1.4200029200000004	-2.39870659	10.50488348	0.312213134765625	0.40447998046875	101.4	8.422802	-0.18435353	-5.2002063	-0.0009468049	0.0002932176	0.0014477503	-28.200005	-21.899994	8.0	
1.5600543288988007	0.0	0.0007187653336604515	-1.4298095700000004	-2.40459058	10.47742486	0.31223144531249997	0.404534912109375	101.41	8.432379	-0.19033903	-5.2026005	-0.0009468049	0.0002932176	0.0014477503	-28.200005	-21.899994	8.0	
1.570054677160968	0.0	0.005750122669283612	-1.4298095700000004	-2.36144132	10.48134752	0.3123046875	0.404571533203125	101.42	8.433576	-0.18315643	-5.207389	-0.0015576705	0.0002932176	0.002058616	-28.200005	-21.899994	8.0	
1.5800550254231354	0.0	0.00880487533734053	-1.4200029200000004	-2.386938609999999	10.4735022	0.31226806640625	0.40458984375	101.43	8.433576	-0.18315643	-5.207389	-0.0015576705	0.0002932176	0.00083688507	-28.200005	-21.899994	8.0	
1.590055373685317	0.0	0.003054752668056919	-1.4121576	-2.40066792	10.50488348	0.31223144531249997	0.40462646484375	101.44	8.437167	-0.18794483	-5.197812	-0.0015576705	0.0002932176	0.00022601988	-28.200005	-21.899994	8.0	
1.6000557219474842	0.0	0.006019659669406281	-1.44353888	-2.40459058	10.497038159999997	0.31226806640625	0.4046630859375	101.45	8.444349	-0.18435353	-5.2061915	-0.0021685362	0.00090408325	-0.0003848453	-28.200005	-21.899994	8.0	
1.6100560702096516	0.0	0.008984566670755643	-1.43373223	-2.39086127	10.47938619	0.3123046875	0.4046630859375	101.46000000000001	8.444349	-0.18435353	-5.2061915	-0.0015576705	0.00090408325	0.00083688507	-28.200005	-21.899994	8.0	
1.6200564184718331	0.0	0.012892853172534349	-1.43373223	-2.4163585599999995	10.5127288	0.31226806640625	0.404681396484375	101.47	8.433576	-0.18435353	-5.2049947	-0.0009468049	0.00090408325	0.00022601988	-28.200005	-21.800003	8.0	
1.6300567667340005	0.0	0.007367344670019628	-1.4180415899999994	-2.3849772799999998	10.50488348	0.3123046875	0.404681396484375	101.48	8.435969	-0.18315643	-5.2002063	-0.0009468049	0.0002932176	0.00022601988	-28.200005	-21.800003	8.0	
1.6400571149961678	0.0	0.007726727336849854	-1.4455002099999996	-2.3928225999999997	10.457811559999998	0.31232299804687497	0.404718017578125	101.49000000000001	8.433576	-0.17956513	-5.2002063	-0.0015576705	0.0002932176	0.00022601988	-28.099998	-21.800003	8.0	
1.6500574632583493	0.0	0.006468888002944063	-1.43373223	-2.386938609999999	10.442120919999999	0.3123046875	0.404736328125	101.5	8.433576	-0.17956513	-5.2002063	-0.00033593923	-0.00031764712	0.00022601988	-28.099998	-21.800003	8.0	
1.6600578115205167	0.0	0.010062714671246321	-1.4043122799999999	-2.39086127	10.461734220000002	0.312359619140625	0.40477294921875	101.51	8.438364	-0.19153613	-5.1966147	-0.0015576705	-0.00031764712	0.00083688507	-28.099998	-21.800003	8.0	
1.670058159782684	0.0	0.007142730503250737	-1.4356935599999996	-2.3928225999999997	10.48134752	0.312286376953125	0.4048095703125	101.52	8.433576	-0.18435353	-5.2002063	-0.0009468049	-0.00031764712	0.00083688507	-28.099998	-21.800003	8.0	
1.6800585080448656	0.0	-0.046540055354514234	-1.4258869099999996	-2.4085132400000004	10.457811559999998	0.31241455078124997	0.40484619140625	101.53	8.429984	-0.18914193	-5.2085857	-0.0009468049	-0.00031764712	0.00083688507	-28.099998	-21.800003	8.0	
1.690058856307033	0.0	-0.17178491474484792	-1.4356935599999996	-2.3928225999999997	10.4735022	0.31241455078124997	0.404864501953125	101.54	8.439561	-0.18076223	-5.201403	-0.0009468049	-0.00031764712	0.00083688507	-28.099998	-21.800003	8.0	
1.7000592045692002	0.0	-0.038993019351079496	-1.4494228700000003	-2.4359718599999995	10.457811559999998	0.3123779296875	0.404901123046875	101.55	8.435969	-0.18315643	-5.2085857	-0.0015576705	-0.00031764712	0.0014477503	-28.099998	-21.800003	8.0	
1.7100595528313818	0.0	0.5730805850941487	-1.4200029200000004	-2.40066792	10.46957954	0.31241455078124997	0.404901123046875	101.56	8.433576	-0.18076223	-5.1966147	-0.0015576705	-0.00031764712	0.00022601988	-28.099998	-21.800003	8.0	
1.7200599010935491	0.0	0.6184975696148185	-1.4356935599999996	-2.39086127	10.48134752	0.312359619140625	0.40484619140625	101.57000000000001	8.443152	-0.18435353	-5.201403	-0.0021685362	-0.00031764712	0.00083688507	-28.099998	-21.800003	8.100006	
1.7300602493557165	0.0	0.22717476827005645	-1.4356935599999996	-2.3771319599999994	10.50488348	0.31241455078124997	0.40491943359375	101.58	8.429984	-0.18794483	-5.2026005	-0.0021685362	-0.00031764712	0.0014477503	-28.099998	-21.800003	8.100006	
1.7400605976178838	0.0	0.05642307869234544	-1.4200029200000004	-2.4124358999999997	10.536264759999998	0.31241455078124997	0.404937744140625	101.59	8.429984	-0.18674773	-5.2061915	-0.0009468049	-0.00031764712	0.00083688507	-28.099998	-21.899994	8.100006	
1.7500609458800653	0.0	-0.03737579735034348	-1.3886216399999993	-2.40066792	10.27933053	0.31241455078124997	0.404937744140625	101.60000000000001	8.432379	-0.17717093	-5.2037973	-0.00033593923	-0.00031764712	0.0014477503	-28.099998	-21.899994	8.100006	
1.7600612941422327	0.0	-0.09370903037598137	-1.4356935599999996	-2.43989452	10.31855713	0.31250610351562497	0.405029296875	101.61	8.42759	-0.19153613	-5.197812	-0.0009468049	-0.0009285128	0.00083688507	-28.099998	-21.800003	8.100006	
1.7700616424044	0.0	-0.10260375138002945	-1.3886216399999993	-2.44970117	10.50488348	0.312469482421875	0.405029296875	101.62	8.428787	-0.19871874	-5.2037973	-0.0015576705	-0.0009285128	0.0014477503	-28.099998	-21.800003	8.100006	
1.7800619906665816	0.0	-0.10062714671246321	-1.3886216399999993	-2.4791211200000003	10.424468950000001	0.312432861328125	0.405084228515625	101.63	8.42759	-0.19871874	-5.2049947	-0.0009468049	-0.00031764712	0.00022601988	-28.099998	-21.800003	8.100006	
1.7900623389287489	0.0	-0.09415825870951915	-1.4984561200000004	-2.4791211200000003	10.48134752	0.312432861328125	0.405120849609375	101.64	8.435969	-0.19033903	-5.2085857	-0.0027794018	0.0002932176	-0.0003848453	-28.099998	-21.800003	8.100006	
1.8000626871909162	0.0	-0.09128319737487733	-1.4572681899999995	-2.4771597900000004	10.410739639999997	0.31250610351562497	0.4051025390625	101.65	8.428787	-0.17597382	-5.21098	-0.0015576705	0.0002932176	-0.0016065757	-28.200005	-21.800003	8.100006	
1.8100630354530978	0.0	-0.08068140870338568	-1.4003896200000003	-2.3692866400000003	10.43623693	0.312469482421875	0.40521240234375	101.66	8.428787	-0.17597382	-5.21098	0.00027492642	0.00090408325	-0.0009957105	-28.200005	-21.800003	8.100006	
1.820063383715265	0.0	-0.0781657300355741	-1.3729310000000001	-2.3575186599999993	10.536264759999998	0.312542724609375	0.40524902343749997	101.67	8.431181	-0.16160862	-5.2181625	-0.0009468049	0.001514948	0.00022601988	-28.200005	-21.899994	8.100006	
1.8300637319774324	0.0	-0.0775368103686212	-1.3650856799999997	-2.3535959999999996	10.573530029999997	0.312542724609375	0.405194091796875	101.68	8.413225	-0.1604115	-5.209783	-0.0015576705	-0.00031764712	0.00083688507	-28.200005	-21.899994	8.100006	
1.840064080239614	0.0	-0.06945070036494112	-1.4572681899999995	-2.3143694	10.569607369999998	0.31256103515625	0.40521240234375	101.69	8.409634	-0.18914193	-5.1786585	-0.0021685362	-0.0009285128	0.002058616	-28.200005	-21.899994	8.100006	
1.8500644285017813	0.0	-0.06823778386438911	-1.4592295200000003	-2.29279477	10.546071410000001	0.31250610351562497	0.40515747070312497	101.7	8.409634	-0.18914193	-5.1786585	-0.0015576705	0.0002932176	0.0032803463	-28.200005	-21.899994	8.100006	
1.8600647767639487	0.0	-0.0614544360279686	-1.3886216399999993	-2.3379053599999993	10.50488348	0.312451171875	0.40521240234375	101.71000000000001	8.421604	-0.21068975	-5.183447	-0.00033593923	0.00090408325	0.0032803463	-28.200005	-21.899994	8.100006	
1.870065125026116	0.0	-0.05866922036003435	-1.4278482399999994	-2.3182920600000005	10.498999490000001	0.312469482421875	0.405010986328125	101.72	8.421604	-0.21068975	-5.183447	0.00027492642	0.0027366788	0.0026694806	-28.200005	-21.899994	8.100006	
1.8800654732882975	0.0	-0.0488760426889107	-1.4396162200000002	-2.35947999	10.448004909999998	0.312396240234375	0.4049560546875	101.73	8.4587145	-0.25737667	-5.233725	-0.0009468049	0.0021258136	0.0026694806	-28.200005	-21.899994	8.100006	
1.8900658215504649	0.0	-0.05220033235709029	-1.4729588299999998	-2.40066792	10.48134752	0.31241455078124997	0.404901123046875	101.74000000000001	8.4587145	-0.23822308	-5.249287	-0.0015576705	-0.0009285128	0.00083688507	-28.200005	-21.899994	8.100006	
1.9000661698126322	0.0	-0.05318863469087341	-1.4298095700000004	-2.4124358999999997	10.449966239999998	0.3123779296875	0.4048095703125	101.75	8.47308	-0.20590134	-5.233725	-0.0027794018	-0.0021502431	-0.0003848453	-28.299995	-21.899994	8.0	
1.9100665180748138	0.0	-0.04222746335255152	-1.4455002099999996	-2.4065519099999992	10.465656880000001	0.312359619140625	0.40484619140625	101.76	8.461109	-0.16998832	-5.207389	-0.0040011294	-0.0021502431	-0.002217441	-28.299995	-21.899994	8.0	
1.920066866336981	0.0	-0.03679180051674436	-1.4200029200000004	-2.4791211200000003	10.410739639999997	0.312359619140625	0.404754638671875	101.77	8.4347725	-0.15442601	-5.2061915	-0.004611995	-0.0027611088	-0.004050037	-28.299995	-21.899994	8.100006	
1.9300672145991484	0.0	-0.027627542512573603	-1.4043122799999999	-2.4948117599999993	10.416623629999998	0.312286376953125	0.4046630859375	101.78	8.42759	-0.15562311	-5.1666875	-0.004611995	-0.0033719735	-0.004050037	-28.299995	-21.899994	8.100006	
1.94006756286133	0.0	-0.012892853172534349	-1.4180415899999994	-2.4595078200000002	10.44408225	0.31226806640625	0.40455322265625	101.79	8.412027	-0.15203181	-5.159505	-0.0040011294	-0.0009285128	-0.0034391715	-28.200005	-21.899994	8.100006	
1.9500679111234973	0.0	0.005390740002453386	-1.3925443	-2.4555851599999996	10.51469013	0.31223144531249997	0.404534912109375	101.8	8.412027	-0.14604631	-5.1942205	0.00027492642	0.00090408325	-0.0016065757	-28.200005	-21.899994	8.100006	
1.9600682593856646	0.0	0.0038184408350711487	-1.4101962700000004	-2.4830437799999996	10.4342756	0.312286376953125	0.40458984375	101.81	8.414422	-0.14963761	-5.2277393	0.002718389	0.0002932176	0.00083688507	-28.200005	-21.899994	8.100006	
1.9700686076478462	0.0	0.016351911340775273	-1.4455002099999996	-2.42224255	10.422507620000001	0.31223144531249997	0.404571533203125	101.82000000000001	8.420407	-0.14963761	-5.221754	0.0014966577	-0.003982839	0.0032803463	-28.200005	-21.899994	8.100006	
1.9800689559100135	0.0	0.0237192560107949	-1.4298095700000004	-2.44773984	10.532342099999997	0.312213134765625	0.40442504882812497	101.83	8.428787	-0.18794483	-5.199009	0.00027492642	-0.0015393784	0.0032803463	-28.200005	-21.800003	8.199997	
1.9900693041721809	0.0	0.011590091005274781	-1.4356935599999996	-2.4065519099999992	10.497038159999997	0.31219482421875	0.40442504882812497	101.84	8.428787	-0.18794483	-5.199009	-0.00033593923	0.001514948	0.003891211	-28.200005	-21.800003	8.199997	
2.0000696524343624	0.0	0.01689098534102061	-1.4474615399999995	-2.40066792	10.538226090000002	0.31219482421875	0.404443359375	101.85000000000001	8.449138	-0.19153613	-5.2301335	-0.0015576705	0.0027366788	0.0045020767	-28.200005	-21.800003	8.100006	
2.0100700006965297	0.0	0.00754703600343474	-1.42392558	-2.3496733400000003	10.475463529999999	0.312176513671875	0.40433349609374997	101.86	8.4347725	-0.19632454	-5.2301335	-0.0021685362	0.00090408325	0.003891211	-28.200005	-21.800003	8.100006	
2.020070348958697	0.0	0.0027852156679342493	-1.4396162200000002	-2.3379053599999993	10.48134752	0.31223144531249997	0.4043701171875	101.87	8.428787	-0.20111294	-5.209783	-0.0033902675	-0.00031764712	0.0026694806	-28.200005	-21.800003	8.0	
2.0300706972208644	0.0	0.00956856350435476	-1.4278482399999994	-2.3045627499999997	10.497038159999997	0.31223144531249997	0.404315185546875	101.88	8.428787	-0.20111294	-5.209783	-0.004611995	-0.0015393784	0.002058616	-28.200005	-21.800003	8.0	
2.040071045483046	0.0	0.0034141353348871445	-1.3886216399999993	-2.3379053599999993	10.418584959999997	0.31223144531249997	0.404388427734375	101.89	8.432379	-0.20949265	-5.1942205	-0.0027794018	-0.0009285128	0.0014477503	-28.200005	-21.800003	8.0	
2.0500713937452133	0.0	0.0022012188343351327	-1.4200029200000004	-2.3575186599999993	10.567646039999998	0.31219482421875	0.404278564453125	101.9	8.426393	-0.20111294	-5.2049947	-0.0015576705	-0.0009285128	0.00083688507	-28.200005	-21.800003	8.0	
2.0600717420073806	0.0	0.010961171338321885	-1.4101962700000004	-2.4457785099999994	10.467618210000001	0.31219482421875	0.40418701171875	101.91	8.42759	-0.20350714	-5.21098	-0.0015576705	-0.00031764712	0.002058616	-28.200005	-21.800003	8.0	
2.070072090269562	0.0	0.00377351800171737	-1.3768536599999996	-2.4163585599999995	10.43035294	0.312158203125	0.4042236328125	101.92	8.42759	-0.20350714	-5.21098	-0.0015576705	-0.00031764712	0.00083688507	-28.200005	-21.800003	8.0	
2.0800724385317295	0.0	0.00377351800171737	-1.4298095700000004	-2.3928225999999997	10.498999490000001	0.312158203125	0.40418701171875	101.93	8.433576	-0.20590134	-5.2205567	-0.0015576705	-0.00031764712	-0.0003848453	-28.200005	-21.800003	8.0	
2.090072786793897	0.0	0.010062714671246321	-1.4101962700000004	-2.38301595	10.416623629999998	0.31213989257812497	0.404205322265625	101.94	8.429984	-0.17717093	-5.221754	-0.0021685362	0.00090408325	-0.0003848453	-28.200005	-21.800003	8.0	
2.1000731350560784	0.0	0.007367344670019628	-1.3984282899999994	-2.3771319599999994	10.526458109999998	0.31212158203125	0.40426025390625	101.95	8.428787	-0.17357962	-5.213374	-0.0021685362	0.0002932176	-0.0003848453	-28.200005	-21.800003	8.0	
2.1100734833182457	0.0	0.012982698839241904	-1.3886216399999993	-2.4340105299999997	10.42643028	0.312103271484375	0.4042236328125	101.96000000000001	8.426393	-0.17118542	-5.2002063	-0.0009468049	0.00090408325	-0.0009957105	-28.200005	-21.800003	8.0	
2.120073831580413	0.0	0.011500245338567224	-1.4494228700000003	-2.386938609999999	10.40289432	0.3120849609375	0.4042236328125	101.97	8.421604	-0.17956513	-5.1822495	-0.0009468049	0.0027366788	-0.0009957105	-28.200005	-21.800003	8.100006	
2.1300741798425946	0.0	0.020529734842676645	-1.3572403599999996	-2.3888999400000004	10.50488348	0.31212158203125	0.404205322265625	101.98	8.423999	-0.19512744	-5.1966147	0.00027492642	0.0051801396	0.00022601988	-28.200005	-21.800003	8.100006	
2.140074528104762	0.0	0.01617222000736016	-1.4180415899999994	-2.3888999400000004	10.497038159999997	0.31204833984374997	0.40415039062499997	101.99000000000001	8.423999	-0.19512744	-5.1966147	0.00027492642	0.0051801396	0.00083688507	-28.200005	-21.800003	8.100006	
2.1500748763669293	0.0	0.025336478011530914	-1.4141189299999999	-2.4065519099999992	10.498999490000001	0.3120849609375	0.40415039062499997	102.0	8.42759	-0.19033903	-5.209783	0.00027492642	0.0027366788	0.0014477503	-28.200005	-21.800003	8.100006	
2.160075224629111	0.0	0.019810969509016195	-1.4180415899999994	-2.3888999400000004	10.55587806	0.31204833984374997	0.40418701171875	102.01	8.445546	-0.18315643	-5.2085857	-0.00033593923	0.001514948	0.00083688507	-28.200005	-21.800003	8.100006	
2.170075572891278	0.0	0.017295290841204614	-1.3866603099999997	-2.3751706299999995	10.528419439999999	0.312066650390625	0.40415039062499997	102.02	8.445546	-0.18555063	-5.2085857	-0.0021685362	0.0002932176	0.00022601988	-28.200005	-21.800003	8.100006	
2.1800759211534455	0.0	0.013926078339671247	-1.4062736099999997	-2.4163585599999995	10.489192839999998	0.31213989257812497	0.404132080078125	102.03	8.449138	-0.18315643	-5.2085857	-0.0027794018	-0.00031764712	0.00022601988	-28.200005	-21.800003	8.100006	
2.190076269415613	0.0	0.02749277401251227	-1.3945056299999998	-2.4242038799999994	10.48134752	0.312066650390625	0.40405883789062497	102.04	8.455123	-0.19033903	-5.2061915	-0.0021685362	-0.00031764712	0.00022601988	-28.200005	-21.800003	8.100006	
2.2000766176777944	0.0	0.032928436848319434	-1.4121576	-2.4320492	10.47938619	0.312030029296875	0.4040771484375	102.05	8.444349	-0.18195933	-5.207389	-0.0009468049	-0.00031764712	0.002058616	-28.200005	-21.800003	8.100006	
2.2100769659399617	0.0	0.02389894734421001	-1.3572403599999996	-2.4320492	10.416623629999998	0.3120849609375	0.4040771484375	102.06	8.431181	-0.17956513	-5.207389	-0.0015576705	-0.0009285128	0.0014477503	-28.200005	-21.800003	8.100006	
2.220077314202129	0.0	0.028930304679833173	-1.4200029200000004	-2.40066792	10.46957954	0.312030029296875	0.404022216796875	102.07000000000001	8.432379	-0.17956513	-5.207389	-0.0027794018	-0.0009285128	0.0014477503	-28.299995	-21.800003	8.0	
2.2300776624643106	0.0	0.025336478011530914	-1.3690083399999995	-2.42812654	10.442120919999999	0.31201171875	0.40411376953125	102.08	8.420407	-0.17836803	-5.195418	-0.0027794018	-0.0015393784	0.002058616	-28.299995	-21.800003	8.0	
2.240078010726478	0.0	0.02174265134322866	-1.44353888	-2.44970117	10.489192839999998	0.31204833984374997	0.40415039062499997	102.09	8.423999	-0.18435353	-5.199009	-0.0021685362	-0.0009285128	0.00083688507	-28.299995	-21.899994	8.100006	
2.2500783589886453	0.0	0.030592449513922967	-1.3807763200000003	-2.4634304799999995	10.48134752	0.3119384765625	0.40411376953125	102.10000000000001	8.429984	-0.17477672	-5.21098	-0.0015576705	0.00090408325	0.0014477503	-28.299995	-21.899994	8.100006	
2.260078707250827	0.0	0.020125429342492642	-1.4101962700000004	-2.3928225999999997	10.457811559999998	0.312030029296875	0.40405883789062497	102.11	8.421604	-0.18315643	-5.2205567	-0.0015576705	0.001514948	0.002058616	-28.299995	-21.899994	8.100006	
2.270079055512994	0.0	0.022820799343719333	-1.40235095	-2.3849772799999998	10.497038159999997	0.31201171875	0.40404052734375	102.12	8.42759	-0.19632454	-5.2121773	-0.0015576705	0.00090408325	0.0026694806	-28.299995	-21.899994	8.100006	
2.2800794037751615	0.0	0.016711294007605498	-1.3886216399999993	-2.4085132400000004	10.47742486	0.31197509765625	0.4040771484375	102.13	8.429984	-0.19153613	-5.21098	-0.0015576705	0.00090408325	0.0026694806	-28.299995	-21.899994	8.100006	
2.290079752037343	0.0	0.011320554005152111	-1.4513842000000001	-2.4085132400000004	10.48134752	0.312030029296875	0.404022216796875	102.14	8.438364	-0.19273324	-5.2049947	-0.0021685362	0.00090408325	0.0014477503	-28.299995	-21.899994	8.100006	
2.3000801002995104	0.0	0.021607882843167323	-1.43373223	-2.4242038799999994	10.4735022	0.31201171875	0.40404052734375	102.15	8.443152	-0.19033903	-5.2085857	-0.0015576705	0.00090408325	0.0014477503	-28.299995	-21.899994	8.0	
2.3100804485616777	0.0	0.015992528673945045	-1.4298095700000004	-2.39870659	10.465656880000001	0.312030029296875	0.40405883789062497	102.16	8.443152	-0.19033903	-5.2085857	-0.0015576705	0.00090408325	0.0014477503	-28.299995	-21.899994	8.0	
2.3200807968238593	0.0	0.01886759000858685	-1.4278482399999994	-2.4242038799999994	10.46369555	0.31197509765625	0.404132080078125	102.17	8.443152	-0.19632454	-5.207389	-0.0015576705	0.00090408325	0.0014477503	-28.400002	-21.899994	8.0	
2.3300811450860266	0.0	0.013656541339548578	-1.4180415899999994	-2.43008787	10.457811559999998	0.311920166015625	0.40404052734375	102.18	8.441956	-0.18914193	-5.2121773	-0.0015576705	0.0002932176	0.0014477503	-28.400002	-21.899994	8.0	
2.340081493348194	0.0	0.010242406004661433	-1.4101962700000004	-2.4085132400000004	10.4342756	0.31195678710937497	0.4040771484375	102.19	8.441956	-0.18914193	-5.2121773	-0.001349993	0.00094684307	0.0	-28.400002	-21.899994	8.0	
2.3500818416103613	0.0	0.017564827841327284	-1.4101962700000004	-2.40066792	10.48134752	0.31201171875	0.404132080078125	102.2	8.438364	-0.19752164	-5.201403	-0.0019608587	0.00094684307	0.0	-28.400002	-21.899994	8.0	
2.360082189872543	0.0	0.010511943004784103	-1.3945056299999998	-2.43989452	10.465656880000001	0.31197509765625	0.404132080078125	102.21000000000001	8.415619	-0.18674773	-5.201403	-0.00012826174	0.0003359774	-0.0006108652	-28.400002	-21.899994	8.0	
2.37008253813471	0.0	0.02142819150975221	-1.3729310000000001	-2.4163585599999995	10.489192839999998	0.31195678710937497	0.404168701171875	102.22	8.422802	-0.19153613	-5.2145715	-0.0007391274	0.00094684307	0.0	-28.400002	-21.899994	8.0	
2.3800828863968775	0.0	0.014060846839732582	-1.4180415899999994	-2.40066792	10.52057412	0.31201171875	0.404168701171875	102.23	8.42759	-0.18555063	-5.1966147	-0.00012826174	-0.0002748873	0.0	-28.400002	-21.899994	8.0	
2.390083234659059	0.0	0.02120357734298332	-1.3709696700000003	-2.40066792	10.4735022	0.311993408203125	0.4042236328125	102.24000000000001	8.420407	-0.17836803	-5.1930237	-0.00012826174	0.0003359774	0.0006108652	-28.400002	-21.899994	8.0	
2.4000835829212264	0.0	0.014195615339793917	-1.3729310000000001	-2.4163585599999995	10.487231509999999	0.312030029296875	0.404132080078125	102.25	8.418014	-0.19153613	-5.21098	-0.00012826174	0.00094684307	0.0006108652	-28.400002	-21.899994	8.0	
2.4100839311833937	0.0	0.011500245338567224	-1.3827376500000002	-2.4242038799999994	10.47742486	0.31201171875	0.404205322265625	102.26	8.438364	-0.18315643	-5.2049947	-0.00012826174	0.00094684307	0.0	-28.400002	-21.899994	8.0	
2.4200842794455752	0.0	0.00934394933758587	-1.4200029200000004	-2.40066792	10.4735022	0.3119384765625	0.40415039062499997	102.27	8.438364	-0.18315643	-5.2049947	-0.0007391274	0.0015577078	0.0	-28.400002	-21.899994	8.0	
2.4300846277077426	0.0	0.01868789867517174	-1.4278482399999994	-2.4143972299999996	10.483308849999998	0.311993408203125	0.4042236328125	102.28	8.4347725	-0.19512744	-5.2157683	-0.001349993	0.00094684307	0.0006108652	-28.400002	-21.899994	8.0	
2.44008497596991	0.0	0.010961171338321885	-1.3964669599999997	-2.4183198900000002	10.4735022	0.31201171875	0.4042236328125	102.29	8.431181	-0.18794483	-5.21098	-0.00012826174	0.00094684307	0.0	-28.400002	-21.899994	8.0	
2.4500853242320915	0.0	0.014914380673454368	-1.3729310000000001	-2.44970117	10.497038159999997	0.312030029296875	0.4042236328125	102.3	8.431181	-0.18794483	-5.21098	-0.0007391274	0.00094684307	-0.0006108652	-28.400002	-21.899994	7.899994	
2.460085672494259	0.0	0.008984566670755643	-1.3886216399999993	-2.4242038799999994	10.483308849999998	0.312030029296875	0.404278564453125	102.31	8.429984	-0.19153613	-5.207389	-0.00012826174	0.0003359774	0.0	-28.400002	-21.899994	8.0	
2.470086020756426	0.0	0.007367344670019628	-1.4278482399999994	-2.3928225999999997	10.465656880000001	0.31201171875	0.40424194335937497	102.32000000000001	8.432379	-0.19273324	-5.2061915	-0.0007391274	0.0003359774	0.0006108652	-28.400002	-21.899994	8.0	
2.4800863690185935	0.0	0.007367344670019628	-1.3964669599999997	-2.43008787	10.489192839999998	0.31204833984374997	0.404351806640625	102.33	8.437167	-0.19632454	-5.199009	-0.0007391274	0.0003359774	0.0006108652	-28.400002	-21.899994	8.0	
2.490086717280775	0.0	-0.005211048669038273	-1.4180415899999994	-2.4242038799999994	10.465656880000001	0.31204833984374997	0.404315185546875	102.34	8.439561	-0.18914193	-5.2085857	-0.001349993	0.0003359774	0.0012217308	-28.400002	-21.899994	8.0	
2.5000870655429424	0.0	0.0019766046675662417	-1.4356935599999996	-2.39870659	10.4342756	0.311993408203125	0.404296875	102.35000000000001	8.431181	-0.19752164	-5.213374	-0.0019608587	-0.0002748873	0.0006108652	-28.400002	-21.899994	8.0	
2.5100874138051097	0.0	-0.0019316818342124634	-1.4043122799999999	-2.4163585599999995	10.461734220000002	0.31201171875	0.404351806640625	102.36	8.431181	-0.19752164	-5.213374	-0.001349993	-0.0002748873	0.0006108652	-28.400002	-21.899994	8.0	
2.5200877620672912	0.0	0.001437530667320903	-1.43373223	-2.4085132400000004	10.497038159999997	0.31195678710937497	0.40440673828125	102.37	8.432379	-0.19273324	-5.213374	-0.0007391274	-0.0002748873	0.0018325956	-28.400002	-21.800003	8.0	
2.5300881103294586	0.0	0.006738425003066733	-1.44157755	-2.4242038799999994	10.48134752	0.31201171875	0.404461669921875	102.38	8.429984	-0.18435353	-5.207389	-0.001349993	0.0003359774	0.0006108652	-28.400002	-21.800003	8.0	
2.540088458591626	0.0	0.0025606015011653584	-1.4101962700000004	-2.3928225999999997	10.561762049999999	0.311993408203125	0.40440673828125	102.39	8.429984	-0.18435353	-5.207389	-0.0007391274	-0.0002748873	0.0	-28.400002	-21.800003	7.899994	
2.5500888068538075	0.0	0.009703332004416095	-1.4043122799999999	-2.4085132400000004	10.4735022	0.31201171875	0.404461669921875	102.4	8.438364	-0.19153613	-5.2061915	-0.0007391274	0.0003359774	0.0006108652	-28.400002	-21.800003	7.899994	
2.560089155115975	0.0	0.013656541339548578	-1.4043122799999999	-2.4242038799999994	10.449966239999998	0.312030029296875	0.40442504882812497	102.41	8.429984	-0.19033903	-5.207389	-0.00012826174	0.00094684307	0.0	-28.400002	-21.800003	7.899994	
2.570089503378142	0.0	0.012398702005642788	-1.3866603099999997	-2.4242038799999994	10.536264759999998	0.312030029296875	0.404443359375	102.42	8.425196	-0.19153613	-5.2026005	-0.001349993	0.00094684307	-0.0006108652	-28.400002	-21.800003	7.899994	
2.5800898516403237	0.0	0.006828270669774289	-1.4160802599999998	-2.4085132400000004	10.457811559999998	0.31201171875	0.40451660156249997	102.43	8.431181	-0.18315643	-5.2049947	-0.0007391274	0.0015577078	0.0	-28.400002	-21.800003	7.800003	
2.590090199902491	0.0	0.012937776005888127	-1.4200029200000004	-2.4359718599999995	10.418584959999997	0.312030029296875	0.404534912109375	102.44	8.4347725	-0.19273324	-5.213374	-0.0019608587	0.00094684307	0.0006108652	-28.400002	-21.800003	7.800003	
2.6000905481646583	0.0	0.007412267503373406	-1.3886216399999993	-2.4320492	10.457811559999998	0.31204833984374997	0.40458984375	102.45	8.439561	-0.19033903	-5.207389	-0.0007391274	0.00094684307	0.0	-28.400002	-21.800003	7.899994	
2.61009089642684	0.0	0.010691634338199215	-1.3729310000000001	-2.4320492	10.442120919999999	0.31201171875	0.404498291015625	102.46000000000001	8.432379	-0.18195933	-5.2085857	-0.0007391274	0.00094684307	0.0	-28.400002	-21.800003	7.899994	
2.6200912446890072	0.0	0.0008984566670755643	-1.3827376500000002	-2.4516625	10.418584959999997	0.31201171875	0.40458984375	102.47	8.429984	-0.18315643	-5.2121773	-0.0007391274	0.00094684307	0.0	-28.400002	-21.800003	7.899994	
2.6300915929511746	0.0	-0.1410576967308636	-1.3886216399999993	-2.42812654	10.497038159999997	0.312103271484375	0.40455322265625	102.48	8.431181	-0.18914193	-5.2121773	-0.0007391274	0.00094684307	0.0012217308	-28.400002	-21.800003	7.899994	
2.640091941213342	0.0	-0.17978117908182042	-1.3866603099999997	-2.4712758	10.530380769999999	0.31204833984374997	0.4046630859375	102.49000000000001	8.431181	-0.18435353	-5.2085857	-0.0007391274	0.0015577078	0.0012217308	-28.5	-21.800003	7.800003	
2.6500922894755234	0.0	0.19334787475466145	-1.4160802599999998	-2.4183198900000002	10.4735022	0.312103271484375	0.40469970703124997	102.5	8.431181	-0.18435353	-5.2085857	-0.001349993	0.00094684307	0.0006108652	-28.5	-21.800003	7.800003	
2.660092637737691	0.0	0.8641356223932778	-1.40235095	-2.43989452	10.500960820000001	0.31213989257812497	0.404644775390625	102.51	8.438364	-0.18195933	-5.222951	-0.001349993	0.0003359774	0.0012217308	-28.400002	-21.800003	7.899994	
2.670092985999858	0.0	0.6269879851186826	-1.3807763200000003	-2.3928225999999997	10.497038159999997	0.312066650390625	0.404681396484375	102.52	8.429984	-0.18674773	-5.2002063	-0.0007391274	0.0003359774	0.0012217308	-28.400002	-21.800003	7.899994	
2.6800933342620397	0.0	0.14015924006378805	-1.4200029200000004	-2.37124797	10.46957954	0.31204833984374997	0.404736328125	102.53	8.429984	-0.17238252	-5.2049947	-0.001349993	0.0003359774	0.0006108652	-28.400002	-21.800003	7.899994	
2.690093682524207	0.0	-0.0044922833353778216	-1.4180415899999994	-2.4183198900000002	10.483308849999998	0.312066650390625	0.404754638671875	102.54	8.42759	-0.18674773	-5.2037973	-0.001349993	-0.0002748873	0.0012217308	-28.400002	-21.800003	7.899994	
2.7000940307863743	0.0	-0.09505671537659471	-1.4043122799999999	-2.4536238299999997	10.198916	0.312103271484375	0.404718017578125	102.55	8.431181	-0.18914193	-5.195418	-0.001349993	0.0003359774	0.0012217308	-28.5	-21.800003	7.899994	
2.710094379048556	0.0	-0.13872170939646714	-1.4200029200000004	-2.51834772	10.410739639999997	0.312103271484375	0.404681396484375	102.56	8.435969	-0.19991584	-5.197812	-0.001349993	0.0015577078	0.0006108652	-28.5	-21.800003	7.899994	
2.720094727310723	0.0	-0.1521985594026006	-1.3474337099999996	-2.5301157	10.491154169999998	0.31212158203125	0.40488281249999997	102.57000000000001	8.4347725	-0.19273324	-5.2157683	-0.0007391274	0.0015577078	0.0012217308	-28.5	-21.800003	7.899994	
2.7300950755728906	0.0	-0.13890140072988225	-1.4200029200000004	-2.5026570799999996	10.410739639999997	0.312066650390625	0.40477294921875	102.58	8.432379	-0.18555063	-5.21098	-0.001349993	0.00094684307	0.0006108652	-28.5	-21.800003	7.899994	
2.740095423835072	0.0	-0.12201041538886163	-1.4572681899999995	-2.4771597900000004	10.457811559999998	0.312176513671875	0.404901123046875	102.59	8.432379	-0.18555063	-5.21098	-0.0007391274	0.00094684307	0.0	-28.5	-21.800003	7.899994	
2.7500957720972394	0.0	-0.11715874938665359	-1.4200029200000004	-2.4516625	10.40289432	0.312158203125	0.404901123046875	102.60000000000001	8.4347725	-0.18794483	-5.2085857	-0.0007391274	0.0015577078	0.0006108652	-28.5	-21.800003	7.899994	
2.7600961203594068	0.0	-0.11949473672105006	-1.32389775	-2.3849772799999998	10.442120919999999	0.31213989257812497	0.40491943359375	102.61	8.433576	-0.18076223	-5.209783	-0.0007391274	0.0015577078	0.0006108652	-28.5	-21.800003	8.0	
2.7700964686215883	0.0	-0.10907263938297351	-1.3552790299999997	-2.3143694	10.544110080000001	0.312176513671875	0.404937744140625	102.62	8.426393	-0.17597382	-5.21098	-0.001349993	0.0015577078	0.0006108652	-28.5	-21.800003	8.0	
2.7800968168837557	0.0	-0.10925233071638862	-1.4553068599999996	-2.33006004	10.66178988	0.31213989257812497	0.40497436523437497	102.63	8.413225	-0.17238252	-5.199009	-0.001349993	0.0003359774	0.0006108652	-28.5	-21.800003	7.899994	
2.790097165145923	0.0	-0.10529912138125615	-1.4513842000000001	-2.3143694	10.604911309999999	0.31213989257812497	0.40499267578125	102.64	8.415619	-0.20949265	-5.1918263	-0.0007391274	-0.0002748873	0.0018325956	-28.5	-21.800003	7.899994	
2.8000975134080903	0.0	-0.10080683804587832	-1.3964669599999997	-2.32221472	10.495076829999997	0.312158203125	0.40488281249999997	102.65	8.415619	-0.20949265	-5.1918263	-0.00012826174	0.0003359774	0.003054326	-28.5	-21.800003	7.899994	
2.810097861670272	0.0	-0.10943202204980373	-1.3650856799999997	-2.36144132	10.497038159999997	0.31212158203125	0.40484619140625	102.66	8.432379	-0.24660277	-5.2061915	-0.00012826174	0.0015577078	0.0036651916	-28.5	-21.800003	7.899994	
2.820098209932439	0.0	-0.10637726938174683	-1.3729310000000001	-2.4085132400000004	10.50488348	0.31204833984374997	0.40479125976562497	102.67	8.446744	-0.25737667	-5.21936	0.0004826039	0.0027794386	0.003054326	-28.400002	-21.800003	7.899994	
2.8300985581946065	0.0	-0.10359205371381257	-1.3866603099999997	-2.4242038799999994	10.465656880000001	0.312030029296875	0.404718017578125	102.68	8.457518	-0.24899697	-5.2409077	-0.00012826174	0.0021685734	0.0018325956	-28.400002	-21.800003	7.899994	
2.840098906456788	0.0	-0.10763510871565261	-1.4317709	-2.43989452	10.5519554	0.31197509765625	0.40455322265625	102.69	8.47308	-0.22146365	-5.2516813	-0.001349993	-0.0002748873	0.0	-28.400002	-21.800003	8.0	
2.8500992547189554	0.0	-0.09635947754385428	-1.4082349399999994	-2.46735314	10.483308849999998	0.31195678710937497	0.40447998046875	102.7	8.47308	-0.18435353	-5.221754	-0.0025717244	-0.00088575296	-0.0018325956	-28.400002	-21.800003	8.0	
2.8600996029811228	0.0	-0.09110350604146222	-1.4043122799999999	-2.4712758	10.42643028	0.3119384765625	0.404461669921875	102.71000000000001	8.457518	-0.1604115	-5.2061915	-0.003793452	-0.0014966186	-0.0024434607	-28.400002	-21.800003	8.0	
2.8700999512433043	0.0	-0.08804875337340531	-1.4455002099999996	-2.4614691499999997	10.46369555	0.311883544921875	0.40426025390625	102.72	8.433576	-0.15442601	-5.199009	-0.0050151832	-0.00088575296	-0.0036651914	-28.400002	-21.800003	8.0	
2.8801002995054716	0.0	-0.07371836953355006	-1.4180415899999994	-2.5026570799999996	10.461734220000002	0.311846923828125	0.4042236328125	102.73	8.418014	-0.16160862	-5.1642933	-0.005626049	-0.0014966186	-0.0030543262	-28.400002	-21.800003	8.0	
2.890100647767639	0.0	-0.057680918026251235	-1.4082349399999994	-2.49873442	10.457811559999998	0.31177368164062497	0.4040771484375	102.74000000000001	8.400057	-0.14844051	-5.199009	-0.0031825863	-0.0002748873	-0.0018325956	-28.400002	-21.800003	8.0	
2.9001009960298205	0.0	-0.05278432919068941	-1.3964669599999997	-2.43989452	10.46957954	0.311810302734375	0.40415039062499997	102.75	8.415619	-0.15562311	-5.234922	0.0010934696	0.0015577078	0.0012217308	-28.400002	-21.699997	8.0	
2.910101344291988	0.0	-0.033422588015210995	-1.4200029200000004	-2.4516625	10.4735022	0.31175537109375	0.4040771484375	102.76	8.415619	-0.15562311	-5.234922	0.0029260665	-0.0033292137	0.0036651916	-28.400002	-21.699997	8.0	
2.920101692554155	0.0	-0.023000490677134448	-1.4160802599999998	-2.4359718599999995	10.497038159999997	0.31175537109375	0.40404052734375	102.77	8.42759	-0.18195933	-5.2409077	0.0004826039	-0.004550944	0.003054326	-28.400002	-21.800003	8.100006	
2.9301020408163367	0.0	-0.01383623267296369	-1.4258869099999996	-2.42812654	10.465656880000001	0.31175537109375	0.404022216796875	102.78	8.426393	-0.19632454	-5.2205567	-0.0007391274	-0.0021074833	0.0042760572	-28.400002	-21.800003	8.100006	
2.940102389078504	0.0	-0.006648579336359177	-1.4200029200000004	-2.4163585599999995	10.485270179999999	0.311737060546875	0.40387573242187497	102.79	8.435969	-0.20231004	-5.2157683	-0.001349993	0.00094684307	0.004886922	-28.5	-21.699997	8.100006	
2.9501027373406714	0.0	-0.007007962003189402	-1.4200029200000004	-2.3928225999999997	10.4735022	0.31171875	0.403912353515625	102.8	8.449138	-0.20709845	-5.2277393	-0.0019608587	0.0015577078	0.004886922	-28.5	-21.699997	8.100006	
2.9601030856028387	0.0	0.002695370001226693	-1.4200029200000004	-2.3849772799999998	10.48134752	0.311663818359375	0.40382080078125	102.81	8.440758	-0.21428105	-5.237316	-0.0025717244	0.0015577078	0.003054326	-28.5	-21.699997	8.100006	
2.9701034338650203	0.0	0.009523640671000982	-1.4121576	-2.38105462	10.528419439999999	0.311663818359375	0.40387573242187497	102.82000000000001	8.431181	-0.20709845	-5.231331	-0.0025717244	0.0003359774	0.0024434612	-28.5	-21.699997	8.100006	
2.9801037821271876	0.0	0.007726727336849854	-1.3807763200000003	-2.37124797	10.50880614	0.31160888671875	0.40369262695312497	102.83	8.428787	-0.21308395	-5.195418	-0.0025717244	0.0003359774	0.0024434612	-28.5	-21.699997	8.100006	
2.990104130389355	0.0	0.010242406004661433	-1.4200029200000004	-2.3280987100000003	10.42643028	0.311627197265625	0.40367431640625	102.84	8.428787	-0.21308395	-5.195418	-0.0019608587	0.00094684307	0.0012217308	-28.5	-21.699997	8.100006	
3.0001044786515365	0.0	0.0	-1.3886216399999993	-2.38301595	10.449966239999998	0.31160888671875	0.403582763671875	102.85000000000001	8.428787	-0.20709845	-5.1906295	-0.0007391274	0.0015577078	0.0006108652	-28.5	-21.699997	8.0	
3.010104826913704	0.0	-0.0034141353348871445	-1.4121576	-2.4438171799999995	10.424468950000001	0.311572265625	0.40360107421874997	102.86	8.415619	-0.20470424	-5.2026005	-0.00012826174	0.0015577078	0.0012217308	-28.5	-21.699997	8.0	
3.020105175175871	0.0	0.005750122669283612	-1.4043122799999999	-2.5163863900000005	10.457811559999998	0.311572265625	0.403546142578125	102.87	8.42759	-0.21188685	-5.2157683	-0.0019608587	0.0015577078	0.0	-28.400002	-21.699997	8.100006	
3.0301055234380527	0.0	-0.005929814002698725	-1.3572403599999996	-2.4516625	10.442120919999999	0.311517333984375	0.40352783203125	102.88	8.431181	-0.20949265	-5.225345	-0.0019608587	0.0015577078	0.0	-28.400002	-21.699997	8.100006	
3.04010587170022	0.0	0.0005839968335991169	-1.4043122799999999	-2.40262925	10.475463529999999	0.311572265625	0.403546142578125	102.89	8.429984	-0.20350714	-5.213374	-0.0019608587	0.0021685734	-0.0006108652	-28.5	-21.699997	8.100006	
3.0501062199623874	0.0	-0.006379042336236507	-1.3807763200000003	-2.42224255	10.5127288	0.311444091796875	0.403619384765625	102.9	8.439561	-0.18435353	-5.2157683	-0.001349993	0.0027794386	-0.0006108652	-28.5	-21.699997	8.100006	
3.060106568224569	0.0	0.00017969133341511287	-1.4200029200000004	-2.4163585599999995	10.442120919999999	0.31149902343749997	0.403564453125	102.91	8.437167	-0.16879122	-5.21098	-0.0007391274	0.0027794386	-0.0012217304	-28.5	-21.699997	8.100006	
3.0701069164867363	0.0	0.0034141353348871445	-1.3650856799999997	-2.4850051099999995	10.410739639999997	0.311444091796875	0.40360107421874997	102.92	8.428787	-0.16160862	-5.2085857	-0.0007391274	0.0027794386	-0.0012217304	-28.5	-21.699997	8.100006	
3.0801072647489036	0.0	0.009703332004416095	-1.3846989799999998	-2.46931447	10.50880614	0.31149902343749997	0.40341796874999997	102.93	8.416816	-0.17836803	-5.1882353	-0.0007391274	0.004001169	0.0	-28.5	-21.699997	8.100006	
3.090107613011071	0.0	0.010961171338321885	-1.3670470099999996	-2.42812654	10.536264759999998	0.311480712890625	0.40350952148437497	102.94	8.432379	-0.19991584	-5.197812	0.0010934696	0.004612034	0.0012217308	-28.5	-21.699997	8.100006	
3.1001079612732525	0.0	0.011140862671736997	-1.3650856799999997	-2.4065519099999992	10.52057412	0.31138916015625	0.403363037109375	102.95	8.438364	-0.20590134	-5.221754	0.0004826039	0.004001169	0.0012217308	-28.5	-21.699997	8.0	
3.11010830953542	0.0	0.020844194676153092	-1.3807763200000003	-2.39870659	10.498999490000001	0.31142578125	0.403436279296875	102.96000000000001	8.445546	-0.19512744	-5.2157683	-0.00012826174	0.0021685734	0.0012217308	-28.5	-21.699997	8.0	
3.120108657797587	0.0	0.016217142840713936	-1.4494228700000003	-2.40262925	10.52057412	0.31138916015625	0.40332641601562497	102.97	8.445546	-0.19512744	-5.2157683	-0.00012826174	0.0003359774	0.0012217308	-28.400002	-21.699997	8.0	
3.1301090060597687	0.0	0.02120357734298332	-1.4200029200000004	-2.43008787	10.497038159999997	0.311334228515625	0.40341796874999997	102.98	8.449138	-0.19273324	-5.207389	-0.0025717244	-0.0014966186	0.0006108652	-28.400002	-21.699997	8.0	
3.140109354321936	0.0	0.024078638677625126	-1.3945056299999998	-2.4712758	10.491154169999998	0.3113525390625	0.40332641601562497	102.99000000000001	8.435969	-0.19752164	-5.199009	-0.0025717244	-0.0002748873	0.0006108652	-28.400002	-21.699997	8.0	
3.1501097025841034	0.0	0.015273763340284595	-1.3807763200000003	-2.4536238299999997	10.442120919999999	0.311370849609375	0.40330810546875	103.0	8.437167	-0.19871874	-5.2061915	-0.0025717244	0.00094684307	0.0012217308	-28.400002	-21.699997	8.0	
3.160110050846285	0.0	0.034860118682531895	-1.3729310000000001	-2.43989452	10.48134752	0.311297607421875	0.403289794921875	103.01	8.432379	-0.19033903	-5.209783	-0.0019608587	0.00094684307	0.0018325956	-28.400002	-21.699997	8.0	
3.1701103991084523	0.0	0.02794200234605005	-1.3690083399999995	-2.49285043	10.489192839999998	0.3113525390625	0.4033447265625	103.02	8.4347725	-0.19632454	-5.209783	-0.0019608587	0.00094684307	0.0018325956	-28.400002	-21.699997	8.0	
3.1801107473706196	0.0	0.02767246534592738	-1.4180415899999994	-2.4712758	10.497038159999997	0.3113525390625	0.40323486328124997	103.03	8.42759	-0.19153613	-5.21936	-0.001349993	0.0003359774	0.0018325956	-28.400002	-21.699997	8.0	
3.190111095632801	0.0	0.02443802134445535	-1.3984282899999994	-2.4712758	10.4735022	0.311279296875	0.403289794921875	103.04	8.431181	-0.17597382	-5.2061915	-0.0007391274	0.0003359774	0.0006108652	-28.400002	-21.699997	8.0	
3.2001114438949685	0.0	0.02214695684341266	-1.36312435	-2.4555851599999996	10.47742486	0.311260986328125	0.403271484375	103.05	8.42759	-0.17477672	-5.213374	-0.00012826174	0.00094684307	0.0012217308	-28.299995	-21.600006	7.899994	
3.210111792157136	0.0	0.019586355342247303	-1.3846989799999998	-2.4379331900000003	10.442120919999999	0.31122436523437497	0.403289794921875	103.06	8.428787	-0.17836803	-5.213374	0.0004826039	0.0015577078	0.0012217308	-28.299995	-21.600006	7.899994	
3.2201121404193174	0.0	0.019945738009077528	-1.3886216399999993	-2.4516625	10.50880614	0.311187744140625	0.40323486328124997	103.07000000000001	8.426393	-0.19033903	-5.2061915	-0.001349993	0.0015577078	0.0012217308	-28.299995	-21.600006	7.899994	
3.2301124886814847	0.0	0.020844194676153092	-1.3886216399999993	-2.4516625	10.5127288	0.31124267578125	0.403253173828125	103.08	8.426393	-0.19033903	-5.2061915	-0.0007391274	0.0015577078	0.0012217308	-28.299995	-21.600006	7.899994	
3.240112836943652	0.0	0.020484812009322867	-1.3827376500000002	-2.4359718599999995	10.47742486	0.3112060546875	0.403216552734375	103.09	8.429984	-0.19991584	-5.2061915	-0.0019608587	0.0021685734	0.0024434612	-28.299995	-21.600006	8.0	
3.2501131852058194	0.0	0.018014056174865064	-1.4200029200000004	-2.4124358999999997	10.489192839999998	0.31122436523437497	0.40330810546875	103.10000000000001	8.433576	-0.20350714	-5.2085857	-0.001349993	0.00094684307	0.0018325956	-28.299995	-21.600006	8.0	
3.260113533468001	0.0	0.012758084672473014	-1.4043122799999999	-2.4536238299999997	10.497038159999997	0.311187744140625	0.403179931640625	103.11	8.444349	-0.20470424	-5.221754	-0.0019608587	0.0015577078	0.0024434612	-28.299995	-21.600006	7.899994	
3.2701138817301683	0.0	0.012039319338812563	-1.4258869099999996	-2.4242038799999994	10.457811559999998	0.31124267578125	0.40330810546875	103.12	8.431181	-0.19632454	-5.213374	-0.001349993	0.00094684307	0.0018325956	-28.299995	-21.600006	7.899994	
3.2801142299923356	0.0	0.008535338337217861	-1.4003896200000003	-2.4555851599999996	10.442120919999999	0.311260986328125	0.403253173828125	103.13	8.438364	-0.20350714	-5.2121773	-0.0019608587	0.00094684307	0.0012217308	-28.400002	-21.600006	8.0	
3.290114578254517	0.0	0.015318686173638373	-1.40235095	-2.4751984599999997	10.44408225	0.311187744140625	0.403271484375	103.14	8.438364	-0.20350714	-5.2121773	-0.001349993	0.0015577078	0.0006108652	-28.400002	-21.600006	8.0	
3.3001149265166845	0.0	0.014644843673331699	-1.3788149899999993	-2.4634304799999995	10.50488348	0.311297607421875	0.403363037109375	103.15	8.438364	-0.19512744	-5.2049947	-0.0019608587	0.00094684307	0.0	-28.299995	-21.600006	7.899994	
3.310115274778852	0.0	0.01563314600711482	-1.3964669599999997	-2.4438171799999995	10.483308849999998	0.311187744140625	0.403363037109375	103.16	8.429984	-0.19632454	-5.209783	-0.001349993	0.00094684307	-0.0006108652	-28.299995	-21.600006	7.899994	
3.3201156230410334	0.0	0.008355647003802749	-1.3984282899999994	-2.4457785099999994	10.449966239999998	0.311260986328125	0.403271484375	103.17	8.423999	-0.18195933	-5.2026005	-0.00012826174	0.0015577078	-0.0006108652	-28.400002	-21.600006	7.899994	
3.3301159713032007	0.0	0.014554998006624143	-1.3650856799999997	-2.4712758	10.497038159999997	0.311151123046875	0.403253173828125	103.18	8.423999	-0.18195933	-5.2026005	-0.00012826174	0.0015577078	0.0	-28.400002	-21.600006	7.899994	
3.340116319565368	0.0	0.0044922833353778216	-1.3945056299999998	-2.44970117	10.485270179999999	0.3112060546875	0.403289794921875	103.19	8.425196	-0.18914193	-5.2061915	-0.00012826174	0.0021685734	0.0006108652	-28.400002	-21.600006	8.0	
3.3501166678275496	0.0	0.007232576169958293	-1.3925443	-2.4555851599999996	10.404855649999998	0.31124267578125	0.403271484375	103.2	8.431181	-0.18555063	-5.2049947	0.0004826039	0.0021685734	0.0006108652	-28.400002	-21.600006	8.0	
3.360117016089717	0.0	0.004851666002208047	-1.3533177	-2.4791211200000003	10.491154169999998	0.3112060546875	0.4033447265625	103.21000000000001	8.437167	-0.19393034	-5.2049947	0.0004826039	0.0021685734	0.0012217308	-28.400002	-21.600006	7.899994	
3.3701173643518842	0.0	0.005390740002453386	-1.3886216399999993	-2.43989452	10.46957954	0.31124267578125	0.40330810546875	103.22	8.435969	-0.19393034	-5.209783	0.0004826039	0.0015577078	0.0018325956	-28.400002	-21.600006	7.899994	
3.380117712614066	0.0	-0.0016172220007360158	-1.3552790299999997	-2.4751984599999997	10.46957954	0.31122436523437497	0.40332641601562497	103.23	8.439561	-0.19991584	-5.2157683	-0.0007391274	0.0015577078	0.0018325956	-28.400002	-21.600006	8.0	
3.390118060876233	0.0	-0.006738425003066733	-1.4003896200000003	-2.4359718599999995	10.483308849999998	0.311279296875	0.40330810546875	103.24000000000001	8.443152	-0.19512744	-5.209783	-0.0009345934	0.0007330356	0.00029932428	-28.400002	-21.600006	8.0	
3.4001184091384005	0.0	-0.007007962003189402	-1.3729310000000001	-2.4653918099999994	10.4735022	0.3112060546875	0.403363037109375	103.25	8.443152	-0.20231004	-5.2061915	-0.0009345934	-0.0010995595	0.000910189	-28.400002	-21.600006	7.899994	
3.410118757400568	0.0	0.0025156786678115803	-1.3709696700000003	-2.4457785099999994	10.50488348	0.31116943359375	0.4033447265625	103.26	8.443152	-0.20231004	-5.2061915	-0.001545459	-0.00048869476	0.000910189	-28.400002	-21.600006	7.899994	
3.4201191056627493	0.0	-0.002066450334273798	-1.3964669599999997	-2.4555851599999996	10.446043579999998	0.31116943359375	0.403363037109375	103.27	8.444349	-0.19871874	-5.207389	0.00028713793	-0.0010995595	0.000910189	-28.5	-21.600006	7.899994	
3.4301194539249167	0.0	0.0014824535006746813	-1.4160802599999998	-2.4614691499999997	10.47742486	0.31116943359375	0.403399658203125	103.28	8.444349	-0.20590134	-5.201403	-0.00032372773	-0.00048869476	0.00029932428	-28.5	-21.600006	7.899994	
3.440119802187084	0.0	0.0014824535006746813	-1.4101962700000004	-2.4085132400000004	10.483308849999998	0.31124267578125	0.40345458984375	103.29	8.432379	-0.19632454	-5.21098	0.00028713793	-0.00048869476	0.000910189	-28.5	-21.600006	7.899994	
3.4501201504492656	0.0	0.002875061334641806	-1.4278482399999994	-2.386938609999999	10.449966239999998	0.31124267578125	0.403472900390625	103.3	8.441956	-0.19991584	-5.2085857	-0.0009345934	-0.0010995595	0.00029932428	-28.5	-21.600006	7.899994	
3.460120498711433	0.0	0.018732821508525517	-1.36312435	-2.4634304799999995	10.497038159999997	0.3112060546875	0.403472900390625	103.31	8.435969	-0.19632454	-5.2181625	-0.00032372773	-0.0017104251	0.00029932428	-28.599998	-21.600006	7.899994	
3.4701208469736002	0.0	0.008670106837279196	-1.4043122799999999	-2.46735314	10.50488348	0.311279296875	0.403472900390625	103.32000000000001	8.425196	-0.19871874	-5.213374	-0.0009345934	-0.0010995595	-0.00031154137	-28.599998	-21.600006	7.899994	
3.480121195235782	0.0	0.005390740002453386	-1.4121576	-2.4653918099999994	10.48134752	0.31116943359375	0.403582763671875	103.33	8.4347725	-0.19393034	-5.21936	-0.0021563247	0.0001221709	-0.00092240656	-28.599998	-21.600006	7.800003	
3.490121543497949	0.0	0.021562960009813545	-1.40235095	-2.4536238299999997	10.453888899999997	0.31124267578125	0.403546142578125	103.34	8.428787	-0.19273324	-5.2145715	-0.00032372773	0.0001221709	-0.00031154137	-28.599998	-21.600006	7.800003	
3.5001218917601165	0.0	0.01185962800539745	-1.3395883900000005	-2.4555851599999996	10.4735022	0.311260986328125	0.40360107421874997	103.35000000000001	8.42759	-0.18794483	-5.213374	0.00028713793	0.0001221709	-0.00031154137	-28.599998	-21.600006	7.800003	
3.510122240022298	0.0	0.006693502169712954	-1.3925443	-2.4634304799999995	10.457811559999998	0.31124267578125	0.40367431640625	103.36	8.42759	-0.19632454	-5.21098	0.0008980036	0.0001221709	-0.00031154137	-28.599998	-21.600006	7.800003	
3.5201225882844653	0.0	-0.012713161839119237	-1.3886216399999993	-2.4143972299999996	10.51469013	0.31122436523437497	0.403656005859375	103.37	8.425196	-0.19512744	-5.207389	0.0008980036	0.0001221709	0.00029932428	-28.599998	-21.5	7.800003	
3.5301229365466327	0.0	-0.1375986385626227	-1.4160802599999998	-2.44970117	10.538226090000002	0.311297607421875	0.4036376953125	103.38	8.422802	-0.19512744	-5.207389	0.00028713793	0.0007330356	0.00029932428	-28.599998	-21.5	7.800003	
3.540123284808814	0.0	-0.1901583535865432	-1.3886216399999993	-2.4516625	10.493115499999998	0.31124267578125	0.403619384765625	103.39	8.4347725	-0.18914193	-5.21936	-0.0009345934	0.0013439013	0.00029932428	-28.5	-21.5	7.800003	
3.5501236330709816	0.0	0.28732644213076547	-1.3729310000000001	-2.4791211200000003	10.412700969999998	0.311260986328125	0.403765869140625	103.4	8.433576	-0.19752164	-5.2061915	-0.0009345934	0.0001221709	0.000910189	-28.5	-21.5	7.800003	
3.560123981333149	0.0	0.9945915304526497	-1.3886216399999993	-2.44773984	10.457811559999998	0.311297607421875	0.40367431640625	103.41	8.437167	-0.19273324	-5.2181625	-0.00032372773	0.0001221709	0.0015210547	-28.5	-21.600006	7.800003	
3.5701243295953162	0.0	0.6476075656280668	-1.4160802599999998	-2.43989452	10.457811559999998	0.311279296875	0.40369262695312497	103.42	8.429984	-0.19991584	-5.21098	0.00028713793	0.0001221709	0.00029932428	-28.5	-21.600006	7.800003	
3.5801246778574978	0.0	0.1730427540787537	-1.4043122799999999	-2.4555851599999996	10.442120919999999	0.311279296875	0.40382080078125	103.43	8.438364	-0.20709845	-5.2037973	-0.00032372773	-0.00048869476	0.00029932428	-28.5	-21.600006	7.800003	
3.590125026119665	0.0	-0.006603656503005398	-1.3493950399999994	-2.4359718599999995	10.398971659999999	0.311279296875	0.40374755859375	103.44	8.425196	-0.20350714	-5.2037973	-0.0009345934	0.0007330356	0.00029932428	-28.5	-21.600006	7.800003	
3.6001253743818324	0.0	-0.1159009100527478	-1.4082349399999994	-2.44185585	10.30678915	0.311297607421875	0.40374755859375	103.45	8.433576	-0.20350714	-5.21098	-0.00032372773	0.0007330356	0.00029932428	-28.5	-21.600006	7.899994	
3.610125722644014	0.0	-0.14698751073356234	-1.3337044	-2.5340383599999994	10.489192839999998	0.311334228515625	0.40382080078125	103.46000000000001	8.429984	-0.20709845	-5.2181625	-0.00032372773	0.0007330356	0.00029932428	-28.5	-21.600006	7.899994	
3.6201260709061813	0.0	-0.15502869790388862	-1.3807763200000003	-2.4967730900000005	10.418584959999997	0.31131591796874997	0.403839111328125	103.47	8.433576	-0.19393034	-5.207389	-0.0009345934	0.0001221709	-0.00092240656	-28.599998	-21.600006	7.800003	
3.6301264191683487	0.0	-0.14384291239879785	-1.4553068599999996	-2.51834772	10.347977080000001	0.311334228515625	0.40389404296875	103.48	8.435969	-0.21068975	-5.2002063	-0.0009345934	0.0001221709	-0.00031154137	-28.599998	-21.600006	7.800003	
3.64012676743053	0.0	-0.14851488706759078	-1.4141189299999999	-2.549729	10.363667719999999	0.31138916015625	0.403948974609375	103.49000000000001	8.443152	-0.20470424	-5.2037973	-0.0009345934	-0.00048869476	-0.00092240656	-28.5	-21.600006	7.800003	
3.6501271156926975	0.0	-0.1380029440628067	-1.30428445	-2.4869664400000002	10.389165010000001	0.311334228515625	0.403948974609375	103.5	8.443152	-0.20470424	-5.2037973	-0.00032372773	0.0007330356	-0.0015332717	-28.5	-21.600006	7.800003	
3.660127463954865	0.0	-0.13171374739327774	-1.3258590799999999	-2.3692866400000003	10.538226090000002	0.31140747070312497	0.40400390625	103.51	8.432379	-0.17717093	-5.213374	0.00028713793	0.0013439013	-0.0015332717	-28.5	-21.600006	7.800003	
3.6701278122170464	0.0	-0.11886581705409717	-1.36312435	-2.36144132	10.638253919999999	0.31138916015625	0.404095458984375	103.52	8.432379	-0.17717093	-5.213374	-0.00032372773	-0.00048869476	-0.00092240656	-28.5	-21.600006	7.800003	
3.6801281604792138	0.0	-0.12272918072252209	-1.3925443	-2.35163467	10.59314333	0.3113525390625	0.404022216796875	103.53	8.425196	-0.1592144	-5.1882353	-0.00032372773	-0.0017104251	0.000910189	-28.5	-21.600006	7.800003	
3.690128508741381	0.0	-0.11392430538518156	-1.40235095	-2.3241760499999997	10.58333668	0.31138916015625	0.404022216796875	103.54	8.422802	-0.20350714	-5.1822495	0.00028713793	-0.0017104251	0.000910189	-28.5	-21.600006	7.800003	
3.7001288570035484	0.0	-0.11765290055354516	-1.3964669599999997	-2.34182802	10.44408225	0.31131591796874997	0.40387573242187497	103.55	8.421604	-0.22385786	-5.1810527	0.0008980036	-0.00048869476	0.0015210547	-28.5	-21.600006	7.800003	
3.71012920526573	0.0	-0.11086955271712465	-1.3984282899999994	-2.3771319599999994	10.51665146	0.311297607421875	0.40387573242187497	103.56	8.439561	-0.25378537	-5.213374	0.0008980036	0.0007330356	0.0021319194	-28.5	-21.600006	7.800003	
3.7201295535278973	0.0	-0.11931504538763495	-1.4200029200000004	-2.38105462	10.4342756	0.311297607421875	0.403765869140625	103.57000000000001	8.457518	-0.2717419	-5.245696	0.00028713793	0.0007330356	0.0021319194	-28.599998	-21.600006	7.800003	
3.7301299017900647	0.0	-0.12254948938910698	-1.4356935599999996	-2.4555851599999996	10.467618210000001	0.3112060546875	0.4037109375	103.58	8.471883	-0.22385786	-5.2361193	-0.00032372773	-0.0010995595	0.0015210547	-28.599998	-21.600006	7.800003	
3.740130250052246	0.0	-0.12398702005642788	-1.4376548899999995	-2.4830437799999996	10.497038159999997	0.311151123046875	0.403546142578125	103.59	8.471883	-0.18794483	-5.2169657	-0.0009345934	-0.0035430212	0.000910189	-28.5	-21.600006	7.800003	
3.7501305983144135	0.0	-0.12488547672350345	-1.4356935599999996	-2.4712758	10.4342756	0.311077880859375	0.40341796874999997	103.60000000000001	8.471883	-0.18794483	-5.2169657	-0.0033780523	-0.004153886	0.00029932428	-28.5	-21.600006	7.800003	
3.760130946576581	0.0	-0.11122893538395487	-1.4298095700000004	-2.5006957499999998	10.457811559999998	0.311077880859375	0.403216552734375	103.61	8.418014	-0.17597382	-5.175067	-0.005210649	-0.0035430212	-0.0027550021	-28.599998	-21.600006	7.800003	
3.7701312948387624	0.0	-0.11518214471908735	-1.43373223	-2.51246373	10.457811559999998	0.31102294921875	0.40316162109375	103.62	8.420407	-0.16639702	-5.153519	-0.005210649	-0.0047647515	-0.0039767325	-28.599998	-21.600006	7.800003	
3.7801316431009298	0.0	-0.11518214471908735	-1.4356935599999996	-2.4869664400000002	10.451927569999999	0.311004638671875	0.403070068359375	103.63	8.396465	-0.1592144	-5.163096	-0.0033780523	-0.0029321555	-0.002144137	-28.599998	-21.600006	7.800003	
3.790131991363097	0.0	-0.09339457054250491	-1.4082349399999994	-2.4830437799999996	10.467618210000001	0.310968017578125	0.40305175781249997	103.64	8.392874	-0.1448492	-5.2181625	-0.0009345934	-0.00048869476	-0.0015332717	-28.599998	-21.600006	7.800003	
3.8001323396252786	0.0	-0.07982787486966389	-1.3964669599999997	-2.4634304799999995	10.510767470000001	0.310931396484375	0.402996826171875	103.65	8.392874	-0.1448492	-5.2181625	0.0027306005	0.0001221709	-0.00031154137	-28.599998	-21.600006	7.800003	
3.810132687887446	0.0	-0.07515590020087096	-1.4200029200000004	-2.4555851599999996	10.451927569999999	0.310931396484375	0.402886962890625	103.66	8.414422	-0.17956513	-5.2289367	0.003952332	-0.0023212908	0.000910189	-28.599998	-21.600006	7.800003	
3.8201330361496133	0.0	-0.04105946968535329	-1.4200029200000004	-2.4850051099999995	10.495076829999997	0.3109130859375	0.402813720703125	103.67	8.429984	-0.20470424	-5.225345	0.0027306005	-0.004153886	0.002742785	-28.599998	-21.600006	7.800003	
3.830133384411795	0.0	-0.014914380673454368	-1.42196425	-2.4712758	10.442120919999999	0.31087646484375	0.402850341796875	103.68	8.4347725	-0.22026655	-5.2205567	0.0008980036	-0.0029321555	0.0033536507	-28.599998	-21.600006	7.800003	
3.840133732673962	0.0	-0.005929814002698725	-1.4043122799999999	-2.4320492	10.4735022	0.310821533203125	0.4027587890625	103.69	8.451532	-0.21428105	-5.221754	-0.00032372773	0.0001221709	0.0033536507	-28.599998	-21.600006	7.899994	
3.8501340809361295	0.0	0.014554998006624143	-1.3650856799999997	-2.4085132400000004	10.432314270000001	0.310784912109375	0.402667236328125	103.7	8.4347725	-0.21188685	-5.234922	-0.0009345934	0.0019547665	0.0033536507	-28.599998	-21.600006	7.899994	
3.860134429198297	0.0	0.03593826668302257	-1.3356657299999999	-2.4242038799999994	10.483308849999998	0.31080322265625	0.40259399414062497	103.71000000000001	8.446744	-0.20590134	-5.2277393	-0.0033780523	0.0025656316	0.0021319194	-28.599998	-21.600006	7.899994	
3.8701347774604784	0.0	0.04451852785359421	-1.3807763200000003	-2.3888999400000004	10.43623693	0.310711669921875	0.4025390625	103.72	8.437167	-0.20350714	-5.213374	-0.0033780523	0.0001221709	0.000910189	-28.599998	-21.600006	7.899994	
3.8801351257226457	0.0	0.03216474868130521	-1.3729310000000001	-2.39870659	10.54214875	0.31067504882812497	0.4024658203125	103.73	8.433576	-0.21428105	-5.1942205	-0.001545459	0.0001221709	0.00029932428	-28.599998	-21.699997	7.899994	
3.890135473984813	0.0	0.03755548868375859	-1.3650856799999997	-2.42028122	10.46369555	0.310638427734375	0.402337646484375	103.74000000000001	8.429984	-0.21308395	-5.1918263	-0.00032372773	0.0007330356	0.00029932428	-28.599998	-21.699997	7.899994	
3.9001358222469946	0.0	0.03760041151711237	-1.3925443	-2.36144132	10.4735022	0.310601806640625	0.40228271484375	103.75	8.428787	-0.22026655	-5.187038	-0.00032372773	0.0007330356	-0.00031154137	-28.599998	-21.699997	7.899994	
3.910136170509162	0.0	0.050852647356476946	-1.3866603099999997	-2.3928225999999997	10.465656880000001	0.310565185546875	0.402264404296875	103.76	8.423999	-0.21787235	-5.2061915	0.00028713793	0.0007330356	-0.00092240656	-28.599998	-21.699997	7.899994	
3.9201365187713293	0.0	0.0362976493498528	-1.3533177	-2.549729	10.43623693	0.31058349609374997	0.40222778320312497	103.77	8.431181	-0.20949265	-5.2085857	-0.00032372773	-0.00048869476	-0.0015332717	-28.599998	-21.600006	7.800003	
3.930136867033511	0.0	0.037420720183697256	-1.3866603099999997	-2.4948117599999993	10.398971659999999	0.31051025390625	0.402191162109375	103.78	8.445546	-0.21547815	-5.2289367	-0.0009345934	-0.0010995595	-0.0015332717	-28.599998	-21.600006	7.800003	
3.940137215295678	0.0	0.017070676674435722	-1.4200029200000004	-2.42224255	10.418584959999997	0.31051025390625	0.40213623046874997	103.79	8.447941	-0.20231004	-5.2169657	-0.0009345934	-0.00048869476	-0.002144137	-28.599998	-21.600006	7.800003	
3.9501375635578455	0.0	0.021023886009568206	-1.3650856799999997	-2.4242038799999994	10.500960820000001	0.310455322265625	0.40213623046874997	103.8	8.445546	-0.19632454	-5.2049947	-0.0009345934	0.0007330356	-0.0033658673	-28.599998	-21.600006	7.800003	
3.960137911820027	0.0	0.022730953677011778	-1.3572403599999996	-2.4536238299999997	10.465656880000001	0.31049194335937497	0.4021728515625	103.81	8.429984	-0.18674773	-5.2026005	0.00028713793	0.0013439013	-0.0033658673	-28.599998	-21.600006	7.800003	
3.9701382600821944	0.0	0.024393098511101573	-1.3807763200000003	-2.5026570799999996	10.422507620000001	0.3104736328125	0.402099609375	103.82000000000001	8.431181	-0.17357962	-5.197812	0.0008980036	0.0019547665	-0.002144137	-28.599998	-21.600006	7.800003	
3.9801386083443617	0.0	0.01940666400883219	-1.3493950399999994	-2.4555851599999996	10.404855649999998	0.310418701171875	0.402099609375	103.83	8.428787	-0.19752164	-5.189432	0.0015088692	0.0025656316	-0.0015332717	-28.599998	-21.600006	7.800003	
3.9901389566065433	0.0	0.02803184801275761	-1.3533177	-2.4163585599999995	10.50488348	0.3104736328125	0.40195312499999997	103.84	8.428787	-0.19752164	-5.189432	0.0008980036	0.0025656316	-0.00092240656	-28.599998	-21.600006	7.800003	
4.000139304868711	0.0	0.02340479617731845	-1.3807763200000003	-2.4163585599999995	10.48134752	0.31040039062499997	0.40198974609375	103.85000000000001	8.439561	-0.21428105	-5.197812	0.0008980036	0.0019547665	-0.00031154137	-28.599998	-21.699997	7.800003	
4.010139653130878	0.0	0.025875552011776253	-1.3650856799999997	-2.42028122	10.465656880000001	0.31036376953125	0.40191650390625	103.86	8.445546	-0.21428105	-5.2145715	0.0008980036	0.0007330356	0.00029932428	-28.599998	-21.699997	7.800003	
4.020140001393045	0.0	0.02749277401251227	-1.3866603099999997	-2.40066792	10.449966239999998	0.310382080078125	0.401934814453125	103.87	8.452729	-0.21547815	-5.221754	-0.00032372773	-0.0017104251	-0.00031154137	-28.599998	-21.699997	7.800003	
4.030140349655227	0.0	0.034680427349116784	-1.3886216399999993	-2.4242038799999994	10.50488348	0.310272216796875	0.40191650390625	103.88	8.451532	-0.20590134	-5.2265425	-0.001545459	-0.0035430212	0.00029932428	-28.599998	-21.699997	7.800003	
4.040140697917394	0.0	0.033602279348626106	-1.4200029200000004	-2.43989452	10.52253545	0.310272216796875	0.40186157226562497	103.89	8.441956	-0.21308395	-5.201403	-0.001545459	-0.0023212908	-0.00031154137	-28.599998	-21.699997	7.800003	
4.0501410461795615	0.0	0.040071167351570174	-1.4003896200000003	-2.46735314	10.442120919999999	0.3103271484375	0.40184326171875	103.9	8.421604	-0.22026655	-5.1882353	-0.001545459	0.0001221709	-0.00092240656	-28.599998	-21.699997	7.800003	
4.060141394441743	0.0	0.03472535018247056	-1.3886216399999993	-2.4967730900000005	10.4735022	0.310272216796875	0.401806640625	103.91	8.422802	-0.20590134	-5.1966147	-0.00032372773	0.0001221709	-0.00031154137	-28.599998	-21.600006	7.800003	
4.07014174270391	0.0	0.03234444001472032	-1.3964669599999997	-2.4712758	10.4735022	0.310272216796875	0.401788330078125	103.92	8.429984	-0.18315643	-5.21936	-0.00032372773	0.0001221709	0.00029932428	-28.599998	-21.600006	7.800003	
4.080142090966078	0.0	0.025156786678115804	-1.3552790299999997	-2.4653918099999994	10.493115499999998	0.31025390625	0.401806640625	103.93	8.426393	-0.18674773	-5.2157683	-0.00032372773	-0.0010995595	-0.00031154137	-28.599998	-21.600006	7.800003	
4.090142439228259	0.0	0.029649070013493622	-1.3650856799999997	-2.4869664400000002	10.453888899999997	0.31025390625	0.40184326171875	103.94	8.435969	-0.18555063	-5.1966147	-0.0009345934	-0.0023212908	-0.0015332717	-28.599998	-21.600006	7.800003	
4.100142787490427	0.0	0.026594317345436706	-1.3650856799999997	-2.49285043	10.48134752	0.31021728515624997	0.401788330078125	103.95	8.432379	-0.18794483	-5.1966147	-0.0009345934	-0.0010995595	-0.0015332717	-28.599998	-21.699997	7.800003	
4.110143135752594	0.0	0.0272232370123896	-1.3886216399999993	-2.4712758	10.453888899999997	0.310235595703125	0.40177001953124997	103.96000000000001	8.422802	-0.19512744	-5.2002063	-0.00032372773	0.0013439013	-0.00092240656	-28.599998	-21.699997	7.800003	
4.1201434840147755	0.0	0.024258330011040236	-1.3964669599999997	-2.4516625	10.52057412	0.310107421875	0.40177001953124997	103.97	8.42759	-0.20470424	-5.2037973	0.0008980036	0.0019547665	-0.00092240656	-28.599998	-21.699997	7.699997	
4.130143832276943	0.0	0.02066450334273798	-1.3513563700000002	-2.4712758	10.50880614	0.31012573242187497	0.4017333984375	103.98	8.42759	-0.20470424	-5.2037973	0.0015088692	0.0013439013	-0.00092240656	-28.599998	-21.699997	7.699997	
4.14014418053911	0.0	0.025336478011530914	-1.3807763200000003	-2.4438171799999995	10.536264759999998	0.310162353515625	0.4017333984375	103.99000000000001	8.433576	-0.19632454	-5.2157683	0.00028713793	0.0001221709	-0.00031154137	-28.599998	-21.699997	7.699997	
4.150144528801292	0.0	0.020484812009322867	-1.3709696700000003	-2.4536238299999997	10.498999490000001	0.31014404296875	0.401715087890625	104.0	8.4347725	-0.20829555	-5.21936	0.00028713793	0.0001221709	0.000910189	-28.599998	-21.699997	7.699997	
4.160144877063459	0.0	0.013117467339303239	-1.3572403599999996	-2.44773984	10.451927569999999	0.31014404296875	0.40169677734375	104.01	8.437167	-0.19871874	-5.2061915	0.00028713793	0.0001221709	0.00029932428	-28.599998	-21.699997	7.699997	
4.170145225325626	0.0	0.01513899484022326	-1.3984282899999994	-2.4869664400000002	10.451927569999999	0.310107421875	0.40169677734375	104.02	8.435969	-0.20949265	-5.2049947	-0.00032372773	0.0001221709	0.00029932428	-28.599998	-21.699997	7.699997	
4.180145573587794	0.0	0.010062714671246321	-1.36312435	-2.5105024	10.4342756	0.31012573242187497	0.401715087890625	104.03	8.435969	-0.21068975	-5.209783	-0.00032372773	0.0007330356	0.00029932428	-28.599998	-21.699997	7.699997	
4.190145921849975	0.0	0.017430059341265947	-1.3729310000000001	-2.43008787	10.43819826	0.310107421875	0.40169677734375	104.04	8.431181	-0.21068975	-5.2085857	-0.0009345934	0.0007330356	0.00029932428	-28.599998	-21.699997	7.699997	
4.200146270112143	0.0	0.010781480004906772	-1.3572403599999996	-2.49873442	10.381319690000002	0.31012573242187497	0.40169677734375	104.05	8.439561	-0.20829555	-5.195418	-0.00032372773	-0.00048869476	-0.00031154137	-28.599998	-21.699997	7.600006	
4.21014661837431	0.0	0.011679936671982336	-1.3788149899999993	-2.4869664400000002	10.50684481	0.31014404296875	0.401788330078125	104.06	8.433576	-0.20949265	-5.209783	-0.00032372773	-0.0010995595	-0.00092240656	-28.599998	-21.699997	7.600006	
4.2201469666364915	0.0	0.003908286501778705	-1.3572403599999996	-2.4771597900000004	10.4735022	0.310107421875	0.40177001953124997	104.07000000000001	8.433576	-0.20949265	-5.209783	-0.00032372773	-0.0017104251	-0.002144137	-28.599998	-21.699997	7.600006	
4.230147314898659	0.0	0.01509407200686948	-1.3219364200000003	-2.4555851599999996	10.489192839999998	0.310107421875	0.40177001953124997	104.08	8.433576	-0.20231004	-5.1942205	-0.00032372773	-0.00048869476	-0.0027550021	-28.599998	-21.699997	7.600006	
4.240147663160826	0.0	-0.0023359873343964674	-1.3690083399999995	-2.4634304799999995	10.451927569999999	0.310089111328125	0.401751708984375	104.09	8.432379	-0.19871874	-5.213374	0.0015088692	0.0007330356	-0.0027550021	-28.599998	-21.699997	7.600006	
4.250148011423008	0.0	0.011230708338444554	-1.3493950399999994	-2.44970117	10.491154169999998	0.310089111328125	0.401806640625	104.10000000000001	8.438364	-0.19512744	-5.2121773	0.0021197349	0.0007330356	-0.0027550021	-28.599998	-21.699997	7.600006	
4.260148359685175	0.0	0.0016172220007360158	-1.3415497200000002	-2.4948117599999993	10.457811559999998	0.310107421875	0.401751708984375	104.11	8.433576	-0.20350714	-5.21098	0.0015088692	0.0007330356	-0.0027550021	-28.599998	-21.699997	7.600006	
4.270148707947342	0.0	0.0012578393339057901	-1.3729310000000001	-2.4555851599999996	10.50488348	0.31014404296875	0.401806640625	104.12	8.438364	-0.19871874	-5.2085857	0.0008980036	0.0007330356	-0.0027550021	-28.599998	-21.699997	7.600006	
4.280149056209524	0.0	-0.0008535338337217861	-1.3846989799999998	-2.4712758	10.483308849999998	0.310107421875	0.40184326171875	104.13	8.435969	-0.20111294	-5.2145715	0.0008980036	-0.00048869476	-0.0027550021	-28.700005	-21.699997	7.699997	
4.290149404471691	0.0	0.0009883023337831209	-1.36312435	-2.44970117	10.47742486	0.31003417968749997	0.401788330078125	104.14	8.444349	-0.19871874	-5.2061915	0.00028713793	-0.00048869476	-0.0027550021	-28.700005	-21.699997	7.699997	
4.300149752733859	0.0	-0.010422097338076546	-1.3807763200000003	-2.4536238299999997	10.489192839999998	0.3101806640625	0.401806640625	104.15	8.432379	-0.20350714	-5.2121773	0.0008980036	-0.00048869476	-0.002144137	-28.599998	-21.699997	7.699997	
4.31015010099604	0.0	-0.005345817169099608	-1.3709696700000003	-2.4634304799999995	10.50488348	0.31014404296875	0.40186157226562497	104.16	8.433576	-0.19752164	-5.1966147	0.00028713793	-0.0010995595	-0.0027550021	-28.599998	-21.699997	7.699997	
4.3201504492582075	0.0	-0.012174087838873898	-1.3690083399999995	-2.43989452	10.48134752	0.310107421875	0.4018798828125	104.17	8.432379	-0.19991584	-5.2061915	0.0008980036	-0.0010995595	-0.002144137	-28.599998	-21.699997	7.699997	
4.330150797520375	0.0	-0.00035938266683022574	-1.3846989799999998	-2.4555851599999996	10.412700969999998	0.310107421875	0.401824951171875	104.18	8.432379	-0.19991584	-5.2061915	0.0008980036	-0.0017104251	-0.0015332717	-28.599998	-21.699997	7.699997	
4.340151145782542	0.0	-0.01060178867149166	-1.3807763200000003	-2.4634304799999995	10.497038159999997	0.31014404296875	0.401934814453125	104.19	8.435969	-0.21428105	-5.21098	0.0008980036	-0.0010995595	-0.0015332717	-28.700005	-21.699997	7.800003	
4.350151494044724	0.0	-0.0034141353348871445	-1.3552790299999997	-2.4712758	10.5127288	0.310089111328125	0.40191650390625	104.2	8.435969	-0.21428105	-5.21098	0.00028713793	-0.0017104251	-0.0015332717	-28.700005	-21.699997	7.800003	
4.360151842306891	0.0	0.014195615339793917	-1.3572403599999996	-2.4830437799999996	10.52057412	0.31012573242187497	0.401971435546875	104.21000000000001	8.435969	-0.21547815	-5.2037973	-0.00032372773	-0.0017104251	-0.002144137	-28.599998	-21.699997	7.800003	
4.370152190569058	0.0	0.00377351800171737	-1.4043122799999999	-2.43989452	10.42643028	0.31014404296875	0.40191650390625	104.22	8.422802	-0.20829555	-5.2121773	0.0008980036	-0.0010995595	-0.0027550021	-28.599998	-21.699997	7.800003	
4.38015253883124	0.0	0.0035938266683022573	-1.4101962700000004	-2.44970117	10.495076829999997	0.3101806640625	0.40195312499999997	104.23	8.431181	-0.19991584	-5.2157683	0.00028713793	-0.00048869476	-0.0027550021	-28.599998	-21.699997	7.800003	
4.390152887093407	0.0	0.011140862671736997	-1.3866603099999997	-2.4634304799999995	10.498999490000001	0.3101806640625	0.402008056640625	104.24000000000001	8.420407	-0.19752164	-5.221754	0.0008980036	-0.00048869476	-0.0033658673	-28.599998	-21.699997	7.800003	
4.400153235355575	0.0	0.005390740002453386	-1.3729310000000001	-2.4948117599999993	10.414662299999998	0.31021728515624997	0.402081298828125	104.25	8.432379	-0.18195933	-5.21098	0.0008980036	0.0001221709	-0.002144137	-28.599998	-21.699997	7.699997	
4.410153583617756	0.0	0.001437530667320903	-1.3729310000000001	-2.4791211200000003	10.42643028	0.310162353515625	0.40206298828125	104.26	8.42759	-0.20350714	-5.2085857	0.0015088692	0.0001221709	-0.0015332717	-28.599998	-21.699997	7.699997	
4.4201539318799234	0.0	-0.011320554005152111	-1.3964669599999997	-2.4771597900000004	10.44408225	0.310235595703125	0.402081298828125	104.27	8.42759	-0.20350714	-5.2085857	0.0008980036	0.0001221709	-0.0015332717	-28.599998	-21.699997	7.699997	
4.430154280142091	0.0	-0.06891162636469579	-1.3788149899999993	-2.4555851599999996	10.5127288	0.310162353515625	0.40213623046874997	104.28	8.428787	-0.20350714	-5.201403	0.0008980036	-0.00048869476	-0.0015332717	-28.599998	-21.699997	7.699997	
4.440154628404272	0.0	-0.22164925976754174	-1.4180415899999994	-2.4379331900000003	10.48134752	0.31021728515624997	0.402264404296875	104.29	8.428787	-0.20350714	-5.201403	0.00028713793	-0.0010995595	-0.002144137	-28.599998	-21.699997	7.699997	
4.45015497666644	0.0	-0.0418680806857213	-1.3886216399999993	-2.4320492	10.4735022	0.31025390625	0.402117919921875	104.3	8.441956	-0.20350714	-5.213374	0.00028713793	-0.0010995595	-0.002144137	-28.599998	-21.699997	7.699997	
4.460155324928607	0.0	0.8299942690444063	-1.3729310000000001	-2.43008787	10.46957954	0.31025390625	0.402191162109375	104.31	8.439561	-0.19512744	-5.199009	0.0008980036	-0.0010995595	-0.002144137	-28.599998	-21.699997	7.699997	
4.470155673190774	0.0	0.7699773636837587	-1.3827376500000002	-2.4634304799999995	10.491154169999998	0.310272216796875	0.402191162109375	104.32000000000001	8.440758	-0.19033903	-5.2061915	0.0008980036	-0.00048869476	-0.002144137	-28.599998	-21.699997	7.699997	
4.480156021452956	0.0	0.27061514812316	-1.3866603099999997	-2.4379331900000003	10.418584959999997	0.31025390625	0.40235595703125	104.33	8.4347725	-0.20111294	-5.2085857	0.0008980036	-0.0010995595	-0.002144137	-28.700005	-21.699997	7.699997	
4.490156369715123	0.0	0.047258820688174684	-1.3650856799999997	-2.4595078200000002	10.4735022	0.31029052734375	0.402374267578125	104.34	8.4347725	-0.20111294	-5.2085857	0.0008980036	-0.0010995595	-0.002144137	-28.700005	-21.699997	7.699997	
4.5001567179772906	0.0	-0.10237913721326056	-1.3650856799999997	-2.42224255	10.242065259999999	0.31029052734375	0.402392578125	104.35000000000001	8.433576	-0.21308395	-5.2026005	0.00028713793	-0.0010995595	-0.002144137	-28.700005	-21.699997	7.699997	
4.510157066239472	0.0	-0.1478859674006379	-1.3964669599999997	-2.5026570799999996	10.449966239999998	0.310272216796875	0.402301025390625	104.36	8.423999	-0.21787235	-5.209783	0.0008980036	-0.0010995595	-0.002144137	-28.700005	-21.699997	7.699997	
4.520157414501639	0.0	-0.1507161059019259	-1.3572403599999996	-2.4869664400000002	10.567646039999998	0.31030883789062497	0.402447509765625	104.37	8.433576	-0.20231004	-5.21098	0.0015088692	-0.0010995595	-0.0027550021	-28.599998	-21.699997	7.800003	
4.530157762763807	0.0	-0.1491438067345437	-1.4317709	-2.5026570799999996	10.3558224	0.3103271484375	0.40250244140624997	104.38	8.439561	-0.19871874	-5.21936	0.00028713793	-0.0017104251	-0.0027550021	-28.599998	-21.699997	7.800003	
4.540158111025988	0.0	-0.14379798956544407	-1.3964669599999997	-2.57914895	10.35778373	0.31043701171875	0.4024658203125	104.39	8.443152	-0.20111294	-5.207389	0.00028713793	-0.0010995595	-0.0033658673	-28.700005	-21.699997	7.699997	
4.550158459288156	0.0	-0.1439327580655054	-1.2925164700000003	-2.5418836799999998	10.42643028	0.310345458984375	0.40250244140624997	104.4	8.450335	-0.20470424	-5.197812	-0.00032372773	-0.00048869476	-0.004587598	-28.700005	-21.699997	7.699997	
4.560158807550323	0.0	-0.1395752432301889	-1.2944778	-2.40066792	10.536264759999998	0.310382080078125	0.402557373046875	104.41	8.435969	-0.17717093	-5.2026005	0.0008980036	0.0007330356	-0.004587598	-28.700005	-21.699997	7.699997	
4.5701591558125045	0.0	-0.1268620813910697	-1.3376270599999995	-2.39870659	10.587259340000001	0.310418701171875	0.402630615234375	104.42	8.435969	-0.17717093	-5.2026005	0.0008980036	0.0001221709	-0.0039767325	-28.700005	-21.699997	7.699997	
4.580159504074672	0.0	-0.13153405605986263	-1.4121576	-2.3457506799999996	10.63236993	0.31040039062499997	0.40259399414062497	104.43	8.4347725	-0.15682021	-5.21936	0.00028713793	-0.0017104251	-0.0027550021	-28.700005	-21.699997	7.699997	
4.590159852336839	0.0	-0.12614331605740925	-1.3866603099999997	-2.33006004	10.567646039999998	0.31043701171875	0.4026123046875	104.44	8.415619	-0.15322891	-5.1966147	0.0008980036	-0.0029321555	-0.002144137	-28.700005	-21.699997	7.699997	
4.600160200599021	0.0	-0.12111195872178608	-1.3729310000000001	-2.3732092999999996	10.483308849999998	0.31036376953125	0.4025390625	104.45	8.412027	-0.17836803	-5.195418	0.0021197349	-0.0017104251	0.00029932428	-28.700005	-21.699997	7.600006	
4.610160548861188	0.0	-0.12057288472154074	-1.3827376500000002	-2.3692866400000003	10.55783939	0.31036376953125	0.40242919921875	104.46000000000001	8.423999	-0.24540567	-5.2061915	0.0021197349	0.0007330356	0.00029932428	-28.700005	-21.699997	7.600006	
4.620160897123355	0.0	-0.12794022939156036	-1.4043122799999999	-2.42224255	10.52057412	0.3103271484375	0.402301025390625	104.47	8.423999	-0.24540567	-5.2061915	0.0021197349	0.0007330356	0.00029932428	-28.700005	-21.699997	7.699997	
4.630161245385523	0.0	-0.12542455072374878	-1.4356935599999996	-2.44970117	10.498999490000001	0.310345458984375	0.40231933593749997	104.48	8.432379	-0.2789245	-5.2361193	0.0015088692	-0.00048869476	-0.00031154137	-28.700005	-21.699997	7.699997	
4.640161593647704	0.0	-0.1340497347276742	-1.4200029200000004	-2.4536238299999997	10.457811559999998	0.3101806640625	0.40213623046874997	104.49000000000001	8.461109	-0.2681506	-5.2480903	-0.0009345934	-0.0035430212	-0.00031154137	-28.700005	-21.699997	7.600006	
4.650161941909872	0.0	-0.12829961205839058	-1.4356935599999996	-2.4555851599999996	10.395049	0.310235595703125	0.401971435546875	104.5	8.485051	-0.23582886	-5.2480903	-0.0027671866	-0.0053756163	-0.0015332717	-28.700005	-21.699997	7.600006	
4.660162290172039	0.0	-0.13373527489419776	-1.44157755	-2.4791211200000003	10.48134752	0.31014404296875	0.40184326171875	104.51	8.48146	-0.19752164	-5.221754	-0.003988918	-0.0047647515	-0.0033658673	-28.599998	-21.699997	7.699997	
4.6701626384342205	0.0	-0.13512788272816487	-1.4278482399999994	-2.4967730900000005	10.457811559999998	0.31014404296875	0.401788330078125	104.52	8.4587145	-0.15801731	-5.209783	-0.005821515	-0.0047647515	-0.0033658673	-28.599998	-21.699997	7.699997	
4.680162986696388	0.0	-0.13108482772632485	-1.3650856799999997	-2.4869664400000002	10.379358359999998	0.310089111328125	0.40169677734375	104.53	8.400057	-0.16519992	-5.1367598	-0.003988918	-0.0029321555	-0.0064201937	-28.599998	-21.699997	7.699997	
4.690163334958555	0.0	-0.11149847238407753	-1.3788149899999993	-2.4869664400000002	10.485270179999999	0.31003417968749997	0.40158691406249997	104.54	8.394072	-0.15682021	-5.171476	0.00028713793	0.0001221709	-0.005198463	-28.599998	-21.699997	7.699997	
4.700163683220737	0.0	-0.1103304787168793	-1.3690083399999995	-2.4869664400000002	10.461734220000002	0.309979248046875	0.40155029296875	104.55	8.394072	-0.15442601	-5.213374	0.0045631975	-0.00048869476	-0.0033658673	-28.599998	-21.699997	7.800003	
4.710164031482904	0.0	-0.08175955670387636	-1.40235095	-2.4771597900000004	10.449966239999998	0.309979248046875	0.40147705078125	104.56	8.418014	-0.19512744	-5.2121773	0.005784929	-0.004153886	-0.0027550021	-28.599998	-21.699997	7.800003	
4.720164379745071	0.0	-0.0670248673638371	-1.4160802599999998	-2.43989452	10.50488348	0.30992431640625	0.401422119140625	104.57000000000001	8.418014	-0.19512744	-5.2121773	0.0045631975	-0.0065973476	-0.0015332717	-28.599998	-21.699997	7.800003	
4.730164728007253	0.0	-0.03018814401373896	-1.4258869099999996	-2.4320492	10.465656880000001	0.309979248046875	0.401385498046875	104.58	8.433576	-0.21906945	-5.213374	0.0033414662	-0.0053756163	-0.00031154137	-28.599998	-21.699997	7.800003	
4.74016507626942	0.0	-0.00880487533734053	-1.3984282899999994	-2.4242038799999994	10.497038159999997	0.309906005859375	0.4012939453125	104.59	8.445546	-0.21428105	-5.2205567	0.0015088692	-0.0010995595	-0.00031154137	-28.599998	-21.699997	7.800003	
4.750165424531588	0.0	0.015812837340529934	-1.3572403599999996	-2.4085132400000004	10.483308849999998	0.309869384765625	0.401275634765625	104.60000000000001	8.459911	-0.22026655	-5.2397103	0.0008980036	0.0013439013	-0.00031154137	-28.599998	-21.699997	7.800003	
4.760165772793769	0.0	0.02551616934494603	-1.3572403599999996	-2.42224255	10.5519554	0.3098876953125	0.4011474609375	104.61	8.450335	-0.23582886	-5.233725	-0.001545459	0.0007330356	-0.00092240656	-28.599998	-21.699997	7.899994	
4.7701661210559365	0.0	0.0307272180139843	-1.3886216399999993	-2.3732092999999996	10.536264759999998	0.309814453125	0.401055908203125	104.62	8.447941	-0.21428105	-5.2145715	-0.0027671866	-0.0010995595	-0.002144137	-28.599998	-21.699997	7.899994	
4.780166469318104	0.0	0.04150869801889107	-1.4121576	-2.3849772799999998	10.4735022	0.3097412109375	0.401019287109375	104.63	8.432379	-0.21787235	-5.1882353	-0.0021563247	-0.0010995595	-0.002144137	-28.599998	-21.699997	7.800003	
4.790166817580271	0.0	0.04564159868743867	-1.3768536599999996	-2.40066792	10.530380769999999	0.3097412109375	0.401019287109375	104.64	8.426393	-0.20231004	-5.185841	-0.0009345934	-0.00048869476	-0.0033658673	-28.599998	-21.699997	7.800003	
4.800167165842453	0.0	0.03719610601692837	-1.3964669599999997	-2.40066792	10.4735022	0.3097412109375	0.40081787109375	104.65	8.420407	-0.20350714	-5.201403	0.00028713793	-0.00048869476	-0.0039767325	-28.599998	-21.600006	7.800003	
4.81016751410462	0.0	0.03328781951514966	-1.3886216399999993	-2.3928225999999997	10.47938619	0.309649658203125	0.40074462890625	104.66	8.413225	-0.20350714	-5.1966147	0.0008980036	-0.00048869476	-0.004587598	-28.599998	-21.600006	7.800003	
4.820167862366787	0.0	0.02699862284562071	-1.3886216399999993	-2.4850051099999995	10.442120919999999	0.309649658203125	0.40078125	104.67	8.426393	-0.21667525	-5.2121773	0.0008980036	-0.0010995595	-0.004587598	-28.599998	-21.600006	7.800003	
4.830168210628969	0.0	0.0307272180139843	-1.4043122799999999	-2.51246373	10.42643028	0.30963134765625	0.40078125	104.68	8.431181	-0.20709845	-5.2265425	0.0008980036	-0.0017104251	-0.004587598	-28.599998	-21.600006	7.800003	
4.840168558891136	0.0	0.028076770846111387	-1.3827376500000002	-2.4555851599999996	10.465656880000001	0.309613037109375	0.400653076171875	104.69	8.439561	-0.20949265	-5.221754	0.0008980036	-0.00048869476	-0.004587598	-28.599998	-21.600006	7.899994	
4.850168907153304	0.0	0.03000845268032385	-1.3807763200000003	-2.4555851599999996	10.489192839999998	0.3095947265625	0.40074462890625	104.7	8.441956	-0.19393034	-5.213374	0.00028713793	-0.00048869476	-0.0039767325	-28.599998	-21.600006	7.899994	
4.860169255415485	0.0	0.02821153934617272	-1.3572403599999996	-2.4320492	10.526458109999998	0.309539794921875	0.400634765625	104.71000000000001	8.441956	-0.18674773	-5.2049947	-0.00032372773	-0.00048869476	-0.004587598	-28.599998	-21.699997	7.800003	
4.8701696036776525	0.0	0.02192234267664377	-1.3552790299999997	-2.4614691499999997	10.48134752	0.30955810546875	0.4007080078125	104.72	8.429984	-0.16639702	-5.195418	0.0008980036	0.0013439013	-0.004587598	-28.599998	-21.699997	7.800003	
4.88016995193982	0.0	0.023584487510733564	-1.3592016899999995	-2.4555851599999996	10.485270179999999	0.309539794921875	0.40067138671874997	104.73	8.425196	-0.17717093	-5.1918263	0.0015088692	0.0025656316	-0.0039767325	-28.5	-21.699997	7.699997	
4.890170300202001	0.0	0.024797404011285575	-1.3611630200000002	-2.4536238299999997	10.465656880000001	0.30957641601562497	0.400689697265625	104.74000000000001	8.420407	-0.19033903	-5.187038	0.0027306005	0.0019547665	-0.0033658673	-28.5	-21.699997	7.699997	
4.900170648464169	0.0	0.028930304679833173	-1.4043122799999999	-2.4065519099999992	10.52253545	0.309521484375	0.40052490234375	104.75	8.4347725	-0.20709845	-5.207389	0.0033414662	0.0007330356	-0.0039767325	-28.599998	-21.699997	7.699997	
4.910170996726336	0.0	0.02749277401251227	-1.3964669599999997	-2.3732092999999996	10.459772890000002	0.309503173828125	0.40057983398437497	104.76	8.438364	-0.20350714	-5.2121773	0.0027306005	-0.0010995595	-0.0027550021	-28.599998	-21.699997	7.699997	
