# OpenSignals Text File Format
# {"00:07:80:4D:2E:99": {"sensor": ["ECG", "XYZ", "XYZ", "XYZ", "SpO2", "SpO2"], "device name": "00:07:80:4D:2E:99", "column": ["nSeq", "DI", "ECG", "XYZ", "XYZ", "XYZ", "SpO2", "SpO2"], "sync interval": 2, "time": "12:53:43", "comments": "", "keywords": "", "device connection": "BTH00:07:80:4D:2E:99", "channels": [1, 2, 3, 4, 9, 10], "date": "2020-09-11", "mode": 0, "digital IO": [0, 1], "firmware version": 775, "device": "biosignalsplux", "position": 0, "sampling rate": 100, "label": ["ECG", "XYZ", "XYZ", "XYZ", "SpO2", "SpO2"], "resolution": [16, 16, 16, 16, 16, 16], "special": [{}, {}, {}, {}, {}, {}], "sleeve color": ["UNKNOWN", "UNKNOWN", "UNKNOWN", "UNKNOWN", "UNKNOWN", "UNKNOWN"]}, "internal sensors": {"sensor": ["xAcc", "yAcc", "zAcc", "xGyr", "yGyr", "zGyr", "xMag", "yMag", "zMag"], "device name": "internal sensors", "column": ["nSeq", "xAcc", "yAcc", "zAcc", "xGyr", "yGyr", "zGyr", "xMag", "yMag", "zMag"], "sync interval": 2, "time": "12:53:45", "comments": "", "keywords": "", "device connection": "UNKNOWNinternal sensors", "channels": [0, 1, 2, 3, 4, 5, 6, 7, 8], "date": "2020-09-11", "mode": 0, "digital IO": [], "firmware version": 0, "device": "android", "position": 0, "sampling rate": 100, "label": ["xAcc", "yAcc", "zAcc", "xGyr", "yGyr", "zGyr", "xMag", "yMag", "zMag"], "resolution": [1, 1, 1, 1, 1, 1, 1, 1, 1], "special": [{}, {}, {}, {}, {}, {}, {}, {}, {}], "sleeve color": ["UNKNOWN", "UNKNOWN", "UNKNOWN", "UNKNOWN", "UNKNOWN", "UNKNOWN", "UNKNOWN", "UNKNOWN", "UNKNOWN"]}}
# EndOfHeader
0.0	0.0	-0.2346768814401374	-0.10002782999999986	8.96131677	1.6828211399999997	0.326715087890625	0.4108154296875	109.94	7.445967	-1.6005238	-6.3829417	0.0010690391	0.0010934509	-0.00046425685	-30.599998	11.0	2.2999878	
0.010000415144460817	0.0	-0.22856737610402358	-0.0862985200000003	8.982891399999998	1.5435667099999997	0.326806640625	0.41077880859375	109.95	7.439982	-1.6005238	-6.3781533	0.0010690391	0.0010934509	-0.001075122	-30.599998	11.0	2.2999878	
0.020000830288935845	0.0	-0.22263756210132485	-0.13337043999999945	9.02996332	1.56121868	0.326806640625	0.410888671875	109.96000000000001	7.441179	-1.5993267	-6.363788	0.00045817345	0.0023151813	-0.00046425685	-30.5	11.0	2.2999878	
0.030001245433410872	0.0	-0.20466842875981356	-0.18044235999999972	8.95151012	1.5867159699999993	0.32684326171875	0.410980224609375	109.97	7.4375877	-1.5981296	-6.3685765	0.00045817345	0.0023151813	-0.001075122	-30.5	11.0	2.2999878	
0.04000166057787169	0.0	-0.1981546179235157	-0.1412157599999997	8.9044382	1.5004174500000003	0.326861572265625	0.41107177734375	109.98	7.4256167	-1.5861586	-6.362591	-0.0007635504	0.0017043157	-0.0016859875	-30.599998	11.0	2.2999878	
0.05000207572234672	0.0	-0.17915225941486754	-0.10198915999999965	8.94954879	1.4768814900000005	0.32687988281249997	0.411126708984375	109.99000000000001	7.422025	-1.602918	-6.3745623	-0.0001526922	0.00048258528	-0.0029077178	-30.599998	11.0	2.2999878	
0.060002490866821745	0.0	-0.1743005934126595	-0.06080122999999983	8.977007409999999	1.551412029999999	0.326953125	0.411273193359375	110.0	7.4375877	-1.5873557	-6.3709707	-0.0007635504	-0.00012827944	-0.0029077178	-30.5	11.0	2.2999878	
0.07000290601128256	0.0	-0.15687053407139354	-0.10198915999999965	9.004466029999998	1.6161359200000005	0.326953125	0.411309814453125	110.01	7.4375877	-1.5897499	-6.381745	-0.0007635504	-0.0007391451	-0.0016859875	-30.5	11.0	2.2999878	
0.08000332115575759	0.0	-0.15471423807041218	-0.13337043999999945	9.02996332	1.671053160000001	0.327044677734375	0.411328125	110.02	7.4447703	-1.5777789	-6.381745	-0.0001526922	-0.00012827944	0.00014660833	-30.599998	11.0	2.2999878	
0.09000373630023262	0.0	-0.1493234980679588	-0.1608290599999997	9.03192465	1.7024344399999998	0.327008056640625	0.41143798828125	110.03	7.455544	-1.5885528	-6.3781533	-0.001374416	0.00048258528	0.0025900695	-30.599998	11.0	2.2999878	
0.10000415144469343	0.0	-0.15363609006992152	-0.13337043999999945	9.02407933	1.629865229999999	0.327081298828125	0.4114013671875	110.04	7.439982	-1.6017209	-6.364985	-0.0025961474	0.0023151813	0.0025900695	-30.5	11.0	2.2999878	
0.11000456658916846	0.0	-0.15363609006992152	-0.13337043999999945	9.03192465	1.5631800099999997	0.326953125	0.41119995117187497	110.05	7.443573	-1.6005238	-6.362591	-0.0025961474	0.0023151813	0.0025900695	-30.5	11.0	2.2999878	
0.12000498173364349	0.0	-0.1561517687377331	-0.12356378999999945	8.982891399999998	1.56121868	0.32678833007812497	0.410888671875	110.06	7.429208	-1.6065093	-6.362591	-0.0025961474	0.00048258528	0.0032009343	-30.599998	11.0	2.399994	
0.1300053968781043	0.0	-0.15381578140333663	-0.1392544299999999	9.01623401	1.5161080900000006	0.32666015625	0.4105224609375	110.07000000000001	7.441179	-1.5993267	-6.3661823	-0.0007635504	-0.0007391451	0.0025900695	-30.599998	11.0	2.399994	
0.14000581202257933	0.0	-0.1507610287352797	-0.12552512000000032	9.022117999999999	1.4553068600000008	0.326531982421875	0.410174560546875	110.08	7.4363904	-1.6005238	-6.3793507	-0.0001526922	-0.0007391451	0.0007574735	-30.5	11.0	2.399994	
0.15000622716705436	0.0	-0.13526265122822623	-0.1392544299999999	8.99073672	1.4749201600000008	0.32640380859375	0.409844970703125	110.09	7.4375877	-1.5957354	-6.3793507	0.00045817345	-0.0013500107	0.0007574735	-30.5	11.0	2.399994	
0.16000664231151518	0.0	-0.12506516805691856	-0.13337043999999945	8.97504608	1.4670748399999995	0.32633056640624997	0.409588623046875	110.10000000000001	7.429208	-1.5885528	-6.3769565	-0.0001526922	-0.0019608755	-0.00046425685	-30.5	11.0	2.399994	
0.1700070574559902	0.0	-0.10781480004906772	-0.12160245999999966	8.92797416	1.5455280399999995	0.32618408203125	0.40938720703125	110.11	7.4363904	-1.5993267	-6.3709707	-0.001374416	-0.00012827944	0.00014660833	-30.5	11.0	2.399994	
0.18000747260046523	0.0	-0.090744123374632	-0.13337043999999945	8.943664799999999	1.52199208	0.326202392578125	0.409259033203125	110.12	7.441179	-1.5969325	-6.364985	-0.0019852817	0.0010934509	0.00014660833	-30.5	11.0	2.399994	
0.19000788774492605	0.0	-0.057860609359666346	-0.1392544299999999	8.969162090000001	1.5082627699999993	0.326165771484375	0.409149169921875	110.13	7.443573	-1.5969325	-6.3661823	-0.001374416	0.0010934509	0.00014660833	-30.5	11.0	2.399994	
0.20000830288940108	0.0	-0.027313082679097156	-0.12356378999999945	8.93581948	1.4984561200000004	0.326129150390625	0.40909423828124997	110.14	7.443573	-1.5945383	-6.367379	-0.0019852817	0.0017043157	0.0007574735	-30.5	11.0	2.399994	
0.2100087180338761	0.0	-0.0010781480004906773	-0.1176798000000001	8.97112342	1.4670748399999995	0.326092529296875	0.408929443359375	110.15	7.454347	-1.5981296	-6.3745623	-0.001374416	0.0010934509	0.0007574735	-30.5	11.0	2.399994	
0.22000913317833692	0.0	0.005570431335868499	-0.11571847000000031	8.97896874	1.5357213900000006	0.3260009765625	0.408892822265625	110.16	7.442376	-1.6005238	-6.373365	-0.001374416	-0.0013500107	-0.00046425685	-30.5	11.0	2.399994	
0.23000954832281195	0.0	0.006648579336359177	-0.12552512000000032	8.982891399999998	1.56121868	0.325982666015625	0.408746337890625	110.17	7.431602	-1.5969325	-6.3578024	-0.001374416	-0.0019608755	-0.0016859875	-30.5	11.0	2.399994	
0.24000996346728698	0.0	0.007726727336849854	-0.13337043999999945	9.01623401	1.5533733600000008	0.325946044921875	0.408709716796875	110.18	7.431602	-1.5969325	-6.3578024	-0.001374416	-0.0013500107	-0.00046425685	-30.5	11.100006	2.399994	
0.2500103786117478	0.0	0.012758084672473014	-0.1412157599999997	9.02996332	1.5180694200000004	0.325982666015625	0.408599853515625	110.19	7.4232225	-1.602918	-6.367379	-0.0007635504	-0.0007391451	-0.00046425685	-30.5	11.100006	2.399994	
0.2600107937562228	0.0	0.005435662835807165	-0.10983447999999987	9.01427268	1.6082905999999992	0.32589111328125	0.40850830078125	110.2	7.422025	-1.5897499	-6.3745623	-0.0001526922	-0.0013500107	0.00014660833	-30.5	11.0	2.399994	
0.27001120890069785	0.0	0.00934394933758587	-0.09218250999999963	9.045653960000001	1.451384199999999	0.32574462890625	0.40845336914062497	110.21000000000001	7.422025	-1.5897499	-6.3745623	-0.001374416	-0.0013500107	0.00014660833	-30.5	11.0	2.399994	
0.28001162404515867	0.0	0.012219010672227675	-0.15690640000000014	9.02996332	1.6318265600000008	0.325799560546875	0.4083251953125	110.22	7.4327993	-1.5933412	-6.3709707	-0.0019852817	-0.00012827944	-0.00046425685	-30.5	11.0	2.5	
0.2900120391896337	0.0	0.01765467350803484	-0.1274864500000001	8.943664799999999	1.56121868	0.32578124999999997	0.408197021484375	110.23	7.430405	-1.5813702	-6.375759	-0.001374416	0.0010934509	-0.00046425685	-30.5	11.0	2.5	
0.3000124543341087	0.0	0.015992528673945045	-0.13337043999999945	8.945626129999999	1.4768814900000005	0.325653076171875	0.408160400390625	110.24000000000001	7.430405	-1.5813702	-6.375759	-0.0019852817	0.0010934509	0.00014660833	-30.400002	10.899994	2.7000122	
0.31001286947856954	0.0	0.012398702005642788	-0.06080122999999983	8.982891399999998	1.4749201600000008	0.32568969726562497	0.408197021484375	110.25	7.441179	-1.5801731	-6.3781533	-0.0019852817	0.0010934509	0.0013683387	-30.400002	10.899994	2.7000122	
0.32001328462304457	0.0	0.011230708338444554	-0.09414384000000052	9.0025047	1.56121868	0.325634765625	0.40806884765625	110.26	7.441179	-1.5801731	-6.3781533	-0.0019852817	0.00048258528	0.0013683387	-30.400002	10.899994	2.7000122	
0.3300136997675196	0.0	0.014195615339793917	-0.10198915999999965	8.98681406	1.6082905999999992	0.32559814453124997	0.408050537109375	110.27	7.439982	-1.6005238	-6.375759	-0.001374416	0.00048258528	0.001979204	-30.400002	10.899994	2.7000122	
0.3400141149119804	0.0	0.013117467339303239	-0.10002782999999986	8.92993549	1.551412029999999	0.325634765625	0.40814208984375	110.28	7.4375877	-1.6005238	-6.353014	-0.0024129003	-0.0003909506	0.0019242242	-30.400002	10.899994	2.7000122	
0.35001453005645544	0.0	0.01886759000858685	-0.07453054000000049	8.95739411	1.5376827200000005	0.32559814453124997	0.40808715820312497	110.29	7.4375877	-1.6053122	-6.361394	-0.003023766	-0.0003909506	0.001313359	-30.400002	10.899994	2.7000122	
0.36001494520093047	0.0	0.02120357734298332	-0.08237585999999963	8.982891399999998	1.5867159699999993	0.325616455078125	0.40806884765625	110.3	7.433996	-1.6124948	-6.363788	-0.0024129003	0.0008307798	0.001313359	-30.299995	10.899994	2.7000122	
0.3700153603453913	0.0	0.022506339510242886	-0.08237585999999963	8.99269805	1.6082905999999992	0.32552490234375	0.408050537109375	110.31	7.433996	-1.6124948	-6.363788	-0.0018020347	0.0008307798	0.001313359	-30.299995	10.899994	2.7000122	
0.3800157754898663	0.0	0.02246141667688911	-0.13140910999999966	9.039769969999998	1.5376827200000005	0.325469970703125	0.407977294921875	110.32000000000001	7.4351935	-1.5957354	-6.3889275	-0.0005803034	0.0008307798	0.0007024938	-30.299995	10.899994	2.7000122	
0.39001619063434134	0.0	0.030367835347154076	-0.08237585999999963	9.01623401	1.551412029999999	0.32552490234375	0.40790405273437497	110.33	7.4351935	-1.5957354	-6.3889275	3.055483e-05	0.00021991413	9.162864e-05	-30.299995	10.899994	2.7000122	
0.40001660577880216	0.0	0.030367835347154076	-0.09218250999999963	8.98877539	1.5788706500000003	0.32545166015625	0.407830810546875	110.34	7.433996	-1.5933412	-6.3745623	3.055483e-05	0.00021991413	-0.00051923655	-30.299995	10.800003	2.7999878	
0.4100170209232772	0.0	0.035399192682777234	-0.1176798000000001	9.00838869	1.5827933099999998	0.32545166015625	0.40784912109375	110.35000000000001	7.433996	-1.5969325	-6.3721676	-0.001191169	0.0008307798	9.162864e-05	-30.299995	10.800003	2.7999878	
0.4200174360677522	0.0	0.033108128181734545	-0.09414384000000052	8.982891399999998	1.5474893699999994	0.32541503906249997	0.40781249999999997	110.36	7.4387846	-1.5897499	-6.367379	-0.001191169	0.0008307798	0.0007024938	-30.299995	10.800003	2.7000122	
0.43001785121221303	0.0	0.03809456268400393	-0.0862985200000003	8.969162090000001	1.529837399999999	0.325396728515625	0.407794189453125	110.37	7.4447703	-1.5825673	-6.364985	-0.0018020347	0.00021991413	0.0007024938	-30.299995	10.800003	2.7000122	
0.44001826635668806	0.0	0.03378197068204122	-0.1294477799999999	8.97308475	1.514146760000001	0.325341796875	0.407830810546875	110.38	7.445967	-1.5957354	-6.375759	-0.001191169	-0.0003909506	9.162864e-05	-30.299995	10.800003	2.7000122	
0.4500186815011631	0.0	0.033961662015456334	-0.07845320000000007	8.95739411	1.5239534099999998	0.32537841796875	0.4077392578125	110.39	7.451953	-1.5945383	-6.3697734	-0.0018020347	-0.0010018162	0.0019242242	-30.299995	10.800003	2.7000122	
0.4600190966456239	0.0	0.03459058168240923	-0.1176798000000001	8.96131677	1.52003075	0.32537841796875	0.407757568359375	110.4	7.4495587	-1.590947	-6.3793507	-0.0018020347	-0.0022235466	0.0019242242	-30.299995	10.800003	2.7999878	
0.47001951179009893	0.0	0.034860118682531895	-0.10983447999999987	8.97504608	1.514146760000001	0.325360107421875	0.407757568359375	110.41	7.4483614	-1.5981296	-6.381745	-0.003023766	-0.0022235466	0.001313359	-30.299995	10.800003	2.7999878	
0.48001992693457396	0.0	0.033602279348626106	-0.12160245999999966	8.945626129999999	1.5690639999999991	0.325396728515625	0.407794189453125	110.42	7.4327993	-1.6005238	-6.362591	-0.0024129003	-0.0028344123	0.0007024938	-30.299995	10.800003	2.7999878	
0.4900203420790348	0.0	0.03418627618222522	-0.12356378999999945	8.977007409999999	1.50237878	0.325341796875	0.407794189453125	110.43	7.4327993	-1.6017209	-6.3661823	-0.0018020347	-0.0022235466	0.001313359	-30.299995	10.800003	2.7999878	
0.5000207572235098	0.0	0.030412758180507853	-0.10787315000000008	8.95935544	1.5671026699999993	0.32537841796875	0.40772094726562497	110.44	7.4351935	-1.5921441	-6.3745623	-0.001191169	-0.0016126819	0.0007024938	-30.299995	10.800003	2.7000122	
0.5100211723679848	0.0	0.029109996013248287	-0.0843371900000005	8.998582039999999	1.551412029999999	0.32541503906249997	0.40781249999999997	110.45	7.4327993	-1.5921441	-6.3685765	-0.0005803034	-0.0010018162	0.0007024938	-30.299995	10.800003	2.7000122	
0.5200215875124456	0.0	0.028615844846356726	-0.0862985200000003	8.99073672	1.5690639999999991	0.325360107421875	0.40784912109375	110.46000000000001	7.430405	-1.5981296	-6.375759	3.055483e-05	-0.0010018162	9.162864e-05	-30.299995	10.800003	2.7000122	
0.5300220026569207	0.0	0.03198505734789009	-0.05883990000000005	8.943664799999999	1.5690639999999991	0.325360107421875	0.4078857421875	110.47	7.4375877	-1.5873557	-6.3697734	0.0006414205	0.00021991413	-0.00051923655	-30.299995	10.800003	2.7000122	
0.5400224178013957	0.0	0.0237192560107949	-0.10198915999999965	8.998582039999999	1.5082627699999993	0.325396728515625	0.407958984375	110.48	7.431602	-1.590947	-6.364985	0.0006414205	0.00021991413	-0.0011301017	-30.400002	10.800003	2.7000122	
0.5500228329458565	0.0	0.023539564677379787	-0.08041452999999985	8.95151012	1.5180694200000004	0.325396728515625	0.408013916015625	110.49000000000001	7.429208	-1.5969325	-6.3745623	0.0006414205	-0.0003909506	-0.0011301017	-30.400002	10.800003	2.7000122	
0.5600232480903315	0.0	0.01922697267541708	-0.13337043999999945	8.96720076	1.5317987299999989	0.325360107421875	0.40799560546874997	110.5	7.4208283	-1.5861586	-6.3805475	0.0006414205	-0.0010018162	-0.00051923655	-30.400002	10.800003	2.7999878	
0.5700236632348066	0.0	0.01437530667320903	-0.1176798000000001	8.963278099999998	1.52199208	0.325433349609375	0.4080322265625	110.51	7.418434	-1.5981296	-6.3913217	3.055483e-05	0.00021991413	-0.0011301017	-30.400002	10.800003	2.7999878	
0.5800240783792674	0.0	0.003054752668056919	-0.1294477799999999	8.95935544	1.5651413399999996	0.325341796875	0.40810546875	110.52	7.4351935	-1.5957354	-6.3901243	-0.001191169	-0.0003909506	-0.0011301017	-30.299995	10.800003	2.7999878	
0.5900244935237424	0.0	0.0039532093351324835	-0.13140910999999966	8.969162090000001	1.551412029999999	0.32530517578125	0.40806884765625	110.53	7.4387846	-1.5957354	-6.3793507	-0.0018020347	-0.0003909506	9.162864e-05	-30.299995	10.800003	2.7999878	
0.6000249086682174	0.0	-0.005750122669283612	-0.10002782999999986	8.95151012	1.5533733600000008	0.325469970703125	0.40814208984375	110.54	7.4375877	-1.5885528	-6.3829417	-0.0024129003	-0.0010018162	0.001313359	-30.299995	10.800003	2.7999878	
0.6100253238126783	0.0	0.007187653336604515	-0.10198915999999965	8.96720076	1.5572960200000003	0.325469970703125	0.40821533203125	110.55	7.4375877	-1.5861586	-6.375759	-0.003023766	0.00021991413	0.001313359	-30.299995	10.800003	2.7999878	
0.6200257389571533	0.0	0.00017969133341511287	-0.1176798000000001	8.95151012	1.5474893699999994	0.325469970703125	0.40827026367187497	110.56	7.442376	-1.5897499	-6.3697734	-0.0024129003	-0.0003909506	0.0019242242	-30.299995	10.800003	2.899994	
0.6300261541016283	0.0	0.0012578393339057901	-0.13337043999999945	8.969162090000001	1.5729866600000009	0.325469970703125	0.40828857421875	110.57000000000001	7.451953	-1.5921441	-6.375759	-0.0018020347	0.0008307798	0.001313359	-30.299995	10.800003	2.899994	
0.6400265692460891	0.0	0.011500245338567224	-0.13337043999999945	8.99073672	1.5533733600000008	0.325433349609375	0.40836181640624997	110.58	7.439982	-1.5921441	-6.373365	-0.001191169	0.00021991413	0.0019242242	-30.299995	10.800003	2.899994	
0.6500269843905642	0.0	0.019945738009077528	-0.13337043999999945	9.02996332	1.592599960000001	0.32548828125	0.408343505859375	110.59	7.431602	-1.6005238	-6.3697734	-0.0005803034	0.0008307798	0.0007024938	-30.299995	10.800003	2.899994	
0.6600273995350392	0.0	0.01963127817560108	-0.11571847000000031	8.99269805	1.5690639999999991	0.325469970703125	0.40843505859375	110.60000000000001	7.4387846	-1.5873557	-6.38773	3.055483e-05	-0.0003909506	0.0007024938	-30.299995	10.699997	3.0	
0.6700278146795	0.0	0.021562960009813545	-0.10198915999999965	8.96720076	1.5553346900000007	0.32545166015625	0.4083984375	110.61	7.4447703	-1.6041151	-6.361394	3.055483e-05	-0.0003909506	9.162864e-05	-30.299995	10.699997	3.0	
0.680028229823975	0.0	0.023000490677134448	-0.10983447999999987	9.004466029999998	1.5063014399999994	0.32541503906249997	0.40845336914062497	110.62	7.445967	-1.5945383	-6.3589997	-0.0005803034	0.00021991413	9.162864e-05	-30.299995	10.699997	2.899994	
0.6900286449684501	0.0	0.02569586067836114	-0.0843371900000005	8.95935544	1.5455280399999995	0.325360107421875	0.4084716796875	110.63	7.439982	-1.6017209	-6.3709707	3.055483e-05	0.00021991413	-0.00051923655	-30.299995	10.699997	2.899994	
0.7000290601129109	0.0	0.012937776005888127	-0.1176798000000001	8.982891399999998	1.5180694200000004	0.32532348632812497	0.40843505859375	110.64	7.439982	-1.590947	-6.3697734	0.0006414205	0.00021991413	-0.0011301017	-30.400002	10.699997	2.899994	
0.7100294752573859	0.0	-0.0031445983347644754	-0.11571847000000031	8.998582039999999	1.514146760000001	0.325433349609375	0.408526611328125	110.65	7.433996	-1.5945383	-6.367379	-0.0005803034	0.00021991413	-0.0011301017	-30.400002	10.699997	2.899994	
0.7200298904018609	0.0	-0.20615088226048825	-0.06668522000000027	8.97504608	1.4827654799999999	0.325360107421875	0.408489990234375	110.66	7.431602	-1.5837644	-6.3745623	-0.0005803034	-0.0016126819	-0.00051923655	-30.400002	10.699997	2.899994	
0.7300303055463218	0.0	-0.08364631570473505	-0.1372931000000001	8.97112342	1.5396440500000002	0.325286865234375	0.40854492187499997	110.67	7.4375877	-1.5981296	-6.373365	-0.0005803034	-0.0022235466	0.0007024938	-30.400002	10.699997	2.899994	
0.7400307206907968	0.0	0.9962087524533858	-0.10983447999999987	8.943664799999999	1.5769093200000004	0.325360107421875	0.408563232421875	110.68	7.4375877	-1.5873557	-6.381745	-0.0005803034	-0.0016126819	0.001313359	-30.400002	10.699997	2.899994	
0.7500311358352718	0.0	1.4262101133157508	-0.10198915999999965	8.95935544	1.5533733600000008	0.325341796875	0.40858154296875	110.69	7.4447703	-1.5933412	-6.3745623	-0.0018020347	-0.0016126819	0.0019242242	-30.400002	10.699997	2.899994	
0.7600315509797326	0.0	0.5058311035635428	-0.13337043999999945	9.01427268	1.60044528	0.325286865234375	0.408489990234375	110.7	7.441179	-1.5981296	-6.375759	-0.003023766	-0.0022235466	0.001313359	-30.5	10.699997	2.899994	
0.7700319661242077	0.0	0.03503981001594701	-0.1490610799999999	8.97504608	1.5847546399999997	0.325213623046875	0.40858154296875	110.71000000000001	7.4387846	-1.5969325	-6.373365	-0.003023766	-0.0022235466	0.0007024938	-30.5	10.699997	2.899994	
0.7800323812686827	0.0	-0.13512788272816487	-0.20593965000000017	9.00642736	1.4827654799999999	0.32532348632812497	0.40854492187499997	110.72	7.4363904	-1.590947	-6.381745	-0.0018020347	-0.0040561426	0.0007024938	-30.5	10.600006	2.899994	
0.7900327964131435	0.0	-0.19909799742394507	-0.09414384000000052	8.945626129999999	1.44353888	0.325250244140625	0.408599853515625	110.73	7.4351935	-1.6005238	-6.3721676	-0.0005803034	-0.0028344123	9.162864e-05	-30.5	10.600006	2.899994	
0.8000332115576185	0.0	-0.2147311434310599	-0.07649187000000028	8.89070889	1.5631800099999997	0.325250244140625	0.408563232421875	110.74000000000001	7.431602	-1.6041151	-6.3865333	-0.001191169	-0.0016126819	0.0007024938	-30.5	10.699997	2.899994	
0.8100336267020936	0.0	-0.20552196259353533	-0.09218250999999963	8.9240515	1.5945612900000006	0.325286865234375	0.40872802734374997	110.75	7.4327993	-1.6053122	-6.384139	-0.0005803034	-0.0003909506	9.162864e-05	-30.5	10.699997	2.899994	
0.8200340418465544	0.0	-0.2026918240922473	-0.06080122999999983	8.96720076	1.451384199999999	0.32532348632812497	0.408746337890625	110.76	7.4351935	-1.5981296	-6.3793507	-0.0005803034	-0.0003909506	9.162864e-05	-30.5	10.600006	2.899994	
0.8300344569910294	0.0	-0.19545924792228903	-0.08825985000000007	9.004466029999998	1.5082627699999993	0.325341796875	0.40872802734374997	110.77	7.433996	-1.6005238	-6.3793507	3.055483e-05	-0.0003909506	-0.00051923655	-30.5	10.600006	2.899994	
0.8400348721355044	0.0	-0.182296857749632	-0.15494507000000035	8.96131677	1.551412029999999	0.325250244140625	0.408837890625	110.78	7.429208	-1.5933412	-6.3721676	3.055483e-05	0.00021991413	9.162864e-05	-30.5	10.699997	3.0	
0.8500352872799652	0.0	-0.16962861874386656	-0.10591182000000031	8.87501825	1.52003075	0.325286865234375	0.408837890625	110.79	7.428011	-1.5885528	-6.3805475	3.055483e-05	0.00021991413	-0.00051923655	-30.5	10.699997	3.0	
0.8600357024244403	0.0	-0.16280034807409227	-0.10198915999999965	8.95739411	1.52199208	0.32537841796875	0.40891113281249997	110.8	7.422025	-1.6005238	-6.381745	-0.0005803034	0.0008307798	-0.0011301017	-30.5	10.699997	3.0	
0.8700361175689153	0.0	-0.15422008690352063	-0.06276255999999962	8.955432779999999	1.50237878	0.325396728515625	0.4090576171875	110.81	7.4351935	-1.5945383	-6.3745623	-0.001191169	0.0008307798	-0.0017409672	-30.5	10.699997	3.0	
0.8800365327133761	0.0	-0.14357337539867518	-0.09806650000000008	8.977007409999999	1.6435945399999996	0.325396728515625	0.409112548828125	110.82000000000001	7.4363904	-1.5741876	-6.3793507	-0.0018020347	0.0008307798	9.162864e-05	-30.5	10.699997	2.899994	
0.8900369478578511	0.0	-0.1421358447313543	-0.17651970000000014	9.055460609999999	1.6553625200000004	0.325360107421875	0.409112548828125	110.83	7.465121	-1.5933412	-6.384139	-0.001191169	0.0008307798	0.001313359	-30.5	10.699997	2.899994	
0.9000373630023262	0.0	-0.13836232672963691	-0.1470997500000001	9.05153795	1.6161359200000005	0.32545166015625	0.40918579101562497	110.84	7.467515	-1.602918	-6.3781533	-0.0018020347	-0.0010018162	0.0037568202	-30.599998	10.699997	2.7999878	
0.910037778146787	0.0	-0.13908109206329736	-0.1274864500000001	9.01623401	1.5376827200000005	0.325433349609375	0.40918579101562497	110.85000000000001	7.463924	-1.602918	-6.3601966	-0.0036346316	0.00021991413	0.004367685	-30.599998	10.699997	2.7999878	
0.920038193291262	0.0	-0.13400481189432042	-0.1176798000000001	9.02996332	1.5847546399999997	0.32530517578125	0.409039306640625	110.86	7.4495587	-1.5849615	-6.362591	-0.0036346316	0.0008307798	0.0037568202	-30.599998	10.699997	2.7000122	
0.930038608435737	0.0	-0.13440911739450442	-0.09414384000000052	9.01623401	1.5945612900000006	0.325250244140625	0.40872802734374997	110.87	7.4447703	-1.6017209	-6.361394	-0.003023766	-0.0003909506	0.0025350899	-30.599998	10.699997	2.7000122	
0.9400390235801979	0.0	-0.13400481189432042	-0.12356378999999945	9.000543369999999	1.5082627699999993	0.32504882812499997	0.408343505859375	110.88	7.441179	-1.5969325	-6.3721676	-0.0018020347	-0.0016126819	0.001313359	-30.599998	10.699997	2.7999878	
0.9500394387246729	0.0	-0.12502024522356478	-0.11571847000000031	8.96720076	1.4847268099999997	0.32486572265624997	0.408050537109375	110.89	7.4327993	-1.5945383	-6.3829417	3.055483e-05	-0.0022235466	0.0007024938	-30.599998	10.699997	2.7999878	
0.9600398538691479	0.0	-0.10835387404931306	-0.12356378999999945	8.93581948	1.4788428200000003	0.324847412109375	0.407794189453125	110.9	7.422025	-1.5897499	-6.385336	0.0018631518	-0.003445277	-0.00051923655	-30.700005	10.699997	2.7000122	
0.9700402690136087	0.0	-0.09339457054250491	-0.1294477799999999	8.91228352	1.52003075	0.324755859375	0.407611083984375	110.91	7.4268136	-1.5837644	-6.384139	0.0024740174	-0.003445277	-0.0011301017	-30.700005	10.699997	2.7000122	
0.9800406841580838	0.0	-0.0802321803698479	-0.1470997500000001	8.93189682	1.4847268099999997	0.324627685546875	0.407391357421875	110.92	7.4244194	-1.5801731	-6.3829417	0.0024740174	-0.0028344123	9.162864e-05	-30.599998	10.699997	2.7000122	
0.9900410993025588	0.0	-0.06468888002944063	-0.1392544299999999	8.91032219	1.514146760000001	0.32459106445312497	0.407208251953125	110.93	7.4447703	-1.5801731	-6.362591	0.0006414205	-0.0010018162	-0.00051923655	-30.599998	10.699997	2.7000122	
1.0000415144470196	0.0	-0.04438375935353288	-0.12552512000000032	8.95151012	1.4984561200000004	0.324517822265625	0.40708007812499997	110.94	7.445967	-1.5861586	-6.363788	-0.0005803034	0.0014416445	-0.00051923655	-30.599998	10.800003	2.7000122	
1.0100419295914946	0.0	-0.016351911340775273	-0.13140910999999966	8.982891399999998	1.5455280399999995	0.324462890625	0.40697021484375	110.95	7.445967	-1.5969325	-6.3781533	-0.0005803034	0.0020525102	-0.00051923655	-30.599998	10.800003	2.7000122	
1.0200423447359697	0.0	-0.0025156786678115803	-0.12552512000000032	8.96720076	1.52003075	0.32442626953125	0.40680541992187497	110.96000000000001	7.442376	-1.5981296	-6.375759	3.055483e-05	0.0014416445	0.0007024938	-30.599998	10.800003	2.7999878	
1.0300427598804305	0.0	0.007007962003189402	-0.10591182000000031	8.96720076	1.5376827200000005	0.32442626953125	0.40675048828125	110.97	7.439982	-1.5969325	-6.3865333	-0.0005803034	0.00021991413	-0.00051923655	-30.599998	10.800003	2.7999878	
1.0400431750249055	0.0	0.010781480004906772	-0.14317708999999945	9.026040660000001	1.5631800099999997	0.32442626953125	0.406658935546875	110.98	7.430405	-1.6077064	-6.375759	-0.001191169	-0.0022235466	9.162864e-05	-30.599998	10.800003	2.7999878	
1.0500435901693805	0.0	0.01185962800539745	-0.13337043999999945	9.00838869	1.529837399999999	0.3243896484375	0.40667724609375	110.99000000000001	7.431602	-1.6005238	-6.361394	-0.0018020347	-0.0022235466	-0.00051923655	-30.599998	10.800003	2.7999878	
1.0600440053138414	0.0	0.01792421050815751	-0.10198915999999965	9.05153795	1.5533733600000008	0.3243896484375	0.40660400390625	111.0	7.4256167	-1.6041151	-6.3745623	-0.001191169	-0.0022235466	9.162864e-05	-30.599998	10.800003	2.7000122	
1.0700444204583164	0.0	0.017295290841204614	-0.052955909999999606	9.039769969999998	1.4906107999999991	0.324298095703125	0.406494140625	111.01	7.431602	-1.5993267	-6.3805475	-0.0018020347	-0.0010018162	9.162864e-05	-30.599998	10.800003	2.7000122	
1.0800448356027914	0.0	0.01639683417412905	-0.10787315000000008	9.033885979999999	1.6945891200000005	0.32427978515625	0.40645751953125	111.02	7.430405	-1.6005238	-6.385336	-0.0018020347	-0.0010018162	0.001313359	-30.599998	10.800003	2.7000122	
1.0900452507472522	0.0	0.017430059341265947	-0.1372931000000001	8.96720076	1.5161080900000006	0.324169921875	0.406402587890625	111.03	7.433996	-1.5921441	-6.3889275	-0.0024129003	-0.0003909506	0.0007024938	-30.599998	10.800003	2.7000122	
1.1000456658917273	0.0	0.019945738009077528	-0.1176798000000001	8.920128839999999	1.4788428200000003	0.324169921875	0.406292724609375	111.04	7.4351935	-1.590947	-6.3829417	-0.003023766	0.00021991413	0.001313359	-30.599998	10.800003	2.7999878	
1.1100460810362023	0.0	0.028930304679833173	-0.0862985200000003	8.969162090000001	1.4533455300000009	0.324188232421875	0.406219482421875	111.05	7.4327993	-1.590947	-6.3769565	-0.003023766	0.00021991413	0.001313359	-30.599998	10.800003	2.7999878	
1.120046496180663	0.0	0.03216474868130521	-0.0843371900000005	8.97112342	1.5867159699999993	0.32420654296875	0.4062744140625	111.06	7.431602	-1.5861586	-6.373365	-0.0024129003	-0.0003909506	0.0025350899	-30.599998	10.800003	2.7999878	
1.1300469113251381	0.0	0.02803184801275761	-0.09414384000000052	8.982891399999998	1.5945612900000006	0.324188232421875	0.406292724609375	111.07000000000001	7.441179	-1.5861586	-6.3793507	-0.003023766	-0.0010018162	0.0019242242	-30.599998	10.800003	2.7999878	
1.1400473264696132	0.0	0.03252413134813543	-0.13140910999999966	8.947587460000001	1.56121868	0.324188232421875	0.406292724609375	111.08	7.443573	-1.6005238	-6.3709707	-0.0036346316	-0.0022235466	0.0025350899	-30.599998	10.800003	2.7000122	
1.150047741614074	0.0	0.03198505734789009	-0.14317708999999945	8.998582039999999	1.5847546399999997	0.32422485351562497	0.406329345703125	111.09	7.4495587	-1.5873557	-6.3781533	-0.0036346316	-0.0016126819	0.0019242242	-30.599998	10.800003	2.7000122	
1.160048156758549	0.0	0.0352644241827159	-0.1176798000000001	8.96720076	1.514146760000001	0.324261474609375	0.406365966796875	111.10000000000001	7.441179	-1.5837644	-6.3697734	-0.003023766	-0.0010018162	0.0019242242	-30.599998	10.800003	2.7000122	
1.170048571903024	0.0	0.03274874551490432	-0.10591182000000031	9.00642736	1.592599960000001	0.324261474609375	0.40643920898437497	111.11	7.443573	-1.5933412	-6.367379	-0.003023766	-0.0003909506	0.001313359	-30.599998	10.800003	2.7000122	
1.1800489870474848	0.0	0.040071167351570174	-0.10983447999999987	9.026040660000001	1.56121868	0.32420654296875	0.406292724609375	111.12	7.4363904	-1.5921441	-6.3697734	-0.0024129003	-0.0003909506	9.162864e-05	-30.599998	10.800003	2.7000122	
1.1900494021919599	0.0	0.044788064853716884	-0.12356378999999945	9.033885979999999	1.56121868	0.3242431640625	0.406292724609375	111.13	7.431602	-1.5993267	-6.384139	-0.001191169	-0.0010018162	0.0007024938	-30.599998	10.800003	2.7000122	
1.200049817336435	0.0	0.04514744752054711	-0.13337043999999945	9.03584731	1.5376827200000005	0.32422485351562497	0.406329345703125	111.14	7.431602	-1.5933412	-6.38773	-0.0005803034	-0.0010018162	-0.00051923655	-30.599998	10.800003	2.7000122	
1.2100502324808957	0.0	0.04707912935475957	-0.11179580999999966	8.998582039999999	1.5396440500000002	0.324169921875	0.40625610351562497	111.15	7.443573	-1.5981296	-6.3829417	3.055483e-05	-0.0003909506	-0.0011301017	-30.599998	10.800003	2.7000122	
1.2200506476253707	0.0	0.03935240201790972	-0.11375714000000053	9.02996332	1.470997499999999	0.324188232421875	0.406219482421875	111.16	7.4387846	-1.5945383	-6.362591	-0.0018020347	-0.0010018162	9.162864e-05	-30.599998	10.800003	2.7000122	
1.2300510627698458	0.0	0.03647734068326791	-0.10591182000000031	9.01623401	1.5474893699999994	0.324188232421875	0.406219482421875	111.17	7.4375877	-1.5981296	-6.3685765	-0.0018020347	-0.0003909506	0.001313359	-30.599998	10.800003	2.7000122	
1.2400514779143066	0.0	0.04312592001962709	-0.11375714000000053	8.96720076	1.5376827200000005	0.324261474609375	0.406219482421875	111.18	7.4375877	-1.5981296	-6.3685765	-0.0018020347	-0.0003909506	0.0019242242	-30.599998	10.800003	2.7000122	
1.2500518930587816	0.0	0.039711784684739945	-0.09218250999999963	8.92993549	1.5553346900000007	0.324169921875	0.40625610351562497	111.19	7.4447703	-1.5957354	-6.3901243	-0.0018020347	-0.0010018162	0.0019242242	-30.599998	10.800003	2.7000122	
1.2600523082032566	0.0	0.03584842101631502	-0.10787315000000008	8.99073672	1.4984561200000004	0.324298095703125	0.406219482421875	111.2	7.430405	-1.6005238	-6.385336	-0.0018020347	-0.0010018162	0.0019242242	-30.599998	10.800003	2.600006	
1.2700527233477175	0.0	0.030906909347399415	-0.0862985200000003	8.95151012	1.4200029200000004	0.3242431640625	0.40634765624999997	111.21000000000001	7.4208283	-1.6053122	-6.3805475	-0.0018020347	-0.0022235466	0.0019242242	-30.599998	10.800003	2.600006	
1.2800531384921925	0.0	0.033961662015456334	-0.0862985200000003	8.943664799999999	1.4788428200000003	0.32427978515625	0.40643920898437497	111.22	7.431602	-1.5933412	-6.3709707	-0.003023766	-0.0022235466	0.0025350899	-30.599998	10.899994	2.600006	
1.2900535536366675	0.0	0.03593826668302257	-0.13140910999999966	8.982891399999998	1.549450699999999	0.32431640624999997	0.40643920898437497	111.23	7.431602	-1.5933412	-6.3709707	-0.003023766	-0.0016126819	0.0025350899	-30.599998	10.899994	2.600006	
1.3000539687811283	0.0	0.03180536601447498	-0.10198915999999965	8.95151012	1.4866881399999994	0.32431640624999997	0.406402587890625	111.24000000000001	7.442376	-1.590947	-6.373365	-0.0018020347	-0.0016126819	0.0031459546	-30.599998	10.899994	2.600006	
1.3100543839256034	0.0	0.038993019351079496	-0.13140910999999966	8.982891399999998	1.5004174500000003	0.32431640624999997	0.40653076171874997	111.25	7.4591355	-1.5945383	-6.381745	-0.001191169	-0.0010018162	0.0031459546	-30.599998	10.899994	2.600006	
1.3200547990700784	0.0	0.033242896681795885	-0.1176798000000001	9.01427268	1.4984561200000004	0.32435302734375	0.406585693359375	111.26	7.45315	-1.5981296	-6.38773	-0.0005803034	-0.0016126819	0.001313359	-30.599998	10.899994	2.5	
1.3300552142145392	0.0	0.032703822681550546	-0.14513842000000035	9.00642736	1.4690361699999992	0.32442626953125	0.406658935546875	111.27	7.4375877	-1.6005238	-6.3709707	-0.0005803034	-0.0022235466	0.0007024938	-30.599998	10.899994	2.5	
1.3400556293590142	0.0	0.033108128181734545	-0.1294477799999999	9.02407933	1.514146760000001	0.324462890625	0.40675048828125	111.28	7.4375877	-1.6005238	-6.3709707	-0.0005803034	-0.0028344123	0.001313359	-30.5	10.899994	2.600006	
1.3500560445034893	0.0	0.029334610180017175	-0.13337043999999945	9.000543369999999	1.5671026699999993	0.32449951171874997	0.40682373046875	111.29	7.4268136	-1.5933412	-6.3745623	-0.0018020347	-0.003445277	0.0007024938	-30.5	10.899994	2.600006	
1.36005645964795	0.0	0.03557888401619235	-0.16475172000000035	9.022117999999999	1.5161080900000006	0.324554443359375	0.40682373046875	111.3	7.430405	-1.5861586	-6.373365	-0.0018020347	-0.0028344123	0.001313359	-30.5	10.899994	2.600006	
1.370056874792425	0.0	0.020305120675907756	-0.16475172000000035	9.022117999999999	1.514146760000001	0.324554443359375	0.406951904296875	111.31	7.417237	-1.5921441	-6.3925185	-0.0024129003	-0.0028344123	9.162864e-05	-30.5	10.899994	2.600006	
1.3800572899369001	0.0	0.013297158672718353	-0.1412157599999997	9.026040660000001	1.4984561200000004	0.32464599609375	0.407061767578125	111.32000000000001	7.4244194	-1.590947	-6.384139	-0.001191169	-0.0028344123	0.001313359	-30.5	10.899994	2.600006	
1.390057705081361	0.0	0.01383623267296369	-0.12552512000000032	9.039769969999998	1.4827654799999999	0.324627685546875	0.407098388671875	111.33	7.4244194	-1.590947	-6.384139	-4.8853457e-05	-0.0018264856	0.001136208	-30.5	10.899994	2.600006	
1.400058120225836	0.0	0.011140862671736997	-0.16475172000000035	9.02996332	1.529837399999999	0.324627685546875	0.40717163085937497	111.34	7.428011	-1.5897499	-6.384139	-4.8853457e-05	-0.00060475525	0.001136208	-30.5	10.899994	2.600006	
1.410058535370311	0.0	0.02017035217584642	-0.1490610799999999	8.99269805	1.4984561200000004	0.324664306640625	0.4072265625	111.35000000000001	7.441179	-1.5933412	-6.3781533	-4.8853457e-05	6.1104074e-06	0.0017470736	-30.5	10.899994	2.600006	
1.4200589505147718	0.0	0.022281725343473995	-0.13337043999999945	8.97112342	1.4984561200000004	0.32468261718749997	0.40733642578125	111.36	7.4327993	-1.5957354	-6.3805475	-4.8853457e-05	0.00061697606	0.001136208	-30.599998	10.899994	2.5	
1.4300593656592469	0.0	0.021023886009568206	-0.13337043999999945	8.96720076	1.4984561200000004	0.32479248046875	0.407373046875	111.37	7.439982	-1.602918	-6.3793507	0.00056200475	6.1104074e-06	0.0017470736	-30.599998	10.899994	2.5	
1.4400597808037219	0.0	0.028076770846111387	-0.11571847000000031	8.96720076	1.5239534099999998	0.324884033203125	0.407391357421875	111.38	7.428011	-1.5957354	-6.385336	0.0011728704	-0.00060475525	0.001136208	-30.599998	10.899994	2.5	
1.4500601959481827	0.0	0.036926569016805695	-0.1274864500000001	8.96720076	1.470997499999999	0.32490234375	0.40753784179687497	111.39	7.428011	-1.5957354	-6.385336	-0.0006597191	6.1104074e-06	0.001136208	-30.599998	10.899994	2.5	
1.4600606110926577	0.0	0.034680427349116784	-0.13337043999999945	8.969162090000001	1.4670748399999995	0.32493896484375	0.407611083984375	111.4	7.433996	-1.5873557	-6.3805475	-0.0012705848	-0.00060475525	0.001136208	-30.599998	10.899994	2.399994	
1.4700610262371328	0.0	0.028930304679833173	-0.11571847000000031	8.982891399999998	1.4984561200000004	0.32493896484375	0.4077392578125	111.41	7.431602	-1.5945383	-6.385336	-0.0018814504	6.1104074e-06	0.0017470736	-30.599998	10.899994	2.399994	
1.4800614413815936	0.0	0.040430550018400395	-0.10198915999999965	8.977007409999999	1.4768814900000005	0.32493896484375	0.4077392578125	111.42	7.431602	-1.5897499	-6.3901243	-0.002492316	0.00061697606	0.0017470736	-30.700005	10.899994	2.5	
1.4900618565260686	0.0	0.03252413134813543	-0.10198915999999965	8.96131677	1.44353888	0.324993896484375	0.407830810546875	111.43	7.4256167	-1.5933412	-6.3889275	-0.0018814504	6.1104074e-06	0.001136208	-30.700005	10.899994	2.5	
1.5000622716705436	0.0	0.023988793010917567	-0.15298373999999948	8.97308475	1.4827654799999999	0.325067138671875	0.40792236328125	111.44	7.4375877	-1.5885528	-6.381745	-0.0018814504	6.1104074e-06	0.0017470736	-30.700005	10.899994	2.5	
1.5100626868150044	0.0	-0.005076280168976939	-0.13337043999999945	8.97504608	1.4356935600000007	0.325177001953125	0.408050537109375	111.45	7.4351935	-1.5861586	-6.3793507	-0.0006597191	6.1104074e-06	0.0017470736	-30.700005	10.899994	2.5	
1.5200631019594795	0.0	-0.22537785493590531	-0.10198915999999965	8.98681406	1.514146760000001	0.325177001953125	0.40810546875	111.46000000000001	7.4363904	-1.5921441	-6.38773	-4.8853457e-05	0.00061697606	0.0017470736	-30.599998	10.899994	2.399994	
1.5300635171039545	0.0	0.04240715468596664	-0.13337043999999945	8.95151012	1.4827654799999999	0.32523193359374997	0.408197021484375	111.47	7.4495587	-1.5921441	-6.3721676	0.0011728704	-0.00060475525	0.001136208	-30.599998	10.899994	2.399994	
1.5400639322484153	0.0	1.1750016292014231	-0.1412157599999997	8.963278099999998	1.4906107999999991	0.32532348632812497	0.408233642578125	111.48	7.4495587	-1.5981296	-6.3889275	0.00056200475	-0.00060475525	0.0017470736	-30.700005	10.899994	2.399994	
1.5500643473928903	0.0	1.3870374026312562	-0.1412157599999997	8.97504608	1.5455280399999995	0.32523193359374997	0.408343505859375	111.49000000000001	7.4483614	-1.6005238	-6.3805475	0.00056200475	-0.00060475525	0.0017470736	-30.700005	10.899994	2.399994	
1.5600647625373654	0.0	0.26091181611874387	-0.16279038999999948	8.963278099999998	1.52003075	0.325286865234375	0.408380126953125	111.5	7.441179	-1.5945383	-6.3721676	-0.0006597191	-0.00060475525	0.0023579383	-30.700005	10.899994	2.399994	
1.5700651776818262	0.0	0.023539564677379787	-0.17651970000000014	8.98681406	1.4768814900000005	0.32532348632812497	0.408526611328125	111.51	7.441179	-1.6041151	-6.385336	-0.0006597191	-0.00121562	0.001136208	-30.700005	10.899994	2.399994	
1.5800655928263012	0.0	-0.12178580122209275	-0.15690640000000014	9.000543369999999	1.5259147399999995	0.32541503906249997	0.40863647460937497	111.52	7.4375877	-1.5981296	-6.3901243	-0.0006597191	-0.0024373503	0.001136208	-30.700005	10.899994	2.399994	
1.5900660079707762	0.0	-0.17749011458077774	-0.13337043999999945	9.022117999999999	1.4298095699999993	0.325433349609375	0.40863647460937497	111.53	7.439982	-1.6065093	-6.3805475	-0.0006597191	-0.0024373503	-8.552242e-05	-30.700005	10.899994	2.399994	
1.600066423115237	0.0	-0.19370725742149167	-0.1392544299999999	8.95347145	1.4611908500000002	0.325469970703125	0.408709716796875	111.54	7.428011	-1.602918	-6.3913217	-4.8853457e-05	-0.00121562	-8.552242e-05	-30.700005	10.899994	2.399994	
1.610066838259712	0.0	-0.18687898675171738	-0.07845320000000007	8.93778081	1.514146760000001	0.32548828125	0.408837890625	111.55	7.4256167	-1.5969325	-6.384139	-4.8853457e-05	-0.00060475525	0.001136208	-30.700005	10.899994	2.399994	
1.6200672534041871	0.0	-0.17645688941364085	-0.1490610799999999	8.982891399999998	1.4376548900000006	0.3255615234375	0.40894775390625	111.56	7.4256167	-1.5993267	-6.384139	-4.8853457e-05	-0.00060475525	0.0017470736	-30.700005	11.0	2.399994	
1.630067668548648	0.0	-0.1660347920755643	-0.1922103399999995	9.02407933	1.4572681900000006	0.32559814453124997	0.40894775390625	111.57000000000001	7.433996	-1.5993267	-6.393716	-0.0012705848	-0.00060475525	0.00052534277	-30.700005	11.0	2.399994	
1.640068083693123	0.0	-0.16468710707495096	-0.1412157599999997	8.920128839999999	1.3807763200000003	0.325653076171875	0.409130859375	111.58	7.4327993	-1.5981296	-6.3913217	-4.8853457e-05	-0.00121562	-8.552242e-05	-30.700005	11.0	2.399994	
1.650068498837598	0.0	-0.14316906989849118	-0.10002782999999986	8.88874756	1.451384199999999	0.3257080078125	0.4092041015625	111.59	7.4124484	-1.602918	-6.384139	-0.0006597191	-0.00121562	-8.552242e-05	-30.700005	11.0	2.399994	
1.6600689139820588	0.0	-0.1327918953937684	-0.18044235999999972	8.88286357	1.4043122799999999	0.32568969726562497	0.40924072265625	111.60000000000001	7.419631	-1.6041151	-6.39611	-0.0006597191	0.00061697606	-8.552242e-05	-30.700005	11.0	2.399994	
1.6700693291265338	0.0	-0.13458880872791953	-0.16475172000000035	8.95151012	1.4925721299999988	0.32581787109375	0.40938720703125	111.61	7.4232225	-1.5957354	-6.405687	-0.0006597191	6.1104074e-06	-8.552242e-05	-30.700005	11.0	2.399994	
1.6800697442710089	0.0	-0.1159009100527478	-0.17259703999999948	9.02996332	1.5239534099999998	0.32587280273437497	0.409478759765625	111.62	7.45315	-1.5885528	-6.4272346	-0.0018814504	-0.00121562	0.00052534277	-30.700005	11.0	2.399994	
1.6900701594154697	0.0	-0.10655696071516194	-0.14317708999999945	9.098609869999999	1.6259425699999994	0.325909423828125	0.409588623046875	111.63	7.4591355	-1.5945383	-6.4152637	-0.0012705848	-0.0024373503	0.0017470736	-30.700005	11.0	2.399994	
1.7000705745599447	0.0	-0.10327759388033612	-0.16279038999999948	9.098609869999999	1.5769093200000004	0.325909423828125	0.409588623046875	111.64	7.429208	-1.5981296	-6.3566055	-0.0006597191	-0.00121562	0.0035796687	-30.700005	11.0	2.399994	
1.7100709897044197	0.0	-0.12129165005520119	-0.16279038999999948	9.03584731	1.514146760000001	0.3260009765625	0.409661865234375	111.65	7.4268136	-1.6172832	-6.3601966	-0.0018814504	0.003671302	0.002968804	-30.700005	11.0	2.399994	
1.7200714048488805	0.0	-0.11154339521743131	-0.1412157599999997	8.99073672	1.4631521799999998	0.32605590820312497	0.40968017578125	111.66	7.4351935	-1.6101006	-6.373365	-0.0006597191	0.0055038976	0.001136208	-30.700005	11.0	2.2999878	
1.7300718199933556	0.0	-0.10493973871442591	-0.1392544299999999	9.000543369999999	1.529837399999999	0.32581787109375	0.4094970703125	111.67	7.433996	-1.6065093	-6.393716	-0.0006597191	0.0024495712	0.001136208	-30.700005	11.0	2.2999878	
1.7400722351378306	0.0	-0.11140862671736998	-0.17848102999999993	9.004466029999998	1.4455002099999996	0.32574462890625	0.40916748046875	111.68	7.430405	-1.5993267	-6.393716	-4.8853457e-05	-0.0024373503	0.0023579383	-30.700005	11.0	2.2999878	
1.7500726502822914	0.0	-0.09146288870829246	-0.16475172000000035	8.969162090000001	1.3886216399999993	0.325616455078125	0.408782958984375	111.69	7.4447703	-1.5849615	-6.3781533	-4.8853457e-05	-0.004880812	0.0023579383	-30.700005	11.0	2.2999878	
1.7600730654267664	0.0	-0.08050171736997057	-0.1274864500000001	8.9240515	1.3827376500000002	0.325433349609375	0.4083984375	111.7	7.4387846	-1.5849615	-6.3745623	0.00056200475	-0.003048216	0.0017470736	-30.700005	11.0	2.2999878	
1.7700734805712415	0.0	-0.0624876611951055	-0.16279038999999948	8.9240515	1.4043122799999999	0.32537841796875	0.40810546875	111.71000000000001	7.442376	-1.5861586	-6.399701	-0.0012705848	-0.00121562	0.0023579383	-30.700005	11.0	2.2999878	
1.7800738957157023	0.0	-0.05642307869234544	-0.19613300000000017	8.926012829999998	1.4376548900000006	0.325286865234375	0.40792236328125	111.72	7.441179	-1.5933412	-6.3865333	-0.0012705848	-0.0018264856	0.0023579383	-30.700005	11.0	2.399994	
1.7900743108601773	0.0	-0.04240715468596664	-0.1274864500000001	8.91032219	1.4298095699999993	0.325213623046875	0.40772094726562497	111.73	7.4327993	-1.5849615	-6.3769565	-0.0012705848	-0.0018264856	0.0023579383	-30.700005	11.0	2.399994	
1.8000747260046523	0.0	-0.018463284508402848	-0.16279038999999948	8.906399529999998	1.4788428200000003	0.32514038085937497	0.407684326171875	111.74000000000001	7.4375877	-1.6041151	-6.373365	-0.0012705848	-0.00060475525	0.0017470736	-30.700005	11.0	2.399994	
1.8100751411491132	0.0	-0.009523640671000982	-0.12356378999999945	8.90836086	1.4827654799999999	0.325177001953125	0.407611083984375	111.75	7.4387846	-1.6136919	-6.381745	-4.8853457e-05	6.1104074e-06	0.0017470736	-30.700005	11.0	2.399994	
1.8200755562935882	0.0	0.0006289196669528951	-0.18632635000000017	8.97112342	1.5004174500000003	0.325177001953125	0.407611083984375	111.76	7.4351935	-1.6124948	-6.393716	-4.8853457e-05	6.1104074e-06	0.00052534277	-30.700005	11.0	2.2999878	
1.8300759714380632	0.0	0.0047168975021467125	-0.17063570999999972	8.998582039999999	1.4729588299999987	0.32515869140625	0.407501220703125	111.77	7.4327993	-1.6089035	-6.3925185	0.0011728704	6.1104074e-06	-8.552242e-05	-30.700005	11.0	2.2999878	
1.840076386582524	0.0	0.002875061334641806	-0.14317708999999945	9.02996332	1.5161080900000006	0.32515869140625	0.407501220703125	111.78	7.4232225	-1.6053122	-6.3925185	0.0011728704	0.00061697606	-0.0025289834	-30.700005	11.100006	2.2999878	
1.850076801726999	0.0	0.0002695370001226693	-0.15690640000000014	9.02996332	1.514146760000001	0.32515869140625	0.407501220703125	111.79	7.410054	-1.602918	-6.3781533	0.00056200475	-0.00060475525	-0.0025289834	-30.700005	11.100006	2.2999878	
1.860077216871474	0.0	0.007457190336727184	-0.15494507000000035	9.045653960000001	1.3611630200000002	0.32515869140625	0.40751953125	111.8	7.4124484	-1.6077064	-6.4008985	0.001783736	-0.00060475525	-0.0025289834	-30.799995	11.100006	2.2000122	
1.870077632015935	0.0	0.005211048669038273	-0.17063570999999972	9.03780864	1.551412029999999	0.32514038085937497	0.40748291015625	111.81	7.4256167	-1.5957354	-6.405687	0.001783736	-0.00121562	-0.0006963876	-30.799995	11.100006	2.2000122	
1.88007804716041	0.0	0.0039532093351324835	-0.17651970000000014	8.943664799999999	1.4749201600000008	0.325213623046875	0.407427978515625	111.82000000000001	7.418434	-1.602918	-6.405687	0.0011728704	-0.00060475525	-0.0006963876	-30.799995	11.100006	2.2999878	
1.890078462304885	0.0	0.0032344440014720316	-0.1490610799999999	8.920128839999999	1.42392558	0.32514038085937497	0.407501220703125	111.83	7.41604	-1.6041151	-6.4008985	-4.8853457e-05	0.00061697606	-0.0006963876	-30.799995	11.100006	2.2999878	
1.9000788774493458	0.0	0.0014824535006746813	-0.13140910999999966	8.96131677	1.4200029200000004	0.325213623046875	0.40744628906249997	111.84	7.4208283	-1.5957354	-6.3889275	-0.0012705848	0.00061697606	0.00052534277	-30.799995	11.100006	2.2999878	
1.9100792925938208	0.0	0.0007187653336604515	-0.10198915999999965	8.96720076	1.5161080900000006	0.325177001953125	0.407501220703125	111.85000000000001	7.4268136	-1.5801731	-6.4008985	-0.0037140474	0.0012278408	-8.552242e-05	-30.799995	11.100006	2.2999878	
1.9200797077382958	0.0	0.00754703600343474	-0.15494507000000035	8.977007409999999	1.4984561200000004	0.32523193359374997	0.407501220703125	111.86	7.4232225	-1.5885528	-6.4068837	-0.0037140474	0.00061697606	0.0017470736	-30.799995	11.100006	2.2000122	
1.9300801228827567	0.0	0.016531602674190383	-0.17063570999999972	8.95151012	1.4827654799999999	0.325250244140625	0.407647705078125	111.87	7.443573	-1.5801731	-6.397307	-0.0037140474	-0.00060475525	0.002968804	-30.799995	11.100006	2.2000122	
1.9400805380272317	0.0	0.01886759000858685	-0.16475172000000035	8.97504608	1.451384199999999	0.3252685546875	0.407684326171875	111.88	7.443573	-1.6077064	-6.3913217	-0.0037140474	-0.00060475525	0.0035796687	-30.799995	11.100006	2.2000122	
1.9500809531717067	0.0	0.01940666400883219	-0.18828767999999993	8.998582039999999	1.4925721299999988	0.325286865234375	0.40770263671875	111.89	7.4507556	-1.6041151	-6.3721676	-0.0031031817	0.00061697606	0.0035796687	-30.799995	11.100006	2.2000122	
1.9600813683161675	0.0	0.013476850006133466	-0.17848102999999993	8.96720076	1.4984561200000004	0.325286865234375	0.407684326171875	111.9	7.441179	-1.6112977	-6.3745623	-0.002492316	0.0018387064	0.002968804	-30.799995	11.100006	2.2000122	
1.9700817834606426	0.0	0.018508207341756625	-0.17259703999999948	9.022117999999999	1.50237878	0.32530517578125	0.407647705078125	111.91	7.4351935	-1.6089035	-6.3781533	-0.002492316	0.0018387064	0.0017470736	-30.799995	11.100006	2.2000122	
1.9800821986051176	0.0	0.008849798170694308	-0.19417167000000038	9.020156669999999	1.5592573500000002	0.3252685546875	0.40762939453124997	111.92	7.429208	-1.5969325	-6.381745	-0.0012705848	0.0012278408	0.00052534277	-30.799995	11.100006	2.2000122	
1.9900826137495784	0.0	0.01563314600711482	-0.1470997500000001	9.03584731	1.4592295200000003	0.325250244140625	0.40755615234375	111.93	7.4363904	-1.5945383	-6.3913217	-4.8853457e-05	0.00061697606	-8.552242e-05	-30.799995	11.100006	2.2000122	
2.0000830288940534	0.0	0.01185962800539745	-0.1588677299999999	9.022117999999999	1.4827654799999999	0.325213623046875	0.407611083984375	111.94	7.4351935	-1.5981296	-6.4008985	0.00056200475	6.1104074e-06	-8.552242e-05	-30.799995	11.100006	2.2999878	
2.0100834440385285	0.0	0.019047281342001964	-0.15690640000000014	8.97504608	1.4455002099999996	0.325213623046875	0.407574462890625	111.95	7.4387846	-1.6065093	-6.408081	0.00056200475	-0.00060475525	-8.552242e-05	-30.799995	11.100006	2.2999878	
2.0200838591829893	0.0	0.021023886009568206	-0.12552512000000032	8.96720076	1.451384199999999	0.325213623046875	0.40755615234375	111.96000000000001	7.429208	-1.6053122	-6.3889275	0.00056200475	-0.00060475525	-0.0006963876	-30.799995	11.100006	2.2999878	
2.0300842743274643	0.0	0.022820799343719333	-0.15690640000000014	8.947587460000001	1.4827654799999999	0.325250244140625	0.407611083984375	111.97	7.4351935	-1.6005238	-6.3949127	0.00056200475	0.00061697606	-0.0006963876	-30.799995	11.100006	2.2999878	
2.0400846894719393	0.0	0.025606015011653584	-0.16475172000000035	8.95935544	1.4651135099999997	0.3252685546875	0.4075927734375	111.98	7.433996	-1.602918	-6.397307	-4.8853457e-05	0.00061697606	-8.552242e-05	-30.700005	11.100006	2.2999878	
2.0500851046164	0.0	0.02192234267664377	-0.1490610799999999	8.947587460000001	1.5396440500000002	0.3252685546875	0.4075927734375	111.99000000000001	7.430405	-1.5933412	-6.3805475	-0.0012705848	-0.00060475525	0.001136208	-30.700005	11.100006	2.2999878	
2.060085519760875	0.0	0.016082374340652603	-0.17259703999999948	8.97504608	1.52199208	0.3252685546875	0.40762939453124997	112.0	7.4375877	-1.5933412	-6.3949127	-0.002492316	-0.0024373503	0.001136208	-30.700005	11.199997	2.2000122	
2.07008593490535	0.0	0.026100166178545145	-0.1588677299999999	8.969162090000001	1.4749201600000008	0.32532348632812497	0.407647705078125	112.01	7.442376	-1.5957354	-6.3889275	-0.0012705848	-0.003048216	0.0017470736	-30.700005	11.199997	2.2000122	
2.080086350049811	0.0	0.01513899484022326	-0.19613300000000017	8.969162090000001	1.50237878	0.325286865234375	0.407684326171875	112.02	7.4483614	-1.5885528	-6.385336	-0.0012705848	-0.0024373503	0.001136208	-30.700005	11.100006	2.2000122	
2.090086765194286	0.0	0.015678068840468597	-0.17259703999999948	8.982891399999998	1.4866881399999994	0.32532348632812497	0.40777587890625	112.03	7.439982	-1.5957354	-6.38773	-0.0006597191	-0.0024373503	-8.552242e-05	-30.700005	11.100006	2.2000122	
2.100087180338761	0.0	0.009164258004170757	-0.17848102999999993	9.02407933	1.529837399999999	0.32537841796875	0.40777587890625	112.04	7.431602	-1.6005238	-6.39611	-0.0012705848	-0.0024373503	-8.552242e-05	-30.700005	11.199997	2.2000122	
2.110087595483222	0.0	0.010242406004661433	-0.18828767999999993	8.99073672	1.5376827200000005	0.325433349609375	0.407940673828125	112.05	7.433996	-1.5969325	-6.3913217	-0.0012705848	-0.0024373503	-8.552242e-05	-30.700005	11.199997	2.2000122	
2.120088010627697	0.0	0.01185962800539745	-0.17848102999999993	9.0025047	1.4376548900000006	0.32548828125	0.407940673828125	112.06	7.4327993	-1.6041151	-6.3913217	0.00056200475	-0.00060475525	-0.0006963876	-30.700005	11.100006	2.2999878	
2.130088425772172	0.0	0.021068808842921984	-0.17455837000000035	8.98877539	1.5004174500000003	0.32548828125	0.40808715820312497	112.07000000000001	7.430405	-1.5921441	-6.397307	0.0011728704	6.1104074e-06	-0.0006963876	-30.700005	11.100006	2.2999878	
2.1400888409166328	0.0	0.010242406004661433	-0.17848102999999993	8.998582039999999	1.44353888	0.3255615234375	0.40810546875	112.08	7.4268136	-1.5993267	-6.3901243	0.0011728704	-0.00060475525	-8.552242e-05	-30.700005	11.199997	2.2000122	
2.150089256061108	0.0	0.006918116336481845	-0.16475172000000035	8.977007409999999	1.5376827200000005	0.32548828125	0.408197021484375	112.09	7.4232225	-1.6041151	-6.4020953	0.00056200475	-0.00060475525	0.00052534277	-30.700005	11.199997	2.2000122	
2.160089671205583	0.0	-0.004312592001962709	-0.18044235999999972	8.97504608	1.5239534099999998	0.325543212890625	0.408251953125	112.10000000000001	7.422025	-1.5957354	-6.4020953	-4.8853457e-05	-0.00060475525	-8.552242e-05	-30.700005	11.199997	2.2999878	
2.1700900863500436	0.0	-0.010781480004906772	-0.16475172000000035	8.96720076	1.5317987299999989	0.325543212890625	0.40828857421875	112.11	7.431602	-1.6005238	-6.3925185	-0.0006597191	6.1104074e-06	0.00052534277	-30.700005	11.199997	2.2999878	
2.1800905014945187	0.0	0.005929814002698725	-0.18632635000000017	8.95935544	1.4788428200000003	0.325579833984375	0.408380126953125	112.12	7.4244194	-1.5933412	-6.4032927	-0.0006597191	0.00061697606	0.00052534277	-30.700005	11.199997	2.2000122	
2.1900909166389937	0.0	0.008580261170571639	-0.19613300000000017	8.95935544	1.4827654799999999	0.32567138671875	0.40850830078125	112.13	7.4088573	-1.5993267	-6.4032927	-0.0012705848	0.0012278408	0.00052534277	-30.700005	11.199997	2.2000122	
2.2000913317834545	0.0	0.005929814002698725	-0.17848102999999993	8.95151012	1.3984282900000005	0.325634765625	0.40845336914062497	112.14	7.418434	-1.5897499	-6.4044895	-0.0018814504	0.0012278408	0.001136208	-30.700005	11.199997	2.2000122	
2.2100917469279295	0.0	0.010467020171430325	-0.20397832000000038	8.99465938	1.4984561200000004	0.325726318359375	0.408563232421875	112.15	7.4351935	-1.5981296	-6.397307	-0.0012705848	0.0012278408	0.0023579383	-30.700005	11.199997	2.2000122	
2.2200921620724046	0.0	0.010781480004906772	-0.17259703999999948	8.97504608	1.4670748399999995	0.325799560546875	0.4086181640625	112.16	7.463924	-1.6136919	-6.4188547	-0.0012705848	0.00061697606	0.002968804	-30.700005	11.100006	2.2999878	
2.2300925772168654	0.0	0.011500245338567224	-0.18828767999999993	9.0025047	1.5317987299999989	0.32578124999999997	0.40865478515625	112.17	7.443573	-1.6077064	-6.362591	-0.0018814504	0.00061697606	0.0017470736	-30.700005	11.100006	2.2999878	
2.2400929923613404	0.0	0.016351911340775273	-0.17455837000000035	8.98877539	1.4749201600000008	0.325799560546875	0.408746337890625	112.18	7.41604	-1.5921441	-6.3697734	-0.0006597191	0.0030604368	0.001136208	-30.700005	11.100006	2.2999878	
2.2500934075058154	0.0	0.021562960009813545	-0.15494507000000035	8.97112342	1.5082627699999993	0.32587280273437497	0.40887451171875	112.19	7.4124484	-1.6089035	-6.3805475	-0.0012705848	0.0012278408	0.00052534277	-30.700005	11.100006	2.2999878	
2.2600938226502763	0.0	0.013566695672841023	-0.16475172000000035	8.95935544	1.4749201600000008	0.32589111328125	0.408892822265625	112.2	7.429208	-1.6005238	-6.3889275	-0.0012705848	-0.00121562	-8.552242e-05	-30.599998	11.100006	2.2999878	
2.2700942377947513	0.0	0.0090744123374632	-0.16475172000000035	8.97504608	1.4376548900000006	0.325927734375	0.409039306640625	112.21000000000001	7.4507556	-1.5957354	-6.3889275	-4.8853457e-05	-0.0036590807	-8.552242e-05	-30.599998	11.100006	2.2999878	
2.2800946529392263	0.0	-0.003054752668056919	-0.17259703999999948	8.96720076	1.4592295200000003	0.32596435546874997	0.40909423828124997	112.22	7.4507556	-1.5957354	-6.3889275	-4.8853457e-05	-0.0036590807	-8.552242e-05	-30.599998	11.100006	2.2000122	
2.290095068083687	0.0	-0.1421358447313543	-0.18632635000000017	8.984852729999998	1.4984561200000004	0.325982666015625	0.40909423828124997	112.23	7.439982	-1.5957354	-6.4068837	0.00056200475	-0.00060475525	-8.552242e-05	-30.599998	11.100006	2.2000122	
2.300095483228162	0.0	-0.12344794605618255	-0.1490610799999999	8.998582039999999	1.529837399999999	0.326019287109375	0.40909423828124997	112.24000000000001	7.439982	-1.5957354	-6.4068837	0.00056200475	6.1104074e-06	0.00052534277	-30.599998	11.100006	2.2000122	
2.310095898372637	0.0	0.5886688082679098	-0.18044235999999972	8.96720076	1.56121868	0.32607421875	0.409332275390625	112.25	7.4148426	-1.6005238	-6.38773	-4.8853457e-05	-0.00060475525	0.00052534277	-30.599998	11.100006	2.2000122	
2.320096313517098	0.0	1.3613415419528951	-0.18044235999999972	8.97896874	1.5102240999999992	0.32605590820312497	0.409332275390625	112.26	7.419631	-1.6101006	-6.405687	-0.0006597191	-0.00060475525	0.00052534277	-30.700005	11.100006	2.2999878	
2.330096728661573	0.0	0.6905537943142788	-0.2333982700000004	8.984852729999998	1.5376827200000005	0.32614746093749997	0.409405517578125	112.27	7.4363904	-1.6077064	-6.421249	-4.8853457e-05	6.1104074e-06	0.00052534277	-30.700005	11.100006	2.2999878	
2.340097143806048	0.0	0.10727572604882238	-0.18044235999999972	8.95151012	1.4474615399999995	0.326165771484375	0.4094970703125	112.28	7.441179	-1.6124948	-6.3889275	-4.8853457e-05	-0.00121562	0.001136208	-30.700005	11.100006	2.2000122	
2.350097558950509	0.0	-0.06235289269504417	-0.16475172000000035	8.97112342	1.4474615399999995	0.326202392578125	0.409515380859375	112.29	7.433996	-1.6017209	-6.384139	-0.0006597191	-0.0018264856	0.00052534277	-30.700005	11.100006	2.2000122	
2.360097974094984	0.0	-0.17178491474484792	-0.17259703999999948	8.96720076	1.4690361699999992	0.326202392578125	0.409625244140625	112.3	7.433996	-1.6017209	-6.384139	-0.0006597191	-0.00121562	-8.552242e-05	-30.700005	11.100006	2.2000122	
2.370098389239459	0.0	-0.1862500670847645	-0.18632635000000017	8.998582039999999	1.3827376500000002	0.326202392578125	0.409661865234375	112.31	7.422025	-1.6053122	-6.3925185	-0.0006597191	-0.00121562	0.00052534277	-30.700005	11.100006	2.2000122	
2.3800988043839197	0.0	-0.1996370714241904	-0.17848102999999993	8.96720076	1.4690361699999992	0.326312255859375	0.409698486328125	112.32000000000001	7.422025	-1.6053122	-6.3925185	-0.0012705848	-0.00060475525	0.00052534277	-30.700005	11.100006	2.100006	
2.3900992195283948	0.0	-0.19087711892020365	-0.1392544299999999	8.898554209999999	1.5004174500000003	0.32633056640624997	0.40986328125	112.33	7.4148426	-1.6065093	-6.4068837	0.00056200475	-0.0018264856	0.001136208	-30.700005	11.100006	2.100006	
2.40009963467287	0.0	-0.1911915787536801	-0.10787315000000008	8.88286357	1.36312435	0.32633056640624997	0.409844970703125	112.34	7.4256167	-1.5897499	-6.4044895	-0.0012705848	-0.003048216	0.0017470736	-30.700005	11.100006	2.100006	
2.4101000498173306	0.0	-0.1674723227428852	-0.17848102999999993	8.95151012	1.4906107999999991	0.326458740234375	0.409991455078125	112.35000000000001	7.4256167	-1.5993267	-6.4104753	-0.0012705848	-0.003048216	0.0017470736	-30.700005	11.100006	2.100006	
2.4201004649618056	0.0	-0.16513633540848874	-0.19613300000000017	8.963278099999998	1.5337600600000008	0.32642211914062497	0.41004638671875	112.36	7.4124484	-1.6089035	-6.3985043	-0.0012705848	-0.0018264856	0.00052534277	-30.799995	11.100006	2.100006	
2.4301008801062807	0.0	-0.1509407200686948	-0.20397832000000038	8.9044382	1.4768814900000005	0.32651367187499997	0.410064697265625	112.37	7.4124484	-1.6041151	-6.3985043	-0.0006597191	0.00061697606	-8.552242e-05	-30.799995	11.100006	2.100006	
2.4401012952507415	0.0	-0.15183917673577038	-0.20986230999999975	8.98681406	1.50237878	0.3265869140625	0.4102294921875	112.38	7.405266	-1.5849615	-6.4032927	-0.00072690845	0.0018081646	-0.0015943586	-30.799995	11.0	2.2000122	
2.4501017103952165	0.0	-0.1375986385626227	-0.20593965000000017	9.07115125	1.6102519299999989	0.3265869140625	0.41033935546875	112.39	7.41604	-1.5969325	-6.4224463	-0.00072690845	0.0024190303	-0.0015943586	-30.799995	11.0	2.2000122	
2.4601021255396915	0.0	-0.13638572206207067	-0.24908890999999977	9.12606849	1.6082905999999992	0.3265869140625	0.410357666015625	112.4	7.428011	-1.5969325	-6.4044895	-0.00011604279	0.0024190303	-0.00037262822	-30.799995	11.0	2.2999878	
2.4701025406841524	0.0	-0.1295125285589426	-0.19613300000000017	9.077035239999999	1.5455280399999995	0.32662353515625	0.41041259765625	112.41	7.4447703	-1.6077064	-6.4128695	-0.00072690845	0.003029895	0.00023823697	-30.799995	11.0	2.2999878	
2.4801029558286274	0.0	-0.13440911739450442	-0.13337043999999945	9.06526726	1.5004174500000003	0.326715087890625	0.410540771484375	112.42	7.4507556	-1.614889	-6.3925185	0.0011056811	0.004251626	0.0014599673	-30.799995	11.0	2.2000122	
2.4901033709731024	0.0	-0.12389717438972032	-0.1490610799999999	9.061344599999998	1.4592295200000003	0.326715087890625	0.410577392578125	112.43	7.4447703	-1.614889	-6.3745623	-0.00011604279	0.0036407607	0.002070833	-30.799995	11.0	2.2000122	
2.5001037861175632	0.0	-0.12488547672350345	-0.16475172000000035	8.998582039999999	1.4278482399999994	0.32666015625	0.41046752929687497	112.44	7.4256167	-1.5957354	-6.3913217	-0.0013377741	0.003029895	0.0008491026	-30.799995	11.0	2.2999878	
2.5101042012620383	0.0	-0.11657475255305448	-0.1922103399999995	8.955432779999999	1.5004174500000003	0.32655029296875	0.41019287109374997	112.45	7.4363904	-1.5885528	-6.3889275	-0.0019486398	0.0018081646	0.0008491026	-30.799995	11.0	2.2999878	
2.5201046164065133	0.0	-0.09757239404440629	-0.1922103399999995	8.982891399999998	1.4356935600000007	0.3264404296875	0.40991821289062497	112.46000000000001	7.442376	-1.5897499	-6.399701	-0.00072690845	-0.0030787569	0.0008491026	-30.799995	11.0	2.2999878	
2.530105031550974	0.0	-0.0711577680323847	-0.18632635000000017	8.95739411	1.372930999999999	0.32625732421875	0.409515380859375	112.47	7.442376	-1.5897499	-6.399701	-0.00011604279	-0.0030787569	0.002070833	-30.799995	11.0	2.2999878	
2.540105446695449	0.0	-0.06720455869725221	-0.19024900999999972	8.89070889	1.353317699999999	0.32614746093749997	0.409222412109375	112.48	7.4327993	-1.5921441	-6.3949127	-0.00072690845	-0.0024678921	0.002070833	-30.799995	11.0	2.2999878	
2.550105861839924	0.0	-0.0544464740247792	-0.16867437999999993	8.88874756	1.470997499999999	0.326019287109375	0.408892822265625	112.49000000000001	7.441179	-1.5993267	-6.4044895	-0.00011604279	-0.0006352961	0.002070833	-30.799995	11.0	2.2999878	
2.560106276984385	0.0	-0.04258684601938175	-0.18828767999999993	8.841675639999998	1.3905829699999992	0.325909423828125	0.4087646484375	112.5	7.4387846	-1.6017209	-6.4008985	-0.00011604279	0.0011972999	0.00023823697	-30.700005	10.899994	2.2999878	
2.57010669212886	0.0	-0.020799271842799314	-0.20397832000000038	8.88874756	1.4356935600000007	0.325909423828125	0.408673095703125	112.51	7.430405	-1.614889	-6.3949127	-0.00011604279	0.0011972999	-0.00037262822	-30.700005	10.899994	2.2999878	
2.580107107273335	0.0	-0.006154428169467616	-0.21966895999999975	8.96720076	1.4788428200000003	0.325927734375	0.40858154296875	112.52	7.429208	-1.6101006	-6.393716	0.0004948154	0.0011972999	-0.0022052238	-30.700005	10.899994	2.2999878	
2.590107522417796	0.0	-0.014914380673454368	-0.20397832000000038	8.96720076	1.4670748399999995	0.325909423828125	0.40854492187499997	112.53	7.428011	-1.6101006	-6.3865333	0.0004948154	0.0011972999	-0.0034269544	-30.700005	10.899994	2.2999878	
2.600107937562271	0.0	-0.02924476451330962	-0.19417167000000038	9.01427268	1.5533733600000008	0.32581787109375	0.40843505859375	112.54	7.431602	-1.614889	-6.3985043	0.0011056811	-2.4431385e-05	-0.00403782	-30.700005	10.899994	2.2999878	
2.610108352706746	0.0	-0.01666637117425172	-0.23928225999999977	9.018195339999998	1.4670748399999995	0.325836181640625	0.40845336914062497	112.55	7.4124484	-1.6184803	-6.3901243	0.0017165467	-2.4431385e-05	-0.00403782	-30.700005	10.899994	2.2999878	
2.6201087678512067	0.0	-0.015453454673699707	-0.2255529500000002	9.020156669999999	1.5043401099999998	0.325927734375	0.40843505859375	112.56	7.4148426	-1.6101006	-6.4032927	0.0011056811	0.00058643427	-0.00403782	-30.700005	10.899994	2.2999878	
2.6301091829956817	0.0	-0.02174265134322866	-0.19613300000000017	9.06918992	1.3415497200000002	0.32589111328125	0.40843505859375	112.57000000000001	7.4148426	-1.602918	-6.408081	0.0017165467	0.0011972999	-0.002816089	-30.700005	10.899994	2.2999878	
2.6401095981401426	0.0	-0.027402928345804715	-0.21182363999999954	9.02407933	1.4984561200000004	0.32589111328125	0.40843505859375	112.58	7.41604	-1.6041151	-6.409278	0.0011056811	0.0011972999	-0.0022052238	-30.700005	10.899994	2.2999878	
2.6501100132846176	0.0	-0.008265801337095192	-0.19613300000000017	8.88090224	1.529837399999999	0.3258544921875	0.4084716796875	112.59	7.4124484	-1.5933412	-6.4188547	0.0004948154	0.0018081646	-0.0015943586	-30.700005	10.899994	2.2999878	
2.6601104284290926	0.0	-0.01990081517572375	-0.2020169899999995	8.87305692	1.451384199999999	0.325927734375	0.408489990234375	112.60000000000001	7.422025	-1.6208745	-6.409278	-0.00072690845	0.0024190303	-0.0015943586	-30.700005	10.899994	2.399994	
2.6701108435735534	0.0	-0.011320554005152111	-0.21966895999999975	8.99073672	1.394505630000001	0.32596435546874997	0.4083984375	112.61	7.418434	-1.5921441	-6.4104753	-0.0025595054	0.00058643427	-0.00037262822	-30.700005	10.899994	2.399994	
2.6801112587180285	0.0	0.001437530667320903	-0.19024900999999972	9.01035002	1.5788706500000003	0.32587280273437497	0.408489990234375	112.62	7.4232225	-1.578976	-6.399701	-0.0037812367	-2.4431385e-05	-0.00037262822	-30.700005	10.899994	2.2999878	
2.6901116738625035	0.0	0.00017969133341511287	-0.18632635000000017	8.943664799999999	1.5082627699999993	0.325946044921875	0.40854492187499997	112.63	7.4327993	-1.5981296	-6.409278	-0.0037812367	-2.4431385e-05	0.00023823697	-30.700005	10.899994	2.2999878	
2.7001120890069643	0.0	0.0012578393339057901	-0.19024900999999972	8.943664799999999	1.3905829699999992	0.325982666015625	0.408599853515625	112.64	7.445967	-1.5957354	-6.4044895	-0.0037812367	0.0011972999	0.0008491026	-30.700005	10.899994	2.2999878	
2.7101125041514393	0.0	0.0019766046675662417	-0.19024900999999972	9.022117999999999	1.4533455300000009	0.32603759765625	0.40865478515625	112.65	7.445967	-1.6112977	-6.3925185	-0.0037812367	0.0018081646	0.0014599673	-30.700005	10.899994	2.2999878	
2.7201129192959144	0.0	-0.0034141353348871445	-0.18044235999999972	8.945626129999999	1.5847546399999997	0.326019287109375	0.408709716796875	112.66	7.4375877	-1.6101006	-6.3769565	-0.003170371	0.0024190303	0.0014599673	-30.700005	10.899994	2.2999878	
2.730113334440375	0.0	0.013117467339303239	-0.2432049200000004	8.984852729999998	1.56121868	0.32605590820312497	0.408709716796875	112.67	7.4244194	-1.6053122	-6.3865333	-0.0025595054	0.003029895	0.00023823697	-30.700005	10.899994	2.2999878	
2.74011374958485	0.0	0.010242406004661433	-0.23732092999999999	9.00642736	1.4984561200000004	0.32603759765625	0.408746337890625	112.68	7.422025	-1.614889	-6.3901243	-0.0037812367	0.0018081646	0.00023823697	-30.700005	10.899994	2.2999878	
2.7501141647293252	0.0	0.004312592001962709	-0.2588955599999998	9.02800199	1.5533733600000008	0.32603759765625	0.40872802734374997	112.69	7.431602	-1.6112977	-6.38773	-0.0013377741	-2.4431385e-05	-0.00037262822	-30.700005	10.899994	2.2999878	
2.760114579873786	0.0	0.00202152750092002	-0.2588955599999998	9.04957662	1.5063014399999994	0.32603759765625	0.40872802734374997	112.7	7.4351935	-1.6005238	-6.3913217	-0.00072690845	-0.0006352961	0.00023823697	-30.700005	10.899994	2.2999878	
2.770114995018261	0.0	0.01963127817560108	-0.2235916200000004	9.067228590000001	1.4847268099999997	0.325982666015625	0.40869140625	112.71000000000001	7.429208	-1.5981296	-6.399701	0.0004948154	-0.0006352961	-0.00037262822	-30.700005	10.899994	2.2999878	
2.780115410162736	0.0	0.014195615339793917	-0.20397832000000038	8.98877539	1.470997499999999	0.325982666015625	0.408599853515625	112.72	7.4327993	-1.6136919	-6.405687	0.0004948154	0.00058643427	-0.00037262822	-30.700005	10.899994	2.2999878	
2.790115825307197	0.0	0.019316818342124634	-0.16279038999999948	8.93778081	1.4749201600000008	0.32596435546874997	0.408599853515625	112.73	7.443573	-1.6089035	-6.4128695	0.0004948154	0.00058643427	-0.00037262822	-30.700005	10.899994	2.2999878	
2.800116240451672	0.0	0.013117467339303239	-0.18044235999999972	8.93778081	1.5082627699999993	0.32603759765625	0.408599853515625	112.74000000000001	7.428011	-1.602918	-6.38773	-0.00072690845	-2.4431385e-05	-0.0009834934	-30.700005	10.899994	2.2999878	
2.810116655596147	0.0	0.018508207341756625	-0.19613300000000017	8.95151012	1.4592295200000003	0.3260009765625	0.408599853515625	112.75	7.4268136	-1.5885528	-6.408081	-0.00072690845	-2.4431385e-05	-0.00037262822	-30.700005	10.899994	2.2999878	
2.820117070740608	0.0	0.017789442008096176	-0.17848102999999993	8.95151012	1.4984561200000004	0.325982666015625	0.40858154296875	112.76	7.428011	-1.5969325	-6.397307	-0.0019486398	-0.0006352961	-0.0009834934	-30.700005	11.0	2.2000122	
2.830117485885083	0.0	0.012982698839241904	-0.1922103399999995	8.95347145	1.4945334600000009	0.326019287109375	0.40865478515625	112.77	7.4268136	-1.5957354	-6.3913217	-0.0013377741	-0.0006352961	-0.00037262822	-30.700005	11.0	2.2000122	
2.840117901029558	0.0	0.003054752668056919	-0.22751427999999996	8.95935544	1.4906107999999991	0.326019287109375	0.408673095703125	112.78	7.4256167	-1.5945383	-6.4008985	-0.0013377741	-0.0012461618	-0.00037262822	-30.700005	11.0	2.2000122	
2.8501183161740187	0.0	0.012578393339057902	-0.21574630000000017	8.95935544	1.529837399999999	0.32605590820312497	0.408709716796875	112.79	7.4244194	-1.5957354	-6.4044895	-0.0013377741	-0.0006352961	-0.00037262822	-30.700005	11.0	2.2000122	
2.8601187313184937	0.0	0.013476850006133466	-0.25693423	9.01427268	1.52003075	0.3260009765625	0.408709716796875	112.8	7.4363904	-1.6077064	-6.4044895	-0.00072690845	-2.4431385e-05	-0.00037262822	-30.700005	11.0	2.2000122	
2.8701191464629687	0.0	0.017430059341265947	-0.18044235999999972	8.95935544	1.4866881399999994	0.326092529296875	0.408856201171875	112.81	7.4268136	-1.6065093	-6.4020953	-0.00011604279	-2.4431385e-05	-0.0009834934	-30.700005	11.0	2.2000122	
2.8801195616074295	0.0	-0.00808611000368008	-0.24124358999999954	9.018195339999998	1.5671026699999993	0.32611083984375	0.408856201171875	112.82000000000001	7.4232225	-1.6005238	-6.4008985	-0.00011604279	0.0011972999	-0.0009834934	-30.700005	11.0	2.2000122	
2.8901199767519046	0.0	-0.003908286501778705	-0.19024900999999972	9.000543369999999	1.54160538	0.326165771484375	0.40894775390625	112.83	7.4232225	-1.6172832	-6.4032927	-0.00072690845	0.00058643427	-0.0015943586	-30.700005	11.0	2.2000122	
2.9001203918963796	0.0	0.001437530667320903	-0.21182363999999954	9.00642736	1.514146760000001	0.326165771484375	0.4090576171875	112.84	7.4256167	-1.6077064	-6.409278	0.0004948154	0.0011972999	-0.0015943586	-30.700005	11.0	2.2999878	
2.9101208070408404	0.0	0.005570431335868499	-0.21966895999999975	9.02407933	1.470997499999999	0.326202392578125	0.408984375	112.85000000000001	7.4256167	-1.6101006	-6.4044895	0.0004948154	0.0011972999	-0.0015943586	-30.700005	11.0	2.2999878	
2.9201212221853154	0.0	0.001437530667320903	-0.22163028999999954	9.01427268	1.4376548900000006	0.326220703125	0.40918579101562497	112.86	7.4232225	-1.6041151	-6.4104753	-0.00011604279	0.00058643427	-0.0009834934	-30.700005	11.0	2.2000122	
2.9301216373297905	0.0	0.006109505336113838	-0.20986230999999975	8.99073672	1.4670748399999995	0.326202392578125	0.40916748046875	112.87	7.419631	-1.6077064	-6.39611	-0.00011604279	0.00058643427	-0.0009834934	-30.700005	11.0	2.2000122	
2.9401220524742513	0.0	0.023359873343964672	-0.20790097999999996	8.97504608	1.52199208	0.32625732421875	0.409259033203125	112.88	7.4208283	-1.5993267	-6.4104753	-0.00011604279	0.00058643427	-0.00037262822	-30.700005	11.0	2.2000122	
2.9501224676187263	0.0	0.015722991673822375	-0.2020169899999995	8.955432779999999	1.4847268099999997	0.326312255859375	0.409332275390625	112.89	7.41604	-1.5957354	-6.405687	-0.0019486398	0.00058643427	0.00023823697	-30.700005	11.0	2.2000122	
2.9601228827632013	0.0	0.012758084672473014	-0.19613300000000017	8.96131677	1.4749201600000008	0.326348876953125	0.40938720703125	112.9	7.4148426	-1.6005238	-6.4044895	-0.003170371	0.0011972999	0.0014599673	-30.599998	11.0	2.2999878	
2.970123297907662	0.0	0.01922697267541708	-0.19613300000000017	8.977007409999999	1.4925721299999988	0.32640380859375	0.409442138671875	112.91	7.419631	-1.6005238	-6.4032927	-0.0025595054	0.00058643427	0.00023823697	-30.599998	11.0	2.2999878	
2.980123713052137	0.0	0.023359873343964672	-0.21182363999999954	8.95739411	1.4631521799999998	0.3264404296875	0.40955200195312497	112.92	7.419631	-1.6017209	-6.397307	-0.0025595054	0.0011972999	0.0008491026	-30.599998	11.0	2.2999878	
2.990124128196612	0.0	0.02767246534592738	-0.1922103399999995	8.92797416	1.451384199999999	0.32642211914062497	0.409625244140625	112.93	7.4232225	-1.6053122	-6.4104753	-0.0019486398	0.0011972999	0.0008491026	-30.599998	11.0	2.2999878	
3.000124543341073	0.0	0.014914380673454368	-0.19024900999999972	8.943664799999999	1.4788428200000003	0.32647705078125	0.40960693359375	112.94	7.4351935	-1.5981296	-6.3949127	-0.0013377741	0.00058643427	-0.00037262822	-30.599998	11.0	2.2999878	
3.010124958485548	0.0	0.01082640283826055	-0.19613300000000017	8.96720076	1.4925721299999988	0.32647705078125	0.40968017578125	112.95	7.4387846	-1.5957354	-6.4032927	-0.0025595054	0.0011972999	-0.0009834934	-30.599998	11.0	2.2999878	
3.020125373630023	0.0	-0.17376151941241413	-0.18044235999999972	9.01427268	1.4631521799999998	0.326458740234375	0.409771728515625	112.96000000000001	7.4387846	-1.5993267	-6.3889275	-0.0019486398	0.0011972999	-0.0015943586	-30.599998	11.0	2.2999878	
3.030125788774484	0.0	-0.10296313404685968	-0.20790097999999996	8.977007409999999	1.451384199999999	0.326531982421875	0.40986328125	112.97	7.441179	-1.5933412	-6.3901243	-0.00072690845	0.0018081646	-0.0009834934	-30.599998	11.0	2.2999878	
3.040126203918959	0.0	0.7437424290051522	-0.18828767999999993	8.96720076	1.4827654799999999	0.32647705078125	0.40982666015624997	112.98	7.4375877	-1.5981296	-6.393716	0.0004948154	0.0011972999	-0.0009834934	-30.599998	11.100006	2.2000122	
3.050126619063434	0.0	1.394404747301276	-0.21182363999999954	8.99073672	1.529837399999999	0.32660522460937497	0.40989990234375	112.99000000000001	7.4351935	-1.5981296	-6.3913217	0.0004948154	0.00058643427	-0.0022052238	-30.599998	11.100006	2.2000122	
3.060127034207895	0.0	0.5752818039284838	-0.20593965000000017	8.96720076	1.5690639999999991	0.32655029296875	0.409991455078125	113.0	7.4351935	-1.6005238	-6.393716	0.0004948154	-2.4431385e-05	-0.0022052238	-30.599998	11.100006	2.100006	
3.07012744935237	0.0	0.10170529471295389	-0.20005565999999972	8.98681406	1.451384199999999	0.32660522460937497	0.410064697265625	113.01	7.4327993	-1.6089035	-6.4008985	0.0004948154	-2.4431385e-05	-0.0015943586	-30.599998	11.100006	2.100006	
3.080127864496845	0.0	-0.07439221203385674	-0.20397832000000038	9.022117999999999	1.52199208	0.326641845703125	0.410174560546875	113.02	7.4256167	-1.5957354	-6.399701	0.0004948154	0.00058643427	-0.0022052238	-30.599998	11.100006	2.100006	
3.0901282796413057	0.0	-0.17879287674803732	-0.18044235999999972	9.000543369999999	1.4611908500000002	0.326751708984375	0.41015625	113.03	7.4256167	-1.5993267	-6.4044895	-0.00072690845	-0.0006352961	-0.0015943586	-30.599998	11.100006	2.100006	
3.1001286947857807	0.0	-0.19514478808881258	-0.20593965000000017	8.96720076	1.3572403600000007	0.326715087890625	0.410247802734375	113.04	7.4208283	-1.5993267	-6.397307	-0.0019486398	-0.0006352961	-0.0022052238	-30.599998	11.100006	2.100006	
3.1101291099302557	0.0	-0.20695949326085625	-0.1392544299999999	8.93974214	1.4474615399999995	0.3267333984375	0.41026611328125	113.05	7.4244194	-1.614889	-6.3925185	-0.0025595054	-0.0012461618	-0.00037262822	-30.599998	11.100006	2.100006	
3.1201295250747165	0.0	-0.20610595942713447	-0.1176798000000001	8.857366279999999	1.4278482399999994	0.32677001953125	0.410302734375	113.06	7.4327993	-1.6053122	-6.4032927	-0.0019486398	-0.0018570265	0.0008491026	-30.599998	11.100006	2.100006	
3.1301299402191916	0.0	-0.19703154708967127	-0.13337043999999945	8.841675639999998	1.335665730000001	0.326806640625	0.41044921875	113.07000000000001	7.4232225	-1.5969325	-6.4068837	-0.0025595054	-0.0018570265	0.00023823697	-30.599998	11.100006	2.100006	
3.1401303553636666	0.0	-0.17731042324736263	-0.19613300000000017	8.93581948	1.4356935600000007	0.326824951171875	0.410504150390625	113.08	7.405266	-1.6077064	-6.4020953	-0.003170371	-0.0018570265	-0.00037262822	-30.599998	11.100006	2.100006	
3.1501307705081274	0.0	-0.1689098534102061	-0.21574630000000017	8.93581948	1.4082349399999994	0.326824951171875	0.410614013671875	113.09	7.4004774	-1.614889	-6.409278	-0.0019486398	-0.0006352961	-0.002816089	-30.599998	11.100006	2.100006	
3.1601311856526024	0.0	-0.15740960807163887	-0.20986230999999975	8.89070889	1.451384199999999	0.326898193359375	0.4106689453125	113.10000000000001	7.3992805	-1.6005238	-6.417658	-0.0013377741	0.00058643427	-0.0034269544	-30.599998	11.100006	2.100006	
3.1701316007970775	0.0	-0.1450109060659961	-0.2588955599999998	9.000543369999999	1.4847268099999997	0.327008056640625	0.41077880859375	113.11	7.3968863	-1.6065093	-6.4224463	0.0004948154	0.0011972999	-0.00403782	-30.599998	11.100006	2.100006	
3.1801320159415383	0.0	-0.14999734056826547	-0.23928225999999977	9.06918992	1.529837399999999	0.326953125	0.41083374023437497	113.12	7.4244194	-1.5933412	-6.4140663	0.0004948154	0.003029895	-0.0034269544	-30.700005	11.100006	2.100006	
3.1901324310860133	0.0	-0.14770627606722278	-0.16475172000000035	9.05153795	1.5827933099999998	0.327099609375	0.41092529296874997	113.13	7.4495587	-1.6053122	-6.4140663	0.0017165467	0.004862491	-0.0022052238	-30.700005	11.100006	2.100006	
3.2001328462304883	0.0	-0.13369035206084398	-0.17259703999999948	9.08880322	1.52003075	0.327117919921875	0.41101684570312497	113.14	7.4567413	-1.6196774	-6.3985043	0.0011056811	0.005473356	0.00023823697	-30.700005	11.0	2.0	
3.210133261374949	0.0	-0.1276706923914377	-0.09414384000000052	9.06918992	1.4396162200000002	0.32713623046875	0.41107177734375	113.15	7.4483614	-1.6196774	-6.393716	-0.00072690845	0.0060842214	0.0008491026	-30.700005	11.0	2.0	
3.220133676519424	0.0	-0.1297371427257115	-0.15690640000000014	9.04957662	1.4101962699999993	0.32715454101562497	0.41107177734375	113.16	7.4268136	-1.6077064	-6.364985	-0.0013377741	0.004251626	-0.00037262822	-30.700005	11.100006	2.0	
3.230134091663899	0.0	-0.12124672722184741	-0.2353596000000002	9.03780864	1.5004174500000003	0.3270263671875	0.410943603515625	113.17	7.417237	-1.5921441	-6.3865333	-0.0019486398	0.0011972999	0.00023823697	-30.700005	11.100006	2.0	
3.24013450680836	0.0	-0.11805720605372916	-0.20986230999999975	8.97112342	1.4729588299999987	0.326953125	0.410595703125	113.18	7.430405	-1.5933412	-6.393716	-0.0013377741	-0.0018570265	-0.00037262822	-30.700005	11.0	2.0	
3.250134921952835	0.0	-0.10493973871442591	-0.2137849700000004	8.95151012	1.4356935600000007	0.326715087890625	0.410321044921875	113.19	7.4447703	-1.590947	-6.409278	-0.0013377741	-0.0036896225	0.00023823697	-30.700005	11.0	2.0	
3.26013533709731	0.0	-0.10260375138002945	-0.22163028999999954	8.91032219	1.4298095699999993	0.3265869140625	0.40991821289062497	113.2	7.4351935	-1.5849615	-6.408081	-0.00072690845	-0.004300488	0.0014599673	-30.700005	11.100006	2.0	
3.270135752241771	0.0	-0.07223591603287538	-0.22163028999999954	8.89463155	1.4572681900000006	0.32651367187499997	0.4095703125	113.21000000000001	7.4351935	-1.5981296	-6.4032927	-0.00011604279	-0.0030787569	0.0014599673	-30.700005	11.100006	2.0	
3.280136167386246	0.0	-0.05152648985678362	-0.2020169899999995	8.91032219	1.3886216399999993	0.326385498046875	0.4093505859375	113.22	7.4244194	-1.6089035	-6.405687	-0.00072690845	-2.4431385e-05	0.0014599673	-30.700005	11.100006	2.0	
3.290136582530721	0.0	-0.034680427349116784	-0.20986230999999975	8.920128839999999	1.4278482399999994	0.326348876953125	0.40924072265625	113.23	7.4351935	-1.6077064	-6.4044895	0.0004948154	0.003029895	0.0008491026	-30.700005	11.100006	2.0	
3.3001369976751818	0.0	-0.024033715844271348	-0.20593965000000017	8.982891399999998	1.4356935600000007	0.326348876953125	0.40909423828124997	113.24000000000001	7.431602	-1.6112977	-6.393716	0.0004948154	0.0018081646	-0.0015943586	-30.700005	11.100006	2.0	
3.310137412819657	0.0	-0.022236802510120217	-0.18828767999999993	8.95151012	1.4356935600000007	0.3262939453125	0.409130859375	113.25	7.4268136	-1.6136919	-6.405687	0.0011056811	0.0024190303	-0.0022052238	-30.700005	11.100006	2.0	
3.320137827964132	0.0	-0.025830629178422475	-0.19417167000000038	8.98681406	1.4160802600000006	0.326275634765625	0.408984375	113.26	7.418434	-1.6112977	-6.4032927	0.0017165467	0.0018081646	-0.00403782	-30.700005	11.100006	2.0	
3.3301382431085926	0.0	-0.01886759000858685	-0.20397832000000038	8.99465938	1.451384199999999	0.326312255859375	0.408929443359375	113.27	7.418434	-1.6112977	-6.4032927	0.002938278	0.0024190303	-0.0058704154	-30.700005	11.100006	2.0	
3.3401386582530677	0.0	-0.022596185176950445	-0.18632635000000017	9.00838869	1.4729588299999987	0.326202392578125	0.408929443359375	113.28	7.4148426	-1.5993267	-6.4020953	0.002938278	0.0024190303	-0.0058704154	-30.700005	11.100006	1.8999939	
3.3501390733975427	0.0	-0.015273763340284595	-0.19024900999999972	9.022117999999999	1.470997499999999	0.3262939453125	0.40894775390625	113.29	7.4124484	-1.5945383	-6.4020953	0.0035491437	0.003029895	-0.0058704154	-30.700005	11.100006	1.8999939	
3.3601394885420035	0.0	-0.013207313006010796	-0.2020169899999995	9.04761529	1.3964669600000008	0.32623901367187497	0.408856201171875	113.3	7.406463	-1.6065093	-6.4152637	0.0023274124	0.004251626	-0.00525955	-30.700005	11.100006	2.0	
3.3701399036864785	0.0	-0.009658409171062317	-0.18632635000000017	9.039769969999998	1.372930999999999	0.3262939453125	0.40887451171875	113.31	7.406463	-1.6065093	-6.4152637	0.0017165467	0.004251626	-0.0034269544	-30.700005	11.100006	2.0	
3.3801403188309536	0.0	-0.012892853172534349	-0.14513842000000035	8.91032219	1.5082627699999993	0.326202392578125	0.40880126953125	113.32000000000001	7.418434	-1.5993267	-6.4308257	-0.00011604279	0.003029895	-0.002816089	-30.700005	11.0	2.0	
3.3901407339754144	0.0	-0.01060178867149166	-0.1490610799999999	8.841675639999998	1.4690361699999992	0.32623901367187497	0.408856201171875	113.33	7.4244194	-1.5981296	-6.4128695	-0.0019486398	0.0018081646	-0.0015943586	-30.700005	11.0	2.0	
3.4001411491198894	0.0	-0.012398702005642788	-0.22163028999999954	9.00642736	1.394505630000001	0.326275634765625	0.408892822265625	113.34	7.428011	-1.6005238	-6.4008985	-0.0025595054	0.0018081646	0.00023823697	-30.700005	11.100006	2.0	
3.4101415642643644	0.0	-0.008625184003925418	-0.16475172000000035	8.99073672	1.5063014399999994	0.326220703125	0.408837890625	113.35000000000001	7.4208283	-1.5933412	-6.3949127	-0.0037812367	0.0018081646	0.00023823697	-30.700005	11.100006	2.0	
3.4201419794088253	0.0	-0.00035938266683022574	-0.1490610799999999	8.982891399999998	1.42196425	0.32625732421875	0.40894775390625	113.36	7.4244194	-1.5849615	-6.3985043	-0.0043921024	0.0018081646	-0.00037262822	-30.700005	11.100006	2.0	
3.4301423945533003	0.0	-0.002066450334273798	-0.15690640000000014	8.92993549	1.3827376500000002	0.32623901367187497	0.408856201171875	113.37	7.441179	-1.5993267	-6.4044895	-0.0037812367	0.0018081646	0.0008491026	-30.700005	11.100006	2.0	
3.4401428096977753	0.0	0.0012578393339057901	-0.18044235999999972	8.99269805	1.4592295200000003	0.3262939453125	0.409039306640625	113.38	7.4471645	-1.6041151	-6.3925185	-0.0025595054	0.0011972999	0.0008491026	-30.700005	11.100006	2.0	
3.450143224842236	0.0	0.007187653336604515	-0.19613300000000017	8.99073672	1.5004174500000003	0.32625732421875	0.40902099609375	113.39	7.4507556	-1.6196774	-6.3793507	-0.0019486398	0.0024190303	-0.00037262822	-30.700005	11.100006	2.0	
3.460143639986711	0.0	0.0019766046675662417	-0.21182363999999954	9.02996332	1.4906107999999991	0.32633056640624997	0.40902099609375	113.4	7.431602	-1.6077064	-6.3829417	-0.0013377741	0.0036407607	-0.0009834934	-30.700005	11.100006	2.0	
3.470144055131186	0.0	0.006468888002944063	-0.2353596000000002	9.039769969999998	1.5121854299999988	0.32633056640624997	0.409075927734375	113.41	7.431602	-1.6077064	-6.3829417	-0.0013377741	0.00058643427	-0.002816089	-30.700005	11.100006	2.0	
3.480144470275647	0.0	0.008759952503986753	-0.20397832000000038	9.03192465	1.451384199999999	0.326348876953125	0.409039306640625	113.42	7.4256167	-1.6005238	-6.3889275	-0.00072690845	-0.0006352961	-0.002816089	-30.700005	11.100006	2.100006	
3.490144885420122	0.0	0.007906418670264967	-0.2020169899999995	9.039769969999998	1.4533455300000009	0.326312255859375	0.4090576171875	113.43	7.4256167	-1.5921441	-6.397307	0.0011545345	-0.00078190677	-0.002535091	-30.700005	11.100006	2.100006	
3.500145300564597	0.0	0.007367344670019628	-0.20397832000000038	9.018195339999998	1.4553068600000008	0.3262939453125	0.40894775390625	113.44	7.4327993	-1.590947	-6.4008985	0.0011545345	-0.00017104112	-0.0013133604	-30.700005	11.0	2.100006	
3.510145715709058	0.0	0.01060178867149166	-0.17063570999999972	8.984852729999998	1.42196425	0.326220703125	0.40902099609375	113.45	7.429208	-1.602918	-6.4104753	0.00054366887	-0.00017104112	-0.0007024952	-30.700005	11.0	2.100006	
3.520146130853533	0.0	0.012263933505581453	-0.1294477799999999	8.93778081	1.4200029200000004	0.326275634765625	0.40891113281249997	113.46000000000001	7.4244194	-1.6041151	-6.405687	-6.7189336e-05	-0.00017104112	-0.0007024952	-30.700005	11.0	2.2000122	
3.530146545998008	0.0	0.022730953677011778	-0.1608290599999997	8.943664799999999	1.4455002099999996	0.326220703125	0.40900268554687497	113.47	7.4268136	-1.6017209	-6.408081	-0.0012889206	-0.00078190677	-9.1630034e-05	-30.700005	11.0	2.2000122	
3.5401469611424687	0.0	0.010646711504845438	-0.19417167000000038	8.96720076	1.4749201600000008	0.326220703125	0.408892822265625	113.48	7.4363904	-1.5957354	-6.3925185	-0.000678055	-0.0020036371	0.00051923515	-30.700005	11.0	2.2000122	
3.5501473762869438	0.0	0.006828270669774289	-0.15494507000000035	8.941703469999998	1.44353888	0.32623901367187497	0.40894775390625	113.49000000000001	7.431602	-1.602918	-6.397307	-0.0012889206	-0.0026145019	-9.1630034e-05	-30.700005	11.0	2.2000122	
3.560147791431419	0.0	0.006648579336359177	-0.18436502000000038	8.922090169999999	1.52199208	0.32625732421875	0.408966064453125	113.5	7.4327993	-1.5981296	-6.3985043	-0.0018997863	-0.0026145019	-9.1630034e-05	-30.700005	11.0	2.2000122	
3.5701482065758796	0.0	0.01509407200686948	-0.22751427999999996	8.998582039999999	1.4847268099999997	0.326275634765625	0.409039306640625	113.51	7.4232225	-1.5969325	-6.3865333	-0.0018997863	-0.0020036371	-0.0013133604	-30.700005	11.0	2.2000122	
3.5801486217203546	0.0	0.011140862671736997	-0.21770762999999996	8.998582039999999	1.4200029200000004	0.326275634765625	0.409075927734375	113.52	7.431602	-1.6112977	-6.3949127	-0.000678055	-0.0020036371	-0.0013133604	-30.700005	11.0	2.2999878	
3.5901490368648297	0.0	0.011140862671736997	-0.1490610799999999	8.96720076	1.44157755	0.3262939453125	0.4090576171875	113.53	7.41604	-1.614889	-6.399701	0.00054366887	-0.00078190677	-0.0013133604	-30.700005	11.0	2.2999878	
3.6001494520092905	0.0	0.004132900668547596	-0.17455837000000035	8.982891399999998	1.4592295200000003	0.326312255859375	0.409112548828125	113.54	7.419631	-1.6077064	-6.4104753	0.0017654002	-0.00017104112	-0.0013133604	-30.700005	11.0	2.399994	
3.6101498671537655	0.0	0.01082640283826055	-0.17259703999999948	8.97504608	1.4749201600000008	0.326348876953125	0.40916748046875	113.55	7.410054	-1.5981296	-6.421249	0.0017654002	0.0010506893	-0.0019242256	-30.700005	11.0	2.399994	
3.6201502822982405	0.0	0.006648579336359177	-0.18828767999999993	8.982891399999998	1.4611908500000002	0.326348876953125	0.40924072265625	113.56	7.4148426	-1.6005238	-6.4020953	0.0023762658	0.0016615549	-0.002535091	-30.599998	11.0	2.399994	
3.6301506974427014	0.0	0.013162390172657018	-0.19613300000000017	8.99269805	1.4866881399999994	0.3264404296875	0.4093505859375	113.57000000000001	7.4124484	-1.5957354	-6.4068837	0.0011545345	0.0022724196	-0.0019242256	-30.599998	11.0	2.399994	
3.6401511125871764	0.0	0.0	-0.20986230999999975	8.99269805	1.5161080900000006	0.32642211914062497	0.409332275390625	113.58	7.405266	-1.6005238	-6.4032927	0.0011545345	0.0016615549	-0.002535091	-30.700005	11.0	2.5	
3.6501515277316514	0.0	0.010646711504845438	-0.2020169899999995	9.000543369999999	1.4749201600000008	0.3264404296875	0.409442138671875	113.59	7.41604	-1.5969325	-6.3985043	0.00054366887	0.0016615549	-0.0013133604	-30.700005	11.0	2.5	
3.6601519428761122	0.0	-0.005525508502514721	-0.18828767999999993	8.982891399999998	1.4553068600000008	0.32651367187499997	0.409478759765625	113.60000000000001	7.4232225	-1.5921441	-6.4020953	-0.000678055	0.0028832853	-0.0007024952	-30.700005	11.0	2.5	
3.6701523580205873	0.0	0.008625184003925418	-0.15690640000000014	8.95151012	1.4258869099999996	0.326531982421875	0.40960693359375	113.61	7.4208283	-1.5993267	-6.4032927	-0.0012889206	0.0028832853	0.0011301003	-30.700005	11.0	2.5	
3.6801527731650623	0.0	0.010467020171430325	-0.21182363999999954	8.982891399999998	1.4356935600000007	0.326495361328125	0.409588623046875	113.62	7.4208283	-1.5981296	-6.4032927	-0.0018997863	0.0016615549	0.0011301003	-30.700005	11.0	2.5	
3.690153188309523	0.0	0.004312592001962709	-0.17651970000000014	8.98877539	1.4533455300000009	0.32660522460937497	0.409661865234375	113.63	7.4268136	-1.6053122	-6.393716	-0.002510652	0.0022724196	0.001740966	-30.700005	11.0	2.5	
3.700153603453998	0.0	0.007906418670264967	-0.18044235999999972	9.01427268	1.4611908500000002	0.32647705078125	0.409661865234375	113.64	7.430405	-1.602918	-6.3865333	-0.0031215176	0.0016615549	0.001740966	-30.599998	11.0	2.5	
3.710154018598473	0.0	0.01841836167504907	-0.18632635000000017	8.998582039999999	1.50237878	0.326531982421875	0.409716796875	113.65	7.4351935	-1.6053122	-6.3925185	-0.0037323833	0.0016615549	0.0011301003	-30.599998	11.0	2.5	
3.720154433742934	0.0	0.01383623267296369	-0.1490610799999999	8.945626129999999	1.514146760000001	0.3265869140625	0.40975341796875	113.66	7.4387846	-1.6160861	-6.3901243	-0.002510652	0.0016615549	0.0011301003	-30.700005	11.100006	2.5	
3.730154848887409	0.0	0.029649070013493622	-0.16475172000000035	8.982891399999998	1.4356935600000007	0.32662353515625	0.409954833984375	113.67	7.4495587	-1.6124948	-6.3889275	-0.002510652	0.0010506893	-9.1630034e-05	-30.700005	11.100006	2.5	
3.740155264031884	0.0	0.022686030843658	-0.17063570999999972	8.982891399999998	1.4749201600000008	0.326641845703125	0.40989990234375	113.68	7.445967	-1.6124948	-6.3901243	-0.000678055	0.0010506893	-0.0007024952	-30.700005	11.100006	2.5	
3.750155679176345	0.0	0.02120357734298332	-0.17063570999999972	8.97504608	1.4533455300000009	0.32666015625	0.40991821289062497	113.69	7.439982	-1.5957354	-6.3901243	-6.7189336e-05	0.00043982454	-0.002535091	-30.700005	11.100006	2.5	
3.76015609432082	0.0	0.023359873343964672	-0.17259703999999948	8.96720076	1.4258869099999996	0.326641845703125	0.410028076171875	113.7	7.4375877	-1.5933412	-6.397307	0.0011545345	-0.00017104112	-0.002535091	-30.599998	11.100006	2.5	
3.770156509465295	0.0	0.006828270669774289	-0.17259703999999948	8.943664799999999	1.44353888	0.32669677734374997	0.4100830078125	113.71000000000001	7.4387846	-1.590947	-6.3865333	0.0011545345	-0.00017104112	-0.0031459562	-30.599998	11.100006	2.5	
3.7801569246097557	0.0	-0.13813771256286803	-0.17848102999999993	8.998582039999999	1.4356935600000007	0.3267333984375	0.41011962890625	113.72	7.428011	-1.5945383	-6.3925185	0.0011545345	-0.00078190677	-0.002535091	-30.599998	11.100006	2.600006	
3.7901573397542307	0.0	-0.1689098534102061	-0.17848102999999993	8.969162090000001	1.4984561200000004	0.326806640625	0.41015625	113.73	7.429208	-1.5969325	-6.39611	0.0011545345	-0.00017104112	-0.0019242256	-30.599998	11.100006	2.600006	
3.8001577548987058	0.0	0.5459022709151129	-0.17259703999999948	8.95347145	1.4984561200000004	0.32678833007812497	0.410211181640625	113.74000000000001	7.4208283	-1.5993267	-6.4068837	0.0011545345	-0.00078190677	-0.0013133604	-30.599998	11.100006	2.600006	
3.8101581700431666	0.0	1.4130926459764477	-0.1588677299999999	8.97504608	1.4984561200000004	0.32677001953125	0.410321044921875	113.75	7.4244194	-1.5993267	-6.4068837	0.00054366887	-0.0013927715	-0.0013133604	-30.599998	11.100006	2.600006	
3.8201585851876416	0.0	0.9469733270976448	-0.18828767999999993	9.00838869	1.54160538	0.326806640625	0.410302734375	113.76	7.41604	-1.6124948	-6.4068837	0.00054366887	-0.0020036371	-0.0007024952	-30.599998	11.100006	2.600006	
3.8301590003321166	0.0	0.12650269872423947	-0.2353596000000002	8.99465938	1.4984561200000004	0.32678833007812497	0.41041259765625	113.77	7.4268136	-1.602918	-6.4008985	-0.000678055	-0.0013927715	-0.0007024952	-30.599998	11.100006	2.600006	
3.8401594154765775	0.0	-0.06882178069798824	-0.18828767999999993	8.99269805	1.5161080900000006	0.32684326171875	0.41041259765625	113.78	7.4232225	-1.6017209	-6.3901243	-0.0018997863	-0.0013927715	-0.0007024952	-30.599998	11.100006	2.7000122	
3.8501598306210525	0.0	-0.18049994441548087	-0.16671305000000014	9.02996332	1.4043122799999999	0.32684326171875	0.41044921875	113.79	7.41604	-1.6017209	-6.39611	-0.0012889206	-0.00078190677	-0.0007024952	-30.599998	11.100006	2.7000122	
3.8601602457655275	0.0	-0.21666282526527234	-0.16475172000000035	8.982891399999998	1.3592016900000006	0.32687988281249997	0.410504150390625	113.8	7.4232225	-1.6077064	-6.3985043	-0.0012889206	-0.00078190677	-0.0007024952	-30.599998	11.100006	2.7000122	
3.8701606609099883	0.0	-0.21706713076545636	-0.14513842000000035	8.97308475	1.4729588299999987	0.32687988281249997	0.410595703125	113.81	7.4244194	-1.6077064	-6.397307	-0.0012889206	-0.00078190677	-0.0013133604	-30.599998	11.100006	2.7000122	
3.8801610760544634	0.0	-0.21257484743007854	-0.10983447999999987	8.9044382	1.4043122799999999	0.32687988281249997	0.410614013671875	113.82000000000001	7.4268136	-1.6089035	-6.408081	-0.000678055	-0.0013927715	0.00051923515	-30.700005	11.100006	2.7999878	
3.8901614911989384	0.0	-0.1967620100895486	-0.13140910999999966	8.91424485	1.333704399999999	0.326861572265625	0.410723876953125	113.83	7.4244194	-1.6112977	-6.4032927	-0.000678055	-0.00017104112	0.00051923515	-30.700005	11.100006	2.7999878	
3.900161906343399	0.0	-0.18714852375184005	-0.16475172000000035	8.906399529999998	1.4906107999999991	0.326934814453125	0.41074218749999997	113.84	7.418434	-1.6041151	-6.39611	-0.0012889206	-0.00017104112	-0.0007024952	-30.599998	11.0	2.7999878	
3.9101623214878742	0.0	-0.17371659657906036	-0.20397832000000038	8.88874756	1.4592295200000003	0.326898193359375	0.4108154296875	113.85000000000001	7.40766	-1.5981296	-6.385336	-0.002510652	0.0010506893	-0.0007024952	-30.599998	11.0	2.7999878	
3.9201627366323493	0.0	-0.16926923607703634	-0.19613300000000017	8.92993549	1.5161080900000006	0.32691650390625	0.4108154296875	113.86	7.3992805	-1.5885528	-6.393716	-0.000678055	0.0010506893	-0.002535091	-30.599998	11.0	2.7999878	
3.93016315177681	0.0	-0.17178491474484792	-0.21770762999999996	9.026040660000001	1.5847546399999997	0.326934814453125	0.41085205078125	113.87	7.4016747	-1.6005238	-6.408081	-6.7189336e-05	0.0010506893	-0.002535091	-30.599998	11.0	2.7999878	
3.940163566921285	0.0	-0.1532317845697375	-0.25693423	9.1005712	1.629865229999999	0.326953125	0.410888671875	113.88	7.4244194	-1.5921441	-6.4248405	-6.7189336e-05	0.0016615549	-0.0007024952	-30.599998	11.0	2.7999878	
3.95016398206576	0.0	-0.1461788997331943	-0.19417167000000038	9.084880559999998	1.5671026699999993	0.32691650390625	0.41092529296874997	113.89	7.445967	-1.590947	-6.4128695	-6.7189336e-05	0.0034941505	0.0011301003	-30.599998	11.0	2.7999878	
3.960164397210221	0.0	-0.1423155360647694	-0.1608290599999997	9.145681790000001	1.5082627699999993	0.326934814453125	0.410980224609375	113.9	7.4603324	-1.6184803	-6.399701	-0.000678055	0.004715881	0.0023518307	-30.599998	11.0	2.899994	
3.970164812354696	0.0	-0.1446066005658121	-0.0843371900000005	9.084880559999998	1.4396162200000002	0.326898193359375	0.410888671875	113.91	7.455544	-1.6136919	-6.3901243	-0.0012889206	0.004715881	0.0023518307	-30.599998	11.0	2.899994	
3.980165227499171	0.0	-0.13885647789652847	-0.1274864500000001	9.039769969999998	1.44353888	0.32677001953125	0.410614013671875	113.92	7.4351935	-1.6112977	-6.3721676	-0.0018997863	0.0028832853	0.001740966	-30.700005	11.0	2.899994	
3.990165642643632	0.0	-0.14051862273061827	-0.1608290599999997	9.00642736	1.4062736099999997	0.326568603515625	0.41037597656249997	113.93	7.4208283	-1.6005238	-6.3829417	-0.0012889206	-0.00078190677	0.0011301003	-30.700005	11.0	2.899994	
4.000166057788107	0.0	-0.136924796062316	-0.18632635000000017	8.95151012	1.3964669600000008	0.32642211914062497	0.40991821289062497	113.94	7.4351935	-1.5969325	-6.384139	-0.0012889206	-0.0020036371	0.00051923515	-30.700005	11.0	2.899994	
4.010166472932582	0.0	-0.12834453489174438	-0.20397832000000038	8.96131677	1.34351105	0.32625732421875	0.40964355468749997	113.95	7.443573	-1.5825673	-6.3901243	-6.7189336e-05	-0.0032253675	0.0011301003	-30.700005	11.0	2.899994	
4.020166888077043	0.0	-0.11441845655207313	-0.19024900999999972	8.91228352	1.4043122799999999	0.326165771484375	0.4093505859375	113.96000000000001	7.429208	-1.5897499	-6.4008985	0.0011545345	-0.0032253675	0.0023518307	-30.700005	11.0	2.899994	
4.030167303221518	0.0	-0.10440066471418058	-0.21182363999999954	8.87305692	1.394505630000001	0.326019287109375	0.40916748046875	113.97	7.4363904	-1.5837644	-6.4032927	-6.7189336e-05	-0.0020036371	0.0011301003	-30.700005	11.0	2.899994	
4.040167718365993	0.0	-0.0837361613714426	-0.18828767999999993	8.87305692	1.514146760000001	0.325946044921875	0.40891113281249997	113.98	7.4387846	-1.5885528	-6.39611	-0.0012889206	-0.00017104112	-9.1630034e-05	-30.700005	11.0	2.899994	
4.050168133510454	0.0	-0.06648579336359177	-0.1588677299999999	8.91424485	1.4827654799999999	0.32581787109375	0.408746337890625	113.99000000000001	7.431602	-1.5993267	-6.38773	-0.0012889206	0.0010506893	-0.0013133604	-30.700005	11.0	2.899994	
4.060168548654929	0.0	-0.03881332801766438	-0.15298373999999948	8.95151012	1.4788428200000003	0.325762939453125	0.40854492187499997	114.0	7.4351935	-1.6112977	-6.385336	-0.000678055	0.0016615549	-0.0019242256	-30.700005	11.0	2.899994	
4.070168963799404	0.0	-0.024572789844516687	-0.18044235999999972	8.982891399999998	1.4200029200000004	0.32567138671875	0.408380126953125	114.01	7.441179	-1.6232687	-6.405687	0.00054366887	0.0016615549	-0.0019242256	-30.700005	11.0	2.899994	
4.0801693789438644	0.0	-0.010062714671246321	-0.16475172000000035	9.004466029999998	1.4611908500000002	0.325543212890625	0.408233642578125	114.02	7.4268136	-1.6160861	-6.3889275	0.0011545345	0.0016615549	-0.0037568214	-30.700005	11.0	2.7999878	
4.0901697940883395	0.0	-0.007007962003189402	-0.19024900999999972	9.02407933	1.470997499999999	0.325469970703125	0.40806884765625	114.03	7.41604	-1.6101006	-6.3985043	0.0011545345	0.0010506893	-0.004367687	-30.700005	11.0	2.7999878	
4.1001702092328145	0.0	-0.011949473672105006	-0.18044235999999972	9.018195339999998	1.5063014399999994	0.325396728515625	0.407867431640625	114.04	7.4124484	-1.6041151	-6.4008985	-6.7189336e-05	0.00043982454	-0.004367687	-30.700005	11.0	2.7999878	
4.110170624377275	0.0	-0.0013926078339671247	-0.16475172000000035	9.03780864	1.4984561200000004	0.3252685546875	0.40777587890625	114.05	7.4088573	-1.5933412	-6.4008985	-6.7189336e-05	0.0010506893	-0.0037568214	-30.700005	11.0	2.7999878	
4.12017103952175	0.0	-0.007007962003189402	-0.16475172000000035	9.061344599999998	1.5161080900000006	0.325177001953125	0.4075927734375	114.06	7.40766	-1.5981296	-6.4020953	0.00054366887	0.0010506893	-0.0037568214	-30.700005	11.0	2.7000122	
4.130171454666225	0.0	-0.008625184003925418	-0.18044235999999972	9.03192465	1.3650856799999997	0.32508544921875	0.40744628906249997	114.07000000000001	7.418434	-1.5957354	-6.423643	0.00054366887	0.0016615549	-0.0019242256	-30.700005	11.0	2.7000122	
4.140171869810686	0.0	-0.004582129002085379	-0.17455837000000035	9.022117999999999	1.5396440500000002	0.32501220703125	0.4072998046875	114.08	7.419631	-1.5945383	-6.409278	-0.000678055	0.0016615549	-0.0007024952	-30.700005	11.0	2.7000122	
4.150172284955161	0.0	0.004851666002208047	-0.1392544299999999	8.84755963	1.4592295200000003	0.324920654296875	0.407135009765625	114.09	7.4268136	-1.5933412	-6.4032927	-0.002510652	0.0022724196	0.00051923515	-30.700005	11.0	2.7000122	
4.160172700099636	0.0	0.0012578393339057901	-0.13337043999999945	8.89070889	1.4200029200000004	0.324847412109375	0.40708007812499997	114.10000000000001	7.417237	-1.6077064	-6.4032927	-0.0031215176	0.0022724196	0.0011301003	-30.700005	11.0	2.7000122	
4.170173115244097	0.0	0.0008984566670755643	-0.1412157599999997	8.99269805	1.4003896200000003	0.32477416992187497	0.40693359375	114.11	7.4244194	-1.5921441	-6.381745	-0.004343249	0.0022724196	0.001740966	-30.700005	11.0	2.7000122	
4.180173530388572	0.0	0.004851666002208047	-0.1412157599999997	8.97308475	1.529837399999999	0.324737548828125	0.40689697265624997	114.12	7.430405	-1.5897499	-6.397307	-0.004343249	0.0016615549	0.001740966	-30.700005	11.0	2.600006	
4.190173945533047	0.0	0.015992528673945045	-0.13140910999999966	8.9044382	1.4474615399999995	0.32471923828125	0.406915283203125	114.13	7.4375877	-1.5969325	-6.3985043	-0.0037323833	0.00043982454	0.0011301003	-30.700005	11.0	2.600006	
4.200174360677508	0.0	0.01334208150607213	-0.16279038999999948	8.99073672	1.514146760000001	0.32471923828125	0.40682373046875	114.14	7.4507556	-1.602918	-6.393716	-0.0031215176	-0.00017104112	0.001740966	-30.700005	11.0	2.600006	
4.210174775821983	0.0	0.016531602674190383	-0.15494507000000035	8.982891399999998	1.4455002099999996	0.324627685546875	0.406842041015625	114.15	7.4483614	-1.6184803	-6.364985	-0.0031215176	0.00043982454	0.001740966	-30.700005	11.0	2.600006	
4.220175190966458	0.0	0.02246141667688911	-0.1922103399999995	9.03192465	1.4984561200000004	0.324609375	0.4068603515625	114.16	7.4363904	-1.6005238	-6.3566055	-0.002510652	0.0022724196	0.00051923515	-30.700005	11.100006	2.5	
4.230175606110919	0.0	0.019990660842431306	-0.19613300000000017	9.022117999999999	1.529837399999999	0.324554443359375	0.40675048828125	114.17	7.4351935	-1.6077064	-6.3685765	-0.0018997863	0.0028832853	-9.1630034e-05	-30.700005	11.100006	2.5	
4.240176021255394	0.0	0.0181488246749264	-0.17651970000000014	9.033885979999999	1.5082627699999993	0.324554443359375	0.406658935546875	114.18	7.430405	-1.6124948	-6.3865333	-6.7189336e-05	0.00043982454	-0.0007024952	-30.700005	11.0	2.5	
4.250176436399869	0.0	0.02389894734421001	-0.17259703999999948	9.077035239999999	1.4827654799999999	0.324517822265625	0.406585693359375	114.19	7.430405	-1.6077064	-6.3901243	0.0011545345	-0.00078190677	-0.0013133604	-30.700005	11.0	2.5	
4.26017685154433	0.0	0.021023886009568206	-0.19417167000000038	9.0809579	1.4690361699999992	0.32442626953125	0.406512451171875	114.2	7.431602	-1.5933412	-6.3925185	0.0017654002	-0.0020036371	-0.0013133604	-30.700005	11.0	2.5	
4.270177266688805	0.0	0.03149090618099853	-0.18632635000000017	9.061344599999998	1.4553068600000008	0.32442626953125	0.406475830078125	114.21000000000001	7.418434	-1.5885528	-6.39611	0.00054366887	-0.0020036371	-0.0013133604	-30.700005	11.0	2.5	
4.28017768183328	0.0	0.024482944177809128	-0.15690640000000014	9.000543369999999	1.4906107999999991	0.324462890625	0.4064208984375	114.22	7.4351935	-1.5933412	-6.4008985	0.0017654002	-0.00078190677	-0.0013133604	-30.700005	11.100006	2.5	
4.2901780969777406	0.0	0.030098298347031406	-0.16475172000000035	8.97112342	1.5004174500000003	0.32435302734375	0.40645751953125	114.23	7.433996	-1.6077064	-6.385336	0.00054366887	-0.00017104112	-9.1630034e-05	-30.700005	11.100006	2.5	
4.300178512122216	0.0	0.03378197068204122	-0.15690640000000014	8.93581948	1.4670748399999995	0.3243896484375	0.40634765624999997	114.24000000000001	7.433996	-1.6077064	-6.385336	-6.7189336e-05	-0.00017104112	-9.1630034e-05	-30.700005	11.0	2.5	
4.310178927266691	0.0	0.04047547285175417	-0.15494507000000035	8.95935544	1.4670748399999995	0.32431640624999997	0.40631103515625	114.25	7.4351935	-1.5897499	-6.39611	-0.0012889206	-0.00078190677	-9.1630034e-05	-30.700005	11.0	2.5	
4.320179342411151	0.0	0.03000845268032385	-0.1608290599999997	8.920128839999999	1.4964947900000005	0.324298095703125	0.406329345703125	114.26	7.428011	-1.5885528	-6.39611	-0.0018997863	-0.0020036371	0.00051923515	-30.700005	11.0	2.5	
4.3301797575556265	0.0	0.03198505734789009	-0.17259703999999948	8.93974214	1.4984561200000004	0.32431640624999997	0.40634765624999997	114.27	7.422025	-1.6065093	-6.384139	-0.0018997863	-0.0038362322	0.00051923515	-30.700005	11.0	2.5	
4.3401801727001015	0.0	0.022281725343473995	-0.18632635000000017	8.97896874	1.514146760000001	0.32431640624999997	0.40625610351562497	114.28	7.431602	-1.5981296	-6.399701	-0.0012889206	-0.0038362322	-9.1630034e-05	-30.700005	11.0	2.5	
4.350180587844562	0.0	0.027897079512696273	-0.13140910999999966	8.95151012	1.4729588299999987	0.32435302734375	0.406365966796875	114.29	7.431602	-1.5981296	-6.399701	-0.0018997863	-0.0032253675	-9.1630034e-05	-30.700005	11.0	2.5	
4.360181002989037	0.0	0.02174265134322866	-0.16475172000000035	8.998582039999999	1.451384199999999	0.324261474609375	0.406329345703125	114.3	7.418434	-1.6041151	-6.3949127	-0.000678055	-0.0013927715	-0.0007024952	-30.700005	11.0	2.5	
4.370181418133512	0.0	0.028930304679833173	-0.15690640000000014	8.99269805	1.4945334600000009	0.32431640624999997	0.40643920898437497	114.31	7.419631	-1.6101006	-6.38773	0.00054366887	0.00043982454	-0.0007024952	-30.700005	11.0	2.5	
4.380181833277973	0.0	0.027133391345682045	-0.1588677299999999	8.97504608	1.4827654799999999	0.324298095703125	0.40645751953125	114.32000000000001	7.417237	-1.6112977	-6.4008985	-6.7189336e-05	0.0016615549	-0.0019242256	-30.700005	11.0	2.5	
4.390182248422448	0.0	0.026639240178790484	-0.17259703999999948	9.00838869	1.4768814900000005	0.324334716796875	0.406512451171875	114.33	7.4208283	-1.6077064	-6.4020953	0.0011545345	0.0022724196	-0.002535091	-30.700005	11.0	2.5	
4.400182663566923	0.0	0.01945158684218597	-0.13337043999999945	8.984852729999998	1.4592295200000003	0.32435302734375	0.40653076171874997	114.34	7.4136457	-1.6041151	-6.4032927	0.0011545345	0.0022724196	-0.002535091	-30.700005	11.0	2.5	
4.410183078711384	0.0	0.009703332004416095	-0.18044235999999972	9.02996332	1.44353888	0.3243896484375	0.40653076171874997	114.35000000000001	7.4208283	-1.5969325	-6.3913217	-6.7189336e-05	0.0016615549	-0.0013133604	-30.700005	11.0	2.5	
4.420183493855859	0.0	0.0039532093351324835	-0.16475172000000035	8.99269805	1.4906107999999991	0.32435302734375	0.406585693359375	114.36	7.428011	-1.6065093	-6.393716	-0.000678055	0.0022724196	-0.0013133604	-30.599998	11.0	2.5	
4.430183909000334	0.0	-0.007861495836911188	-0.18632635000000017	8.998582039999999	1.5082627699999993	0.32440795898437497	0.40662231445312497	114.37	7.428011	-1.6065093	-6.393716	-0.0018997863	0.0016615549	-9.1630034e-05	-30.599998	11.0	2.5	
4.440184324144795	0.0	0.004312592001962709	-0.18828767999999993	8.97112342	1.5082627699999993	0.32440795898437497	0.40675048828125	114.38	7.422025	-1.5849615	-6.4008985	-0.0018997863	0.0010506893	-9.1630034e-05	-30.599998	11.0	2.399994	
4.45018473928927	0.0	0.006648579336359177	-0.18044235999999972	8.982891399999998	1.514146760000001	0.32442626953125	0.40680541992187497	114.39	7.422025	-1.590947	-6.3949127	-0.0018997863	0.0016615549	0.00051923515	-30.599998	11.0	2.399994	
4.460185154433745	0.0	0.0025156786678115803	-0.15690640000000014	8.982891399999998	1.4925721299999988	0.32449951171874997	0.4068603515625	114.4	7.419631	-1.5825673	-6.3913217	-0.0018997863	0.0016615549	0.0011301003	-30.599998	11.100006	2.399994	
4.470185569578206	0.0	0.012578393339057902	-0.18044235999999972	8.998582039999999	1.4553068600000008	0.324462890625	0.406915283203125	114.41	7.4232225	-1.5957354	-6.3901243	-0.0018997863	0.0010506893	0.0011301003	-30.599998	11.100006	2.399994	
4.480185984722681	0.0	0.021023886009568206	-0.13337043999999945	8.95151012	1.5161080900000006	0.324481201171875	0.40693359375	114.42	7.4327993	-1.5981296	-6.38773	-0.0031215176	0.00043982454	0.0011301003	-30.599998	11.100006	2.399994	
4.490186399867156	0.0	0.023180182010549562	-0.1588677299999999	8.97504608	1.5004174500000003	0.324481201171875	0.407025146484375	114.43	7.443573	-1.6077064	-6.3829417	-0.002510652	0.0010506893	0.0011301003	-30.599998	11.100006	2.399994	
4.500186815011617	0.0	0.025561092178299806	-0.13337043999999945	8.97504608	1.529837399999999	0.32449951171874997	0.40708007812499997	114.44	7.439982	-1.6005238	-6.38773	-0.0012889206	0.0010506893	-9.1630034e-05	-30.599998	11.100006	2.2999878	
4.510187230156092	0.0	0.027897079512696273	-0.1588677299999999	8.969162090000001	1.4670748399999995	0.324627685546875	0.40711669921875	114.45	7.445967	-1.6077064	-6.3745623	-0.000678055	0.00043982454	-0.0019242256	-30.599998	11.100006	2.2999878	
4.520187645300567	0.0	0.020889117509506873	-0.1588677299999999	8.982891399999998	1.4396162200000002	0.324609375	0.407208251953125	114.46000000000001	7.443573	-1.6077064	-6.381745	0.00054366887	-0.00017104112	-0.0019242256	-30.599998	11.100006	2.2999878	
4.5301880604450275	0.0	0.01689098534102061	-0.14513842000000035	8.941703469999998	1.4847268099999997	0.32468261718749997	0.407281494140625	114.47	7.439982	-1.6005238	-6.385336	0.0011545345	-0.00017104112	-0.0019242256	-30.599998	11.100006	2.2999878	
4.540188475589503	0.0	-0.0017969133341511287	-0.1412157599999997	8.96720076	1.4670748399999995	0.324664306640625	0.40733642578125	114.48	7.433996	-1.5981296	-6.3865333	0.001148425	-0.0010506874	-0.0032131516	-30.599998	11.100006	2.2999878	
4.550188890733978	0.0	-0.15700530257145487	-0.1392544299999999	8.982891399999998	1.4984561200000004	0.324700927734375	0.407464599609375	114.49000000000001	7.429208	-1.5897499	-6.3925185	0.0017592907	-0.0010506874	-0.0019914212	-30.599998	11.100006	2.2999878	
4.560189305878438	0.0	-0.17892764524809865	-0.15298373999999948	8.97112342	1.5376827200000005	0.324700927734375	0.407574462890625	114.5	7.418434	-1.6053122	-6.39611	0.001148425	-0.0010506874	-0.0013805558	-30.5	11.100006	2.2999878	
4.570189721022913	0.0	0.6477872569614819	-0.16475172000000035	8.95935544	1.50237878	0.32477416992187497	0.407574462890625	114.51	7.4148426	-1.5945383	-6.4008985	0.001148425	-0.0016615521	-0.00015882542	-30.5	11.100006	2.2999878	
4.5801901361673885	0.0	1.418483385978901	-0.17063570999999972	8.984852729999998	1.4984561200000004	0.3248291015625	0.407611083984375	114.52	7.4136457	-1.5957354	-6.397307	0.0005375594	-0.0010506874	0.001062905	-30.599998	11.100006	2.2999878	
4.590190551311849	0.0	0.9349789305921861	-0.17259703999999948	8.97504608	1.5102240999999992	0.324884033203125	0.40772094726562497	114.53	7.422025	-1.6017209	-6.3925185	-7.329881e-05	-0.00043982174	0.0016737701	-30.599998	11.100006	2.2999878	
4.600190966456324	0.0	0.11774274622025271	-0.18632635000000017	8.969162090000001	1.529837399999999	0.32490234375	0.40781249999999997	114.54	7.429208	-1.6089035	-6.38773	-0.00068416446	-0.0010506874	0.0016737701	-30.599998	11.100006	2.2999878	
4.610191381600799	0.0	-0.08382600703815016	-0.19024900999999972	8.97896874	1.4808041500000002	0.324884033203125	0.4078857421875	114.55	7.430405	-1.6101006	-6.3913217	-0.0012950301	-0.0010506874	0.00045203976	-30.599998	11.100006	2.2999878	
4.62019179674526	0.0	-0.19568386208905791	-0.1274864500000001	8.977007409999999	1.34547238	0.3249755859375	0.407940673828125	114.56	7.4351935	-1.5969325	-6.3889275	-0.0019058958	-0.0016615521	0.00045203976	-30.5	11.100006	2.2999878	
4.630192211889735	0.0	-0.22137972276741905	-0.1412157599999997	8.95151012	1.5867159699999993	0.3249755859375	0.40808715820312497	114.57000000000001	7.428011	-1.6053122	-6.39611	-0.0019058958	-0.0016615521	-0.00015882542	-30.5	11.100006	2.2999878	
4.64019262703421	0.0	-0.22137972276741905	-0.10198915999999965	8.92797416	1.50237878	0.324993896484375	0.408123779296875	114.58	7.4351935	-1.5981296	-6.385336	-0.0019058958	-0.0016615521	0.001062905	-30.5	11.100006	2.2999878	
4.650193042178671	0.0	-0.21706713076545636	-0.1490610799999999	8.969162090000001	1.3650856799999997	0.324993896484375	0.40817871093749997	114.59	7.429208	-1.5921441	-6.393716	-0.0025167614	-0.0010506874	0.001062905	-30.5	11.100006	2.2999878	
4.660193457323146	0.0	-0.21562960009813545	-0.10198915999999965	8.91032219	1.3572403600000007	0.325103759765625	0.408233642578125	114.60000000000001	7.4208283	-1.602918	-6.385336	-0.0019058958	-0.0010506874	0.00045203976	-30.5	11.100006	2.2999878	
4.670193872467621	0.0	-0.20017614542443574	-0.10198915999999965	8.863250269999998	1.4356935600000007	0.32514038085937497	0.408343505859375	114.61	7.4148426	-1.5993267	-6.3865333	-0.0012950301	0.00017104391	0.00045203976	-30.5	11.100006	2.2999878	
4.680194287612082	0.0	-0.1800507160819431	-0.12552512000000032	8.89659288	1.4258869099999996	0.325103759765625	0.4084716796875	114.62	7.404069	-1.6089035	-6.3913217	0.0005375594	0.00078190863	-0.0013805558	-30.5	11.100006	2.2999878	
4.690194702756557	0.0	-0.17825380274779196	-0.17259703999999948	8.96720076	1.50237878	0.32523193359374997	0.40854492187499997	114.63	7.4124484	-1.5933412	-6.393716	0.0005375594	0.0013927743	-0.0013805558	-30.5	11.100006	2.2999878	
4.700195117901032	0.0	-0.1728181399119848	-0.20593965000000017	9.02407933	1.6239812399999995	0.32523193359374997	0.40858154296875	114.64	7.4256167	-1.5813702	-6.4032927	0.0005375594	0.00017104391	-0.0019914212	-30.5	11.100006	2.2999878	
4.710195533045493	0.0	-0.16298003940750738	-0.2432049200000004	9.07115125	1.7043957699999994	0.325286865234375	0.40869140625	114.65	7.4387846	-1.5957354	-6.405687	0.0005375594	0.00078190863	-0.0007696906	-30.5	11.100006	2.2999878	
4.720195948189968	0.0	-0.16693324874263984	-0.20005565999999972	9.09076455	1.6180972500000002	0.325341796875	0.40880126953125	114.66	7.45315	-1.5981296	-6.3925185	0.0005375594	0.0013927743	0.00045203976	-30.400002	11.100006	2.399994	
4.730196363334443	0.0	-0.16441757007482827	-0.12552512000000032	9.084880559999998	1.5376827200000005	0.32537841796875	0.408782958984375	114.67	7.451953	-1.6041151	-6.3865333	-7.329881e-05	0.0026145047	0.0016737701	-30.400002	11.100006	2.399994	
4.740196778478904	0.0	-0.16819108807654565	-0.11179580999999966	9.09272588	1.4533455300000009	0.32530517578125	0.40865478515625	114.68	7.455544	-1.6220716	-6.3709707	-0.00068416446	0.0026145047	0.0022846358	-30.400002	11.100006	2.399994	
4.750197193623379	0.0	-0.1620815827404318	-0.1470997500000001	9.061344599999998	1.4886494699999993	0.325177001953125	0.408416748046875	114.69	7.433996	-1.5981296	-6.3697734	-0.0012950301	0.0026145047	0.001062905	-30.400002	11.100006	2.399994	
4.760197608767854	0.0	-0.16298003940750738	-0.15690640000000014	8.99269805	1.514146760000001	0.32501220703125	0.40810546875	114.7	7.4208283	-1.6041151	-6.3709707	-0.00068416446	-0.00043982174	0.00045203976	-30.400002	11.100006	2.2999878	
4.7701980239123145	0.0	-0.1552533120706575	-0.18828767999999993	8.984852729999998	1.4827654799999999	0.324884033203125	0.407684326171875	114.71000000000001	7.4256167	-1.5873557	-6.38773	-7.329881e-05	-0.0022724178	-0.00015882542	-30.400002	11.100006	2.2999878	
4.7801984390567895	0.0	-0.14195615339793916	-0.16475172000000035	8.93581948	1.42196425	0.32471923828125	0.40726318359374997	114.72	7.418434	-1.5897499	-6.397307	-7.329881e-05	-0.0034941481	-0.00015882542	-30.400002	11.0	2.399994	
4.790198854201265	0.0	-0.12245964372239942	-0.18044235999999972	8.88874756	1.3788149900000004	0.324609375	0.407135009765625	114.73	7.428011	-1.5825673	-6.3985043	0.001148425	-0.0034941481	0.00045203976	-30.400002	11.0	2.399994	
4.800199269345725	0.0	-0.11158831805078509	-0.20397832000000038	8.89070889	1.4455002099999996	0.32449951171874997	0.406842041015625	114.74000000000001	7.4351935	-1.5969325	-6.3925185	0.001148425	-0.0022724178	0.001062905	-30.400002	11.0	2.399994	
4.8101996844902	0.0	-0.09397856737610404	-0.16475172000000035	8.89463155	1.4984561200000004	0.32449951171874997	0.40671386718749997	114.75	7.4507556	-1.5945383	-6.3901243	0.001148425	0.00017104391	0.00045203976	-30.400002	11.0	2.399994	
4.820200099634675	0.0	-0.07582974270117764	-0.17455837000000035	8.91032219	1.4631521799999998	0.324444580078125	0.406494140625	114.76	7.442376	-1.6112977	-6.3805475	-7.329881e-05	0.0013927743	-0.00015882542	-30.400002	11.0	2.399994	
4.830200514779136	0.0	-0.04061024135181551	-0.1470997500000001	8.9240515	1.4533455300000009	0.324371337890625	0.40643920898437497	114.77	7.430405	-1.6041151	-6.3913217	0.0005375594	0.002003639	-0.0007696906	-30.400002	11.0	2.399994	
4.840200929923611	0.0	-0.020844194676153092	-0.1490610799999999	8.943664799999999	1.470997499999999	0.324334716796875	0.4062744140625	114.78	7.4327993	-1.6101006	-6.3865333	0.001148425	0.0026145047	-0.0019914212	-30.400002	11.0	2.399994	
4.850201345068086	0.0	-0.001437530667320903	-0.13140910999999966	8.977007409999999	1.4670748399999995	0.324334716796875	0.4062744140625	114.79	7.428011	-1.6184803	-6.385336	0.0023701563	0.002003639	-0.0032131516	-30.400002	11.0	2.399994	
4.860201760212547	0.0	0.006468888002944063	-0.1176798000000001	9.01427268	1.4984561200000004	0.32427978515625	0.406109619140625	114.8	7.417237	-1.6172832	-6.3901243	0.001148425	0.0013927743	-0.003824017	-30.400002	11.0	2.399994	
4.870202175357022	0.0	0.006468888002944063	-0.1470997500000001	9.039769969999998	1.4906107999999991	0.3242431640625	0.406036376953125	114.81	7.41604	-1.6017209	-6.393716	-7.329881e-05	0.00017104391	-0.003824017	-30.400002	11.0	2.399994	
4.880202590501497	0.0	0.020529734842676645	-0.13337043999999945	9.05349928	1.5474893699999994	0.32420654296875	0.405963134765625	114.82000000000001	7.418434	-1.5885528	-6.3913217	0.0005375594	0.00017104391	-0.0032131516	-30.400002	11.0	2.399994	
4.890203005645958	0.0	0.025156786678115804	-0.1294477799999999	9.02996332	1.5435667099999997	0.3242431640625	0.40587158203125	114.83	7.418434	-1.5873557	-6.3913217	0.001148425	0.002003639	-0.0019914212	-30.400002	11.0	2.399994	
4.900203420790433	0.0	0.02524663234482336	-0.1490610799999999	9.06918992	1.4474615399999995	0.324151611328125	0.405816650390625	114.84	7.417237	-1.5861586	-6.39611	-7.329881e-05	0.002003639	-0.00015882542	-30.400002	11.0	2.399994	
4.910203835934908	0.0	0.019586355342247303	-0.1470997500000001	9.045653960000001	1.5376827200000005	0.324188232421875	0.40579833984374997	114.85000000000001	7.4208283	-1.5921441	-6.3985043	-7.329881e-05	0.002003639	0.00045203976	-30.400002	11.0	2.399994	
4.920204251079369	0.0	0.015767914507176156	-0.15690640000000014	8.97504608	1.5063014399999994	0.32413330078124997	0.40570678710937497	114.86	7.422025	-1.5897499	-6.39611	-0.00068416446	0.0026145047	0.00045203976	-30.299995	11.0	2.5	
