# OpenSignals Text File Format
# {"00:07:80:4D:2E:AD": {"sensor": ["RAW"], "device name": "00:07:80:4D:2E:AD", "column": ["nSeq", "DI", "CH1"], "sync interval": 2, "time": "13:33:1.261", "comments": "", "device connection": "BTH00:07:80:4D:2E:AD", "channels": [1], "keywords": "", "mode": 0, "digital IO": [0, 1], "firmware version": 773, "device": "biosignalsplux", "position": 0, "sampling rate": 1000, "label": ["CH1"], "resolution": [16], "date": "2019-3-12", "special": [{}]}, "00:07:80:3B:46:58": {"sensor": ["RAW"], "device name": "00:07:80:3B:46:58", "column": ["nSeq", "DI", "CH1"], "sync interval": 2, "time": "13:33:17.331", "comments": "", "device connection": "BTH00:07:80:3B:46:58", "channels": [1], "keywords": "", "mode": 0, "digital IO": [0, 1], "firmware version": 774, "device": "biosignalsplux", "position": 0, "sampling rate": 1000, "label": ["CH1"], "resolution": [16], "date": "2019-3-12", "special": [{}]}}
# EndOfHeader
13664	0	33856	0	0	33540	
13665	0	33960	1	0	33504	
13666	0	33832	2	0	33200	
13667	0	33728	3	0	33364	
13668	0	33860	4	0	33547	
13669	0	33960	5	0	33500	
13670	0	33836	6	0	33198	
13671	0	33728	7	0	33370	
13672	0	33864	8	0	33546	
13673	0	33964	9	0	33496	
13674	0	33828	10	0	33208	
13675	0	33728	11	0	33372	
13676	0	33856	12	0	33552	
13677	0	33964	13	0	33498	
13678	0	33820	14	0	33192	
13679	0	33736	15	0	33362	
13680	0	33872	16	0	33548	
13681	0	33960	17	0	33480	
13682	0	33824	18	0	33188	
13683	0	33736	19	0	33360	
13684	0	33868	20	0	33534	
13685	0	33964	21	0	33483	
13686	0	33824	22	0	33194	
13687	0	33744	23	0	33352	
13688	0	33864	24	0	33532	
13689	0	33964	25	0	33472	
13690	0	33836	26	0	33184	
13691	0	33736	27	0	33356	
13692	0	33868	28	0	33544	
13693	0	33972	29	0	33485	
13694	0	33832	30	0	33190	
13695	0	33744	31	0	33370	
13696	0	33872	32	0	33544	
13697	0	33968	33	0	33476	
13698	0	33828	34	0	33180	
13699	0	33740	35	0	33360	
13700	0	33876	36	0	33544	
13701	0	33972	37	0	33472	
13702	0	33836	38	0	33188	
13703	0	33748	39	0	33362	
13704	0	33876	40	0	33540	
13705	0	33972	41	0	33476	
13706	0	33824	42	0	33182	
13707	0	33744	43	0	33356	
13708	0	33880	44	0	33540	
13709	0	33976	45	0	33464	
13710	0	33828	46	0	33176	
13711	0	33744	47	0	33354	
13712	0	33876	48	0	33524	
13713	0	33988	49	0	33476	
13714	0	33828	50	0	33174	
13715	0	33756	51	0	33364	
13716	0	33884	52	0	33536	
13717	0	33988	53	0	33474	
13718	0	33820	54	0	33180	
13719	0	33764	55	0	33354	
13720	0	33880	56	0	33530	
13721	0	33988	57	0	33476	
13722	0	33828	58	0	33180	
13723	0	33760	59	0	33368	
13724	0	33880	60	0	33536	
13725	0	33980	61	0	33472	
13726	0	33824	62	0	33177	
13727	0	33760	63	0	33360	
13728	0	33880	64	0	33528	
13729	0	33976	65	0	33466	
13730	0	33820	66	0	33162	
13731	0	33756	67	0	33354	
13732	0	33892	68	0	33522	
13733	0	33992	69	0	33456	
13734	0	33828	70	0	33170	
13735	0	33752	71	0	33360	
13736	0	33888	72	0	33526	
13737	0	33980	73	0	33464	
13738	0	33816	74	0	33164	
13739	0	33760	75	0	33346	
13740	0	33884	76	0	33512	
13741	0	33980	77	0	33460	
13742	0	33824	78	0	33168	
13743	0	33760	79	0	33346	
13744	0	33876	80	0	33522	
13745	0	33976	81	0	33444	
13746	0	33812	82	0	33162	
13747	0	33752	83	0	33336	
13748	0	33884	84	0	33504	
13749	0	33984	85	0	33436	
13750	0	33812	86	0	33146	
13751	0	33752	87	0	33332	
13752	0	33884	88	0	33504	
13753	0	33984	89	0	33424	
13754	0	33804	90	0	33136	
13755	0	33764	91	0	33326	
13756	0	33876	92	0	33496	
13757	0	33980	93	0	33428	
13758	0	33800	94	0	33135	
13759	0	33752	95	0	33322	
13760	0	33876	96	0	33490	
13761	0	33988	97	0	33412	
13762	0	33796	98	0	33116	
13763	0	33768	99	0	33316	
13764	0	33884	100	0	33496	
13765	0	33972	101	0	33420	
13766	0	33792	102	0	33120	
13767	0	33748	103	0	33320	
13768	0	33864	104	0	33476	
13769	0	33968	105	0	33408	
13770	0	33788	106	0	33100	
13771	0	33752	107	0	33300	
13772	0	33880	108	0	33474	
13773	0	33968	109	0	33402	
13774	0	33788	110	0	33100	
13775	0	33756	111	0	33304	
13776	0	33872	112	0	33472	
13777	0	33968	113	0	33396	
13778	0	33780	114	0	33100	
13779	0	33760	115	0	33300	
13780	0	33876	116	0	33472	
13781	0	33968	117	0	33392	
13782	0	33784	118	0	33100	
13783	0	33748	119	0	33304	
13784	0	33884	120	0	33476	
13785	0	33960	121	0	33388	
13786	0	33778	122	0	33098	
13787	0	33744	123	0	33304	
13788	0	33856	124	0	33464	
13789	0	33960	125	0	33386	
13790	0	33764	126	0	33092	
13791	0	33740	127	0	33286	
13792	0	33864	128	0	33468	
13793	0	33972	129	0	33376	
13794	0	33782	130	0	33088	
13795	0	33736	131	0	33292	
13796	0	33860	132	0	33468	
13797	0	33960	133	0	33372	
13798	0	33760	134	0	33096	
13799	0	33748	135	0	33286	
13800	0	33868	136	0	33458	
13801	0	33964	137	0	33368	
13802	0	33772	138	0	33080	
13803	0	33732	139	0	33299	
13804	0	33860	140	0	33464	
13805	0	33952	141	0	33368	
13806	0	33760	142	0	33076	
13807	0	33736	143	0	33298	
13808	0	33856	144	0	33460	
13809	0	33944	145	0	33366	
13810	0	33760	146	0	33076	
13811	0	33728	147	0	33296	
13812	0	33852	148	0	33456	
13813	0	33960	149	0	33360	
13814	0	33760	150	0	33068	
13815	0	33740	151	0	33296	
13816	0	33856	152	0	33460	
13817	0	33948	153	0	33360	
13818	0	33756	154	0	33068	
13819	0	33732	155	0	33296	
13820	0	33860	156	0	33472	
13821	0	33956	157	0	33356	
13822	0	33768	158	0	33068	
13823	0	33736	159	0	33304	
13824	0	33856	160	0	33476	
13825	0	33960	161	0	33365	
13826	0	33744	162	0	33076	
13827	0	33744	163	0	33306	
13828	0	33856	164	0	33476	
13829	0	33952	165	0	33348	
13830	0	33758	166	0	33064	
13831	0	33752	167	0	33296	
13832	0	33864	168	0	33466	
13833	0	33960	169	0	33344	
13834	0	33760	170	0	33062	
13835	0	33736	171	0	33312	
13836	0	33868	172	0	33472	
13837	0	33960	173	0	33344	
13838	0	33744	174	0	33060	
13839	0	33746	175	0	33304	
13840	0	33872	176	0	33464	
13841	0	33952	177	0	33344	
13842	0	33760	178	0	33056	
13843	0	33752	179	0	33304	
13844	0	33872	180	0	33476	
13845	0	33952	181	0	33340	
13846	0	33756	182	0	33068	
13847	0	33752	183	0	33308	
13848	0	33868	184	0	33476	
13849	0	33956	185	0	33344	
13850	0	33760	186	0	33056	
13851	0	33756	187	0	33304	
13852	0	33880	188	0	33472	
13853	0	33956	189	0	33339	
13854	0	33764	190	0	33072	
13855	0	33756	191	0	33309	
13856	0	33868	192	0	33480	
13857	0	33960	193	0	33340	
13858	0	33748	194	0	33064	
13859	0	33760	195	0	33300	
13860	0	33880	196	0	33472	
13861	0	33952	197	0	33338	
13862	0	33760	198	0	33065	
13863	0	33760	199	0	33304	
13864	0	33880	200	0	33488	
13865	0	33956	201	0	33338	
13866	0	33752	202	0	33076	
13867	0	33752	203	0	33316	
13868	0	33888	204	0	33476	
13869	0	33944	205	0	33352	
13870	0	33744	206	0	33076	
13871	0	33774	207	0	33312	
13872	0	33888	208	0	33474	
13873	0	33952	209	0	33336	
13874	0	33752	210	0	33070	
13875	0	33764	211	0	33316	
13876	0	33877	212	0	33476	
13877	0	33944	213	0	33330	
13878	0	33744	214	0	33068	
13879	0	33764	215	0	33304	
13880	0	33880	216	0	33470	
13881	0	33948	217	0	33336	
13882	0	33752	218	0	33064	
13883	0	33768	219	0	33316	
13884	0	33884	220	0	33476	
13885	0	33952	221	0	33344	
13886	0	33752	222	0	33080	
13887	0	33776	223	0	33312	
13888	0	33888	224	0	33476	
13889	0	33948	225	0	33328	
13890	0	33756	226	0	33072	
13891	0	33788	227	0	33304	
13892	0	33892	228	0	33468	
13893	0	33948	229	0	33316	
13894	0	33744	230	0	33072	
13895	0	33772	231	0	33302	
13896	0	33888	232	0	33472	
13897	0	33940	233	0	33312	
13898	0	33732	234	0	33072	
13899	0	33768	235	0	33292	
13900	0	33888	236	0	33464	
13901	0	33932	237	0	33304	
13902	0	33736	238	0	33070	
13903	0	33772	239	0	33296	
13904	0	33876	240	0	33472	
13905	0	33940	241	0	33320	
13906	0	33740	242	0	33072	
13907	0	33766	243	0	33306	
13908	0	33888	244	0	33456	
13909	0	33920	245	0	33306	
13910	0	33736	246	0	33066	
13911	0	33768	247	0	33296	
13912	0	33884	248	0	33464	
13913	0	33912	249	0	33296	
13914	0	33732	250	0	33064	
13915	0	33764	251	0	33296	
13916	0	33880	252	0	33464	
13917	0	33904	253	0	33287	
13918	0	33708	254	0	33064	
13919	0	33760	255	0	33280	
13920	0	33868	256	0	33452	
13921	0	33904	257	0	33287	
13922	0	33716	258	0	33064	
13923	0	33760	259	0	33298	
13924	0	33880	260	0	33458	
13925	0	33908	261	0	33298	
13926	0	33716	262	0	33064	
13927	0	33760	263	0	33296	
13928	0	33876	264	0	33458	
13929	0	33904	265	0	33286	
13930	0	33708	266	0	33068	
13931	0	33774	267	0	33296	
13932	0	33890	268	0	33464	
13933	0	33892	269	0	33282	
13934	0	33704	270	0	33065	
13935	0	33768	271	0	33288	
13936	0	33872	272	0	33452	
13937	0	33892	273	0	33272	
13938	0	33692	274	0	33064	
13939	0	33766	275	0	33286	
13940	0	33864	276	0	33452	
13941	0	33884	277	0	33276	
13942	0	33700	278	0	33068	
13943	0	33760	279	0	33296	
13944	0	33864	280	0	33456	
13945	0	33876	281	0	33272	
13946	0	33692	282	0	33074	
13947	0	33760	283	0	33304	
13948	0	33872	284	0	33452	
13949	0	33880	285	0	33274	
13950	0	33688	286	0	33072	
13951	0	33756	287	0	33296	
13952	0	33868	288	0	33456	
13953	0	33872	289	0	33266	
13954	0	33684	290	0	33076	
13955	0	33748	291	0	33300	
13956	0	33856	292	0	33460	
13957	0	33872	293	0	33252	
13958	0	33688	294	0	33084	
13959	0	33760	295	0	33298	
13960	0	33852	296	0	33459	
13961	0	33864	297	0	33252	
13962	0	33668	298	0	33078	
13963	0	33752	299	0	33308	
13964	0	33868	300	0	33464	
13965	0	33868	301	0	33260	
13966	0	33688	302	0	33092	
13967	0	33756	303	0	33316	
13968	0	33868	304	0	33468	
13969	0	33860	305	0	33248	
13970	0	33684	306	0	33084	
13971	0	33760	307	0	33316	
13972	0	33864	308	0	33468	
13973	0	33860	309	0	33250	
13974	0	33680	310	0	33104	
13975	0	33764	311	0	33313	
13976	0	33860	312	0	33472	
13977	0	33864	313	0	33232	
13978	0	33668	314	0	33090	
13979	0	33764	315	0	33297	
13980	0	33872	316	0	33456	
13981	0	33856	317	0	33240	
13982	0	33678	318	0	33100	
13983	0	33768	319	0	33308	
13984	0	33876	320	0	33484	
13985	0	33860	321	0	33232	
13986	0	33684	322	0	33108	
13987	0	33764	323	0	33312	
13988	0	33872	324	0	33474	
13989	0	33860	325	0	33240	
13990	0	33676	326	0	33106	
13991	0	33764	327	0	33320	
13992	0	33872	328	0	33480	
13993	0	33856	329	0	33237	
13994	0	33680	330	0	33112	
13995	0	33760	331	0	33324	
13996	0	33864	332	0	33478	
13997	0	33840	333	0	33232	
13998	0	33664	334	0	33102	
13999	0	33756	335	0	33308	
14000	0	33868	336	0	33456	
14001	0	33856	337	0	33222	
14002	0	33672	338	0	33098	
14003	0	33760	339	0	33312	
14004	0	33864	340	0	33479	
14005	0	33856	341	0	33225	
14006	0	33672	342	0	33104	
14007	0	33760	343	0	33312	
14008	0	33864	344	0	33472	
14009	0	33852	345	0	33216	
14010	0	33672	346	0	33102	
14011	0	33760	347	0	33312	
14012	0	33868	348	0	33456	
14013	0	33864	349	0	33218	
14014	0	33672	350	0	33098	
14015	0	33760	351	0	33312	
14016	0	33864	352	0	33464	
14017	0	33852	353	0	33210	
14018	0	33672	354	0	33100	
14019	0	33756	355	0	33309	
14020	0	33868	356	0	33458	
14021	0	33852	357	0	33196	
14022	0	33664	358	0	33100	
14023	0	33748	359	0	33312	
14024	0	33856	360	0	33476	
14025	0	33850	361	0	33200	
14026	0	33660	362	0	33116	
14027	0	33756	363	0	33320	
14028	0	33860	364	0	33476	
14029	0	33856	365	0	33200	
14030	0	33664	366	0	33108	
14031	0	33752	367	0	33316	
14032	0	33860	368	0	33476	
14033	0	33848	369	0	33189	
14034	0	33656	370	0	33116	
14035	0	33748	371	0	33322	
14036	0	33852	372	0	33476	
14037	0	33844	373	0	33184	
14038	0	33644	374	0	33116	
14039	0	33740	375	0	33313	
14040	0	33844	376	0	33460	
14041	0	33840	377	0	33174	
14042	0	33644	378	0	33107	
14043	0	33744	379	0	33312	
14044	0	33848	380	0	33464	
14045	0	33832	381	0	33172	
14046	0	33646	382	0	33112	
14047	0	33732	383	0	33312	
14048	0	33844	384	0	33474	
14049	0	33832	385	0	33168	
14050	0	33648	386	0	33112	
14051	0	33736	387	0	33320	
14052	0	33856	388	0	33478	
14053	0	33832	389	0	33168	
14054	0	33644	390	0	33128	
14055	0	33732	391	0	33322	
14056	0	33840	392	0	33474	
14057	0	33824	393	0	33156	
14058	0	33644	394	0	33110	
14059	0	33736	395	0	33309	
14060	0	33832	396	0	33472	
14061	0	33824	397	0	33144	
14062	0	33636	398	0	33122	
14063	0	33728	399	0	33308	
14064	0	33836	400	0	33472	
14065	0	33820	401	0	33138	
14066	0	33636	402	0	33124	
14067	0	33728	403	0	33316	
14068	0	33840	404	0	33472	
14069	0	33828	405	0	33144	
14070	0	33628	406	0	33113	
14071	0	33728	407	0	33308	
14072	0	33832	408	0	33464	
14073	0	33812	409	0	33144	
14074	0	33636	410	0	33112	
14075	0	33728	411	0	33312	
14076	0	33832	412	0	33464	
14077	0	33804	413	0	33124	
14078	0	33628	414	0	33108	
14079	0	33712	415	0	33304	
14080	0	33836	416	0	33444	
14081	0	33808	417	0	33118	
14082	0	33626	418	0	33100	
14083	0	33708	419	0	33292	
14084	0	33828	420	0	33448	
14085	0	33804	421	0	33116	
14086	0	33612	422	0	33104	
14087	0	33708	423	0	33304	
14088	0	33820	424	0	33450	
14089	0	33812	425	0	33116	
14090	0	33616	426	0	33098	
14091	0	33708	427	0	33296	
14092	0	33816	428	0	33444	
14093	0	33812	429	0	33117	
14094	0	33612	430	0	33104	
14095	0	33712	431	0	33298	
14096	0	33824	432	0	33444	
14097	0	33796	433	0	33112	
14098	0	33608	434	0	33110	
14099	0	33697	435	0	33284	
14100	0	33816	436	0	33440	
14101	0	33788	437	0	33104	
14102	0	33612	438	0	33092	
14103	0	33700	439	0	33296	
14104	0	33812	440	0	33440	
14105	0	33796	441	0	33104	
14106	0	33612	442	0	33096	
14107	0	33700	443	0	33292	
14108	0	33804	444	0	33432	
14109	0	33784	445	0	33092	
14110	0	33608	446	0	33104	
14111	0	33704	447	0	33287	
14112	0	33816	448	0	33426	
14113	0	33788	449	0	33092	
14114	0	33602	450	0	33096	
14115	0	33704	451	0	33287	
14116	0	33808	452	0	33432	
14117	0	33776	453	0	33100	
14118	0	33600	454	0	33093	
14119	0	33696	455	0	33286	
14120	0	33808	456	0	33424	
14121	0	33784	457	0	33088	
14122	0	33606	458	0	33084	
14123	0	33708	459	0	33276	
14124	0	33812	460	0	33416	
14125	0	33780	461	0	33084	
14126	0	33604	462	0	33092	
14127	0	33696	463	0	33274	
14128	0	33804	464	0	33410	
14129	0	33776	465	0	33082	
14130	0	33592	466	0	33092	
14131	0	33692	467	0	33280	
14132	0	33816	468	0	33410	
14133	0	33776	469	0	33080	
14134	0	33584	470	0	33084	
14135	0	33688	471	0	33280	
14136	0	33806	472	0	33410	
14137	0	33776	473	0	33088	
14138	0	33584	474	0	33096	
14139	0	33700	475	0	33274	
14140	0	33804	476	0	33400	
14141	0	33772	477	0	33071	
14142	0	33592	478	0	33088	
14143	0	33704	479	0	33276	
14144	0	33796	480	0	33392	
14145	0	33768	481	0	33064	
14146	0	33596	482	0	33082	
14147	0	33692	483	0	33272	
14148	0	33796	484	0	33392	
14149	0	33770	485	0	33056	
14150	0	33584	486	0	33088	
14151	0	33692	487	0	33268	
14152	0	33792	488	0	33374	
14153	0	33768	489	0	33058	
14154	0	33580	490	0	33084	
14155	0	33692	491	0	33274	
14156	0	33796	492	0	33376	
14157	0	33764	493	0	33054	
14158	0	33576	494	0	33085	
14159	0	33692	495	0	33260	
14160	0	33796	496	0	33368	
14161	0	33760	497	0	33055	
14162	0	33588	498	0	33084	
14163	0	33696	499	0	33264	
14164	0	33798	500	0	33368	
14165	0	33748	501	0	33045	
14166	0	33576	502	0	33088	
14167	0	33692	503	0	33264	
14168	0	33792	504	0	33360	
14169	0	33752	505	0	33028	
14170	0	33588	506	0	33078	
14171	0	33684	507	0	33264	
14172	0	33800	508	0	33352	
14173	0	33760	509	0	33029	
14174	0	33576	510	0	33096	
14175	0	33688	511	0	33280	
14176	0	33788	512	0	33338	
14177	0	33752	513	0	33018	
14178	0	33568	514	0	33080	
14179	0	33694	515	0	33264	
14180	0	33796	516	0	33330	
14181	0	33752	517	0	33020	
14182	0	33572	518	0	33085	
14183	0	33684	519	0	33266	
14184	0	33793	520	0	33336	
14185	0	33740	521	0	33014	
14186	0	33560	522	0	33088	
14187	0	33672	523	0	33272	
14188	0	33784	524	0	33320	
14189	0	33746	525	0	33004	
14190	0	33560	526	0	33074	
14191	0	33680	527	0	33265	
14192	0	33792	528	0	33318	
14193	0	33744	529	0	33004	
14194	0	33556	530	0	33092	
14195	0	33676	531	0	33281	
14196	0	33780	532	0	33326	
14197	0	33736	533	0	33008	
14198	0	33548	534	0	33080	
14199	0	33668	535	0	33264	
14200	0	33780	536	0	33317	
14201	0	33744	537	0	33004	
14202	0	33548	538	0	33080	
14203	0	33668	539	0	33264	
14204	0	33776	540	0	33324	
14205	0	33728	541	0	33008	
14206	0	33554	542	0	33080	
14207	0	33660	543	0	33261	
14208	0	33760	544	0	33312	
14209	0	33728	545	0	33000	
14210	0	33542	546	0	33078	
14211	0	33668	547	0	33264	
14212	0	33764	548	0	33316	
14213	0	33716	549	0	33008	
14214	0	33536	550	0	33088	
14215	0	33656	551	0	33264	
14216	0	33772	552	0	33312	
14217	0	33712	553	0	32992	
14218	0	33532	554	0	33074	
14219	0	33664	555	0	33264	
14220	0	33768	556	0	33300	
14221	0	33712	557	0	32984	
14222	0	33532	558	0	33080	
14223	0	33660	559	0	33258	
14224	0	33768	560	0	33304	
14225	0	33708	561	0	32984	
14226	0	33532	562	0	33080	
14227	0	33664	563	0	33256	
14228	0	33762	564	0	33287	
14229	0	33696	565	0	32968	
14230	0	33532	566	0	33066	
14231	0	33656	567	0	33248	
14232	0	33760	568	0	33287	
14233	0	33704	569	0	32978	
14234	0	33520	570	0	33080	
14235	0	33660	571	0	33256	
14236	0	33760	572	0	33287	
14237	0	33692	573	0	32984	
14238	0	33508	574	0	33068	
14239	0	33660	575	0	33248	
14240	0	33776	576	0	33268	
14241	0	33688	577	0	32960	
14242	0	33536	578	0	33074	
14243	0	33664	579	0	33256	
14244	0	33768	580	0	33278	
14245	0	33696	581	0	32962	
14246	0	33520	582	0	33084	
14247	0	33664	583	0	33252	
14248	0	33752	584	0	33252	
14249	0	33676	585	0	32953	
14250	0	33516	586	0	33070	
14251	0	33672	587	0	33252	
14252	0	33764	588	0	33252	
14253	0	33692	589	0	32952	
14254	0	33520	590	0	33080	
14255	0	33656	591	0	33264	
14256	0	33772	592	0	33252	
14257	0	33684	593	0	32952	
14258	0	33516	594	0	33074	
14259	0	33668	595	0	33256	
14260	0	33772	596	0	33249	
14261	0	33700	597	0	32944	
14262	0	33536	598	0	33080	
14263	0	33668	599	0	33256	
14264	0	33768	600	0	33250	
14265	0	33692	601	0	32954	
14266	0	33524	602	0	33076	
14267	0	33660	603	0	33256	
14268	0	33768	604	0	33241	
14269	0	33688	605	0	32952	
14270	0	33536	606	0	33080	
14271	0	33684	607	0	33248	
14272	0	33780	608	0	33245	
14273	0	33688	609	0	32946	
14274	0	33536	610	0	33085	
14275	0	33672	611	0	33266	
14276	0	33780	612	0	33243	
14277	0	33684	613	0	32948	
14278	0	33532	614	0	33084	
14279	0	33668	615	0	33261	
14280	0	33772	616	0	33232	
14281	0	33688	617	0	32950	
14282	0	33540	618	0	33088	
14283	0	33680	619	0	33268	
14284	0	33776	620	0	33242	
14285	0	33684	621	0	32940	
14286	0	33532	622	0	33092	
14287	0	33672	623	0	33268	
14288	0	33777	624	0	33228	
14289	0	33684	625	0	32929	
14290	0	33528	626	0	33089	
14291	0	33672	627	0	33262	
14292	0	33792	628	0	33224	
14293	0	33688	629	0	32928	
14294	0	33540	630	0	33080	
14295	0	33672	631	0	33268	
14296	0	33768	632	0	33232	
14297	0	33688	633	0	32930	
14298	0	33536	634	0	33092	
14299	0	33668	635	0	33260	
14300	0	33776	636	0	33216	
14301	0	33676	637	0	32922	
14302	0	33548	638	0	33092	
14303	0	33680	639	0	33268	
14304	0	33788	640	0	33216	
14305	0	33688	641	0	32924	
14306	0	33534	642	0	33096	
14307	0	33672	643	0	33266	
14308	0	33768	644	0	33212	
14309	0	33672	645	0	32912	
14310	0	33532	646	0	33092	
14311	0	33680	647	0	33260	
14312	0	33776	648	0	33210	
14313	0	33676	649	0	32920	
14314	0	33528	650	0	33092	
14315	0	33668	651	0	33272	
14316	0	33768	652	0	33210	
14317	0	33676	653	0	32916	
14318	0	33536	654	0	33092	
14319	0	33664	655	0	33266	
14320	0	33772	656	0	33211	
14321	0	33680	657	0	32912	
14322	0	33524	658	0	33092	
14323	0	33670	659	0	33274	
14324	0	33760	660	0	33202	
14325	0	33680	661	0	32912	
14326	0	33524	662	0	33092	
14327	0	33668	663	0	33268	
14328	0	33760	664	0	33200	
14329	0	33676	665	0	32901	
14330	0	33520	666	0	33088	
14331	0	33664	667	0	33265	
14332	0	33768	668	0	33192	
14333	0	33672	669	0	32900	
14334	0	33516	670	0	33080	
14335	0	33656	671	0	33264	
14336	0	33760	672	0	33192	
14337	0	33664	673	0	32892	
14338	0	33508	674	0	33080	
14339	0	33661	675	0	33252	
14340	0	33760	676	0	33188	
14341	0	33664	677	0	32888	
14342	0	33508	678	0	33088	
14343	0	33652	679	0	33257	
14344	0	33754	680	0	33184	
14345	0	33672	681	0	32904	
14346	0	33512	682	0	33092	
14347	0	33664	683	0	33264	
14348	0	33760	684	0	33176	
14349	0	33664	685	0	32872	
14350	0	33518	686	0	33080	
14351	0	33648	687	0	33248	
14352	0	33752	688	0	33168	
14353	0	33660	689	0	32872	
14354	0	33504	690	0	33085	
14355	0	33656	691	0	33248	
14356	0	33752	692	0	33158	
14357	0	33656	693	0	32872	
14358	0	33496	694	0	33072	
14359	0	33656	695	0	33250	
14360	0	33760	696	0	33146	
14361	0	33656	697	0	32864	
14362	0	33524	698	0	33072	
14363	0	33640	699	0	33236	
14364	0	33752	700	0	33148	
14365	0	33660	701	0	32866	
14366	0	33512	702	0	33068	
14367	0	33656	703	0	33249	
14368	0	33752	704	0	33146	
14369	0	33652	705	0	32864	
14370	0	33512	706	0	33065	
14371	0	33648	707	0	33241	
14372	0	33752	708	0	33144	
14373	0	33652	709	0	32856	
14374	0	33508	710	0	33072	
14375	0	33640	711	0	33238	
14376	0	33752	712	0	33144	
14377	0	33640	713	0	32863	
14378	0	33500	714	0	33075	
14379	0	33648	715	0	33236	
14380	0	33752	716	0	33128	
14381	0	33644	717	0	32842	
14382	0	33512	718	0	33066	
14383	0	33640	719	0	33237	
14384	0	33744	720	0	33136	
14385	0	33628	721	0	32850	
14386	0	33504	722	0	33071	
14387	0	33644	723	0	33240	
14388	0	33740	724	0	33132	
14389	0	33636	725	0	32840	
14390	0	33504	726	0	33057	
14391	0	33640	727	0	33228	
14392	0	33748	728	0	33125	
14393	0	33620	729	0	32852	
14394	0	33500	730	0	33072	
14395	0	33632	731	0	33240	
14396	0	33728	732	0	33124	
14397	0	33620	733	0	32841	
14398	0	33496	734	0	33056	
14399	0	33632	735	0	33225	
14400	0	33728	736	0	33120	
14401	0	33628	737	0	32840	
14402	0	33500	738	0	33058	
14403	0	33624	739	0	33240	
14404	0	33740	740	0	33122	
14405	0	33632	741	0	32832	
14406	0	33500	742	0	33073	
14407	0	33628	743	0	33236	
14408	0	33736	744	0	33130	
14409	0	33628	745	0	32840	
14410	0	33496	746	0	33062	
14411	0	33644	747	0	33232	
14412	0	33736	748	0	33124	
14413	0	33616	749	0	32836	
14414	0	33496	750	0	33074	
14415	0	33632	751	0	33228	
14416	0	33740	752	0	33114	
14417	0	33616	753	0	32832	
14418	0	33508	754	0	33056	
14419	0	33636	755	0	33224	
14420	0	33728	756	0	33110	
14421	0	33612	757	0	32824	
14422	0	33496	758	0	33056	
14423	0	33636	759	0	33224	
14424	0	33740	760	0	33120	
14425	0	33624	761	0	32832	
14426	0	33508	762	0	33060	
14427	0	33632	763	0	33236	
14428	0	33732	764	0	33112	
14429	0	33616	765	0	32828	
14430	0	33500	766	0	33072	
14431	0	33636	767	0	33242	
14432	0	33736	768	0	33110	
14433	0	33616	769	0	32833	
14434	0	33504	770	0	33065	
14435	0	33624	771	0	33240	
14436	0	33730	772	0	33114	
14437	0	33616	773	0	32824	
14438	0	33504	774	0	33064	
14439	0	33632	775	0	33224	
14440	0	33740	776	0	33098	
14441	0	33620	777	0	32820	
14442	0	33496	778	0	33076	
14443	0	33632	779	0	33234	
14444	0	33744	780	0	33108	
14445	0	33624	781	0	32840	
14446	0	33508	782	0	33072	
14447	0	33636	783	0	33242	
14448	0	33736	784	0	33108	
14449	0	33628	785	0	32836	
14450	0	33504	786	0	33072	
14451	0	33636	787	0	33234	
14452	0	33740	788	0	33110	
14453	0	33636	789	0	32840	
14454	0	33500	790	0	33076	
14455	0	33632	791	0	33248	
14456	0	33744	792	0	33088	
14457	0	33616	793	0	32850	
14458	0	33504	794	0	33084	
14459	0	33632	795	0	33240	
14460	0	33736	796	0	33082	
14461	0	33616	797	0	32844	
14462	0	33508	798	0	33083	
14463	0	33648	799	0	33250	
14464	0	33736	800	0	33096	
14465	0	33624	801	0	32852	
14466	0	33506	802	0	33088	
14467	0	33640	803	0	33240	
14468	0	33740	804	0	33080	
14469	0	33620	805	0	32850	
14470	0	33508	806	0	33076	
14471	0	33644	807	0	33253	
14472	0	33740	808	0	33084	
14473	0	33628	809	0	32858	
14474	0	33512	810	0	33090	
14475	0	33632	811	0	33248	
14476	0	33744	812	0	33084	
14477	0	33616	813	0	32857	
14478	0	33508	814	0	33072	
14479	0	33632	815	0	33244	
14480	0	33736	816	0	33064	
14481	0	33616	817	0	32852	
14482	0	33504	818	0	33078	
14483	0	33644	819	0	33248	
14484	0	33748	820	0	33074	
14485	0	33617	821	0	32868	
14486	0	33516	822	0	33088	
14487	0	33636	823	0	33252	
14488	0	33740	824	0	33080	
14489	0	33616	825	0	32858	
14490	0	33500	826	0	33080	
14491	0	33636	827	0	33240	
14492	0	33740	828	0	33081	
14493	0	33612	829	0	32856	
14494	0	33504	830	0	33088	
14495	0	33632	831	0	33248	
14496	0	33732	832	0	33064	
14497	0	33620	833	0	32856	
14498	0	33492	834	0	33074	
14499	0	33632	835	0	33249	
14500	0	33724	836	0	33056	
14501	0	33608	837	0	32842	
14502	0	33484	838	0	33064	
14503	0	33624	839	0	33236	
14504	0	33732	840	0	33052	
14505	0	33624	841	0	32854	
14506	0	33488	842	0	33076	
14507	0	33620	843	0	33242	
14508	0	33720	844	0	33052	
14509	0	33600	845	0	32856	
14510	0	33492	846	0	33084	
14511	0	33620	847	0	33244	
14512	0	33728	848	0	33056	
14513	0	33604	849	0	32860	
14514	0	33484	850	0	33088	
14515	0	33620	851	0	33250	
14516	0	33708	852	0	33052	
14517	0	33593	853	0	32852	
14518	0	33472	854	0	33068	
14519	0	33600	855	0	33220	
14520	0	33712	856	0	33048	
14521	0	33584	857	0	32848	
14522	0	33476	858	0	33072	
14523	0	33616	859	0	33240	
14524	0	33716	860	0	33038	
14525	0	33600	861	0	32856	
14526	0	33476	862	0	33072	
14527	0	33620	863	0	33236	
14528	0	33704	864	0	33036	
14529	0	33592	865	0	32862	
14530	0	33476	866	0	33073	
14531	0	33604	867	0	33232	
14532	0	33724	868	0	33040	
14533	0	33592	869	0	32864	
14534	0	33480	870	0	33068	
14535	0	33614	871	0	33240	
14536	0	33704	872	0	33036	
14537	0	33584	873	0	32859	
14538	0	33476	874	0	33064	
14539	0	33596	875	0	33237	
14540	0	33696	876	0	33026	
14541	0	33581	877	0	32840	
14542	0	33472	878	0	33072	
14543	0	33612	879	0	33224	
14544	0	33708	880	0	33032	
14545	0	33596	881	0	32854	
14546	0	33476	882	0	33072	
14547	0	33600	883	0	33236	
14548	0	33708	884	0	33024	
14549	0	33576	885	0	32854	
14550	0	33472	886	0	33064	
14551	0	33600	887	0	33232	
14552	0	33704	888	0	33028	
14553	0	33580	889	0	32856	
14554	0	33472	890	0	33082	
14555	0	33608	891	0	33240	
14556	0	33704	892	0	33020	
14557	0	33576	893	0	32860	
14558	0	33468	894	0	33072	
14559	0	33604	895	0	33232	
14560	0	33700	896	0	33018	
14561	0	33580	897	0	32856	
14562	0	33468	898	0	33070	
14563	0	33608	899	0	33236	
14564	0	33708	900	0	33016	
14565	0	33588	901	0	32868	
14566	0	33484	902	0	33082	
14567	0	33612	903	0	33244	
14568	0	33708	904	0	33008	
14569	0	33588	905	0	32864	
14570	0	33480	906	0	33072	
14571	0	33612	907	0	33240	
14572	0	33700	908	0	33016	
14573	0	33584	909	0	32872	
14574	0	33472	910	0	33076	
14575	0	33604	911	0	33245	
14576	0	33716	912	0	33014	
14577	0	33568	913	0	32868	
14578	0	33476	914	0	33086	
14579	0	33608	915	0	33236	
14580	0	33704	916	0	33002	
14581	0	33580	917	0	32860	
14582	0	33480	918	0	33080	
14583	0	33604	919	0	33236	
14584	0	33720	920	0	33002	
14585	0	33580	921	0	32866	
14586	0	33480	922	0	33076	
14587	0	33612	923	0	33232	
14588	0	33704	924	0	33000	
14589	0	33576	925	0	32857	
14590	0	33476	926	0	33076	
14591	0	33608	927	0	33232	
14592	0	33720	928	0	32992	
14593	0	33592	929	0	32856	
14594	0	33484	930	0	33074	
14595	0	33608	931	0	33240	
14596	0	33708	932	0	33001	
14597	0	33580	933	0	32873	
14598	0	33480	934	0	33068	
14599	0	33592	935	0	33240	
14600	0	33704	936	0	32994	
14601	0	33568	937	0	32864	
14602	0	33476	938	0	33072	
14603	0	33616	939	0	33236	
14604	0	33712	940	0	32984	
14605	0	33576	941	0	32876	
14606	0	33476	942	0	33080	
14607	0	33604	943	0	33245	
14608	0	33700	944	0	32976	
14609	0	33568	945	0	32886	
14610	0	33480	946	0	33088	
14611	0	33612	947	0	33244	
14612	0	33708	948	0	32976	
14613	0	33572	949	0	32882	
14614	0	33480	950	0	33090	
14615	0	33612	951	0	33248	
14616	0	33704	952	0	32972	
14617	0	33568	953	0	32880	
14618	0	33472	954	0	33084	
14619	0	33592	955	0	33248	
14620	0	33712	956	0	32970	
14621	0	33572	957	0	32866	
14622	0	33472	958	0	33076	
14623	0	33604	959	0	33240	
14624	0	33712	960	0	32964	
14625	0	33560	961	0	32880	
14626	0	33468	962	0	33084	
14627	0	33608	963	0	33240	
14628	0	33708	964	0	32964	
14629	0	33560	965	0	32872	
14630	0	33472	966	0	33072	
14631	0	33592	967	0	33244	
14632	0	33708	968	0	32972	
14633	0	33560	969	0	32889	
14634	0	33480	970	0	33088	
14635	0	33596	971	0	33240	
14636	0	33700	972	0	32968	
14637	0	33556	973	0	32888	
14638	0	33476	974	0	33088	
14639	0	33592	975	0	33248	
14640	0	33696	976	0	32953	
14641	0	33544	977	0	32880	
14642	0	33460	978	0	33082	
14643	0	33596	979	0	33240	
14644	0	33696	980	0	32954	
14645	0	33544	981	0	32890	
14646	0	33460	982	0	33088	
14647	0	33584	983	0	33244	
14648	0	33692	984	0	32950	
14649	0	33552	985	0	32880	
14650	0	33456	986	0	33094	
14651	0	33600	987	0	33240	
14652	0	33696	988	0	32946	
14653	0	33548	989	0	32890	
14654	0	33464	990	0	33088	
14655	0	33588	991	0	33254	
14656	0	33680	992	0	32960	
14657	0	33552	993	0	32884	
14658	0	33456	994	0	33080	
14659	0	33588	995	0	33233	
14660	0	33692	996	0	32936	
14661	0	33532	997	0	32878	
14662	0	33456	998	0	33080	
14663	0	33592	999	0	33232	
14664	0	33696	1000	0	32936	
14665	0	33532	1001	0	32888	
14666	0	33460	1002	0	33089	
14667	0	33584	1003	0	33240	
14668	0	33672	1004	0	32930	
14669	0	33520	1005	0	32880	
14670	0	33456	1006	0	33073	
14671	0	33596	1007	0	33238	
14672	0	33692	1008	0	32924	
14673	0	33536	1009	0	32876	
14674	0	33460	1010	0	33084	
14675	0	33580	1011	0	33244	
14676	0	33688	1012	0	32928	
14677	0	33516	1013	0	32893	
14678	0	33452	1014	0	33084	
14679	0	33588	1015	0	33240	
14680	0	33680	1016	0	32923	
14681	0	33516	1017	0	32888	
14682	0	33456	1018	0	33080	
14683	0	33592	1019	0	33240	
14684	0	33684	1020	0	32924	
14685	0	33520	1021	0	32884	
14686	0	33472	1022	0	33090	
14687	0	33592	1023	0	33242	
14688	0	33692	1024	0	32914	
14689	0	33516	1025	0	32888	
14690	0	33456	1026	0	33094	
14691	0	33596	1027	0	33242	
14692	0	33688	1028	0	32928	
14693	0	33524	1029	0	32900	
14694	0	33456	1030	0	33088	
14695	0	33600	1031	0	33248	
14696	0	33692	1032	0	32916	
14697	0	33520	1033	0	32902	
14698	0	33472	1034	0	33088	
14699	0	33592	1035	0	33245	
14700	0	33700	1036	0	32912	
14701	0	33524	1037	0	32903	
14702	0	33472	1038	0	33104	
14703	0	33596	1039	0	33248	
14704	0	33696	1040	0	32910	
14705	0	33528	1041	0	32908	
14706	0	33468	1042	0	33104	
14707	0	33584	1043	0	33256	
14708	0	33688	1044	0	32900	
14709	0	33516	1045	0	32912	
14710	0	33468	1046	0	33096	
14711	0	33600	1047	0	33248	
14712	0	33700	1048	0	32922	
14713	0	33528	1049	0	32920	
14714	0	33472	1050	0	33112	
14715	0	33594	1051	0	33252	
14716	0	33704	1052	0	32920	
14717	0	33508	1053	0	32916	
14718	0	33472	1054	0	33104	
14719	0	33596	1055	0	33248	
14720	0	33704	1056	0	32924	
14721	0	33516	1057	0	32912	
14722	0	33480	1058	0	33114	
14723	0	33600	1059	0	33258	
14724	0	33704	1060	0	32916	
14725	0	33528	1061	0	32924	
14726	0	33484	1062	0	33122	
14727	0	33596	1063	0	33252	
14728	0	33696	1064	0	32913	
14729	0	33512	1065	0	32912	
14730	0	33480	1066	0	33104	
14731	0	33600	1067	0	33244	
14732	0	33704	1068	0	32912	
14733	0	33512	1069	0	32924	
14734	0	33488	1070	0	33120	
14735	0	33602	1071	0	33256	
14736	0	33696	1072	0	32916	
14737	0	33532	1073	0	32932	
14738	0	33484	1074	0	33120	
14739	0	33608	1075	0	33257	
14740	0	33700	1076	0	32912	
14741	0	33524	1077	0	32929	
14742	0	33480	1078	0	33120	
14743	0	33600	1079	0	33242	
14744	0	33704	1080	0	32912	
14745	0	33520	1081	0	32928	
14746	0	33476	1082	0	33128	
14747	0	33592	1083	0	33232	
14748	0	33700	1084	0	32906	
14749	0	33520	1085	0	32928	
14750	0	33472	1086	0	33120	
14751	0	33600	1087	0	33220	
14752	0	33700	1088	0	32896	
14753	0	33524	1089	0	32932	
14754	0	33484	1090	0	33124	
14755	0	33596	1091	0	33216	
14756	0	33704	1092	0	32890	
14757	0	33512	1093	0	32938	
14758	0	33472	1094	0	33113	
14759	0	33600	1095	0	33204	
14760	0	33688	1096	0	32876	
14761	0	33504	1097	0	32921	
14762	0	33472	1098	0	33114	
14763	0	33604	1099	0	33209	
14764	0	33692	1100	0	32880	
14765	0	33508	1101	0	32929	
14766	0	33464	1102	0	33122	
14767	0	33592	1103	0	33190	
14768	0	33692	1104	0	32878	
14769	0	33500	1105	0	32920	
14770	0	33468	1106	0	33106	
14771	0	33592	1107	0	33190	
14772	0	33692	1108	0	32880	
14773	0	33500	1109	0	32932	
14774	0	33472	1110	0	33108	
14775	0	33592	1111	0	33184	
14776	0	33696	1112	0	32872	
14777	0	33496	1113	0	32912	
14778	0	33460	1114	0	33108	
14779	0	33576	1115	0	33182	
14780	0	33684	1116	0	32856	
14781	0	33488	1117	0	32920	
14782	0	33456	1118	0	33100	
14783	0	33588	1119	0	33172	
14784	0	33684	1120	0	32858	
14785	0	33488	1121	0	32916	
14786	0	33460	1122	0	33106	
14787	0	33568	1123	0	33174	
14788	0	33672	1124	0	32864	
14789	0	33476	1125	0	32912	
14790	0	33444	1126	0	33092	
14791	0	33564	1127	0	33168	
14792	0	33668	1128	0	32848	
14793	0	33484	1129	0	32912	
14794	0	33452	1130	0	33100	
14795	0	33568	1131	0	33164	
14796	0	33656	1132	0	32848	
14797	0	33460	1133	0	32913	
14798	0	33434	1134	0	33096	
14799	0	33556	1135	0	33160	
14800	0	33652	1136	0	32836	
14801	0	33468	1137	0	32904	
14802	0	33432	1138	0	33088	
14803	0	33564	1139	0	33142	
14804	0	33664	1140	0	32829	
14805	0	33456	1141	0	32921	
14806	0	33428	1142	0	33096	
14807	0	33556	1143	0	33140	
14808	0	33660	1144	0	32829	
14809	0	33456	1145	0	32906	
14810	0	33444	1146	0	33094	
14811	0	33548	1147	0	33128	
14812	0	33640	1148	0	32818	
14813	0	33456	1149	0	32901	
14814	0	33432	1150	0	33081	
14815	0	33556	1151	0	33112	
14816	0	33660	1152	0	32810	
14817	0	33448	1153	0	32904	
14818	0	33436	1154	0	33096	
14819	0	33553	1155	0	33118	
14820	0	33648	1156	0	32806	
14821	0	33440	1157	0	32897	
14822	0	33424	1158	0	33088	
14823	0	33544	1159	0	33112	
14824	0	33644	1160	0	32810	
14825	0	33448	1161	0	32904	
14826	0	33416	1162	0	33092	
14827	0	33544	1163	0	33113	
14828	0	33632	1164	0	32808	
14829	0	33428	1165	0	32897	
14830	0	33422	1166	0	33080	
14831	0	33536	1167	0	33104	
14832	0	33632	1168	0	32800	
14833	0	33444	1169	0	32908	
14834	0	33408	1170	0	33084	
14835	0	33528	1171	0	33108	
14836	0	33636	1172	0	32788	
14837	0	33424	1173	0	32896	
14838	0	33404	1174	0	33080	
14839	0	33520	1175	0	33092	
14840	0	33624	1176	0	32784	
14841	0	33424	1177	0	32900	
14842	0	33408	1178	0	33080	
14843	0	33528	1179	0	33096	
14844	0	33632	1180	0	32784	
14845	0	33421	1181	0	32896	
14846	0	33404	1182	0	33084	
14847	0	33524	1183	0	33090	
14848	0	33624	1184	0	32786	
14849	0	33420	1185	0	32896	
14850	0	33404	1186	0	33072	
14851	0	33520	1187	0	33076	
14852	0	33612	1188	0	32775	
14853	0	33424	1189	0	32888	
14854	0	33392	1190	0	33080	
14855	0	33520	1191	0	33088	
14856	0	33609	1192	0	32774	
14857	0	33416	1193	0	32893	
14858	0	33400	1194	0	33080	
14859	0	33512	1195	0	33068	
14860	0	33612	1196	0	32772	
14861	0	33410	1197	0	32892	
14862	0	33392	1198	0	33080	
14863	0	33508	1199	0	33090	
14864	0	33616	1200	0	32768	
14865	0	33408	1201	0	32906	
14866	0	33400	1202	0	33076	
14867	0	33512	1203	0	33080	
14868	0	33608	1204	0	32768	
14869	0	33404	1205	0	32891	
14870	0	33388	1206	0	33076	
14871	0	33512	1207	0	33080	
14872	0	33608	1208	0	32764	
14873	0	33396	1209	0	32894	
14874	0	33392	1210	0	33076	
14875	0	33516	1211	0	33076	
14876	0	33604	1212	0	32770	
14877	0	33400	1213	0	32896	
14878	0	33380	1214	0	33064	
14879	0	33516	1215	0	33066	
14880	0	33604	1216	0	32760	
14881	0	33400	1217	0	32892	
14882	0	33376	1218	0	33072	
14883	0	33508	1219	0	33068	
14884	0	33604	1220	0	32764	
14885	0	33388	1221	0	32900	
14886	0	33384	1222	0	33080	
14887	0	33500	1223	0	33068	
14888	0	33600	1224	0	32762	
14889	0	33400	1225	0	32896	
14890	0	33384	1226	0	33068	
14891	0	33500	1227	0	33042	
14892	0	33604	1228	0	32754	
14893	0	33404	1229	0	32889	
14894	0	33384	1230	0	33068	
14895	0	33508	1231	0	33046	
14896	0	33588	1232	0	32746	
14897	0	33380	1233	0	32888	
14898	0	33372	1234	0	33060	
14899	0	33496	1235	0	33034	
14900	0	33584	1236	0	32746	
14901	0	33380	1237	0	32892	
14902	0	33372	1238	0	33068	
14903	0	33496	1239	0	33044	
14904	0	33588	1240	0	32740	
14905	0	33388	1241	0	32888	
14906	0	33376	1242	0	33074	
14907	0	33496	1243	0	33048	
14908	0	33588	1244	0	32737	
14909	0	33384	1245	0	32896	
14910	0	33372	1246	0	33072	
14911	0	33504	1247	0	33034	
14912	0	33580	1248	0	32732	
14913	0	33380	1249	0	32900	
14914	0	33368	1250	0	33076	
14915	0	33488	1251	0	33029	
14916	0	33580	1252	0	32728	
14917	0	33372	1253	0	32888	
14918	0	33368	1254	0	33056	
14919	0	33480	1255	0	33012	
14920	0	33580	1256	0	32722	
14921	0	33376	1257	0	32880	
14922	0	33376	1258	0	33064	
14923	0	33492	1259	0	33012	
14924	0	33580	1260	0	32720	
14925	0	33368	1261	0	32890	
14926	0	33364	1262	0	33057	
14927	0	33484	1263	0	33012	
14928	0	33568	1264	0	32714	
14929	0	33372	1265	0	32882	
14930	0	33352	1266	0	33057	
14931	0	33480	1267	0	33008	
14932	0	33576	1268	0	32704	
14933	0	33352	1269	0	32882	
14934	0	33360	1270	0	33056	
14935	0	33480	1271	0	33004	
14936	0	33564	1272	0	32700	
14937	0	33360	1273	0	32868	
14938	0	33354	1274	0	33044	
14939	0	33464	1275	0	32992	
14940	0	33548	1276	0	32694	
14941	0	33352	1277	0	32871	
14942	0	33357	1278	0	33040	
14943	0	33476	1279	0	32994	
14944	0	33556	1280	0	32688	
14945	0	33352	1281	0	32882	
14946	0	33352	1282	0	33052	
14947	0	33468	1283	0	32985	
14948	0	33556	1284	0	32676	
14949	0	33344	1285	0	32874	
14950	0	33348	1286	0	33042	
14951	0	33472	1287	0	32984	
14952	0	33544	1288	0	32690	
14953	0	33344	1289	0	32864	
14954	0	33340	1290	0	33042	
14955	0	33460	1291	0	32982	
14956	0	33540	1292	0	32686	
14957	0	33344	1293	0	32860	
14958	0	33340	1294	0	33036	
14959	0	33448	1295	0	32960	
14960	0	33548	1296	0	32683	
14961	0	33336	1297	0	32860	
14962	0	33336	1298	0	33036	
14963	0	33456	1299	0	32962	
14964	0	33546	1300	0	32664	
14965	0	33344	1301	0	32864	
14966	0	33340	1302	0	33040	
14967	0	33468	1303	0	32962	
14968	0	33548	1304	0	32674	
14969	0	33342	1305	0	32864	
14970	0	33336	1306	0	33032	
14971	0	33464	1307	0	32944	
14972	0	33548	1308	0	32668	
14973	0	33346	1309	0	32860	
14974	0	33336	1310	0	33028	
14975	0	33456	1311	0	32952	
14976	0	33528	1312	0	32665	
14977	0	33320	1313	0	32854	
14978	0	33328	1314	0	33024	
14979	0	33444	1315	0	32944	
14980	0	33528	1316	0	32656	
14981	0	33312	1317	0	32848	
14982	0	33340	1318	0	33019	
14983	0	33452	1319	0	32936	
14984	0	33532	1320	0	32662	
14985	0	33328	1321	0	32848	
14986	0	33336	1322	0	33028	
14987	0	33452	1323	0	32948	
14988	0	33533	1324	0	32658	
14989	0	33324	1325	0	32848	
14990	0	33320	1326	0	33024	
14991	0	33440	1327	0	32946	
14992	0	33528	1328	0	32644	
14993	0	33320	1329	0	32852	
14994	0	33320	1330	0	33017	
14995	0	33432	1331	0	32928	
14996	0	33509	1332	0	32642	
14997	0	33304	1333	0	32840	
14998	0	33312	1334	0	33008	
14999	0	33428	1335	0	32920	
15000	0	33496	1336	0	32624	
15001	0	33308	1337	0	32832	
15002	0	33308	1338	0	32996	
15003	0	33424	1339	0	32902	
15004	0	33504	1340	0	32621	
15005	0	33292	1341	0	32826	
15006	0	33292	1342	0	33004	
15007	0	33404	1343	0	32916	
15008	0	33496	1344	0	32620	
15009	0	33288	1345	0	32820	
15010	0	33292	1346	0	32996	
15011	0	33412	1347	0	32904	
15012	0	33484	1348	0	32602	
15013	0	33284	1349	0	32829	
15014	0	33288	1350	0	32992	
15015	0	33400	1351	0	32898	
15016	0	33480	1352	0	32604	
15017	0	33268	1353	0	32800	
15018	0	33282	1354	0	32980	
15019	0	33392	1355	0	32882	
15020	0	33460	1356	0	32584	
15021	0	33260	1357	0	32792	
15022	0	33276	1358	0	32968	
15023	0	33400	1359	0	32870	
15024	0	33464	1360	0	32581	
15025	0	33248	1361	0	32796	
15026	0	33276	1362	0	32968	
15027	0	33388	1363	0	32868	
15028	0	33456	1364	0	32564	
15029	0	33260	1365	0	32780	
15030	0	33272	1366	0	32952	
15031	0	33392	1367	0	32856	
15032	0	33464	1368	0	32560	
15033	0	33256	1369	0	32784	
15034	0	33264	1370	0	32956	
15035	0	33388	1371	0	32844	
15036	0	33444	1372	0	32552	
15037	0	33248	1373	0	32772	
15038	0	33272	1374	0	32944	
15039	0	33376	1375	0	32824	
15040	0	33456	1376	0	32532	
15041	0	33244	1377	0	32754	
15042	0	33264	1378	0	32930	
15043	0	33376	1379	0	32823	
15044	0	33444	1380	0	32524	
15045	0	33248	1381	0	32758	
15046	0	33264	1382	0	32920	
15047	0	33382	1383	0	32804	
15048	0	33448	1384	0	32516	
15049	0	33244	1385	0	32746	
15050	0	33260	1386	0	32908	
15051	0	33384	1387	0	32804	
15052	0	33452	1388	0	32508	
15053	0	33248	1389	0	32736	
15054	0	33260	1390	0	32922	
15055	0	33376	1391	0	32800	
15056	0	33436	1392	0	32508	
15057	0	33240	1393	0	32752	
15058	0	33248	1394	0	32908	
15059	0	33376	1395	0	32775	
15060	0	33440	1396	0	32492	
15061	0	33240	1397	0	32736	
15062	0	33252	1398	0	32900	
15063	0	33388	1399	0	32775	
15064	0	33440	1400	0	32480	
15065	0	33228	1401	0	32736	
15066	0	33260	1402	0	32904	
15067	0	33376	1403	0	32768	
15068	0	33436	1404	0	32492	
15069	0	33240	1405	0	32728	
15070	0	33256	1406	0	32896	
15071	0	33388	1407	0	32764	
15072	0	33444	1408	0	32488	
15073	0	33236	1409	0	32732	
15074	0	33252	1410	0	32899	
15075	0	33376	1411	0	32754	
15076	0	33436	1412	0	32486	
15077	0	33240	1413	0	32720	
15078	0	33256	1414	0	32880	
15079	0	33360	1415	0	32736	
15080	0	33424	1416	0	32464	
15081	0	33232	1417	0	32713	
15082	0	33252	1418	0	32868	
15083	0	33368	1419	0	32722	
15084	0	33424	1420	0	32472	
15085	0	33232	1421	0	32708	
15086	0	33248	1422	0	32868	
15087	0	33364	1423	0	32720	
15088	0	33424	1424	0	32474	
15089	0	33220	1425	0	32688	
15090	0	33252	1426	0	32872	
15091	0	33360	1427	0	32712	
15092	0	33424	1428	0	32460	
15093	0	33220	1429	0	32698	
15094	0	33242	1430	0	32866	
15095	0	33360	1431	0	32712	
15096	0	33412	1432	0	32464	
15097	0	33220	1433	0	32688	
15098	0	33232	1434	0	32856	
15099	0	33344	1435	0	32696	
15100	0	33420	1436	0	32440	
15101	0	33212	1437	0	32680	
15102	0	33216	1438	0	32848	
15103	0	33356	1439	0	32682	
15104	0	33412	1440	0	32440	
15105	0	33200	1441	0	32680	
15106	0	33224	1442	0	32848	
15107	0	33336	1443	0	32682	
15108	0	33400	1444	0	32448	
15109	0	33204	1445	0	32676	
15110	0	33216	1446	0	32845	
15111	0	33340	1447	0	32672	
15112	0	33404	1448	0	32442	
15113	0	33208	1449	0	32675	
15114	0	33208	1450	0	32840	
15115	0	33336	1451	0	32664	
15116	0	33396	1452	0	32444	
15117	0	33192	1453	0	32672	
15118	0	33208	1454	0	32840	
15119	0	33328	1455	0	32656	
15120	0	33388	1456	0	32424	
15121	0	33188	1457	0	32648	
15122	0	33208	1458	0	32816	
15123	0	33320	1459	0	32656	
15124	0	33388	1460	0	32432	
15125	0	33180	1461	0	32652	
15126	0	33196	1462	0	32820	
15127	0	33324	1463	0	32648	
15128	0	33388	1464	0	32420	
15129	0	33176	1465	0	32656	
15130	0	33200	1466	0	32824	
15131	0	33316	1467	0	32644	
15132	0	33380	1468	0	32416	
15133	0	33172	1469	0	32656	
15134	0	33188	1470	0	32817	
15135	0	33316	1471	0	32640	
15136	0	33380	1472	0	32424	
15137	0	33177	1473	0	32644	
15138	0	33196	1474	0	32816	
15139	0	33304	1475	0	32636	
15140	0	33360	1476	0	32412	
15141	0	33168	1477	0	32636	
15142	0	33176	1478	0	32802	
15143	0	33300	1479	0	32632	
15144	0	33360	1480	0	32412	
15145	0	33172	1481	0	32644	
15146	0	33192	1482	0	32800	
15147	0	33300	1483	0	32624	
15148	0	33368	1484	0	32416	
15149	0	33156	1485	0	32632	
15150	0	33176	1486	0	32802	
15151	0	33296	1487	0	32626	
15152	0	33364	1488	0	32408	
15153	0	33156	1489	0	32640	
15154	0	33180	1490	0	32800	
15155	0	33288	1491	0	32640	
15156	0	33356	1492	0	32409	
15157	0	33152	1493	0	32634	
15158	0	33172	1494	0	32796	
15159	0	33292	1495	0	32628	
15160	0	33364	1496	0	32400	
15161	0	33148	1497	0	32628	
15162	0	33168	1498	0	32804	
15163	0	33300	1499	0	32628	
15164	0	33344	1500	0	32408	
15165	0	33144	1501	0	32632	
15166	0	33180	1502	0	32796	
15167	0	33292	1503	0	32614	
15168	0	33340	1504	0	32400	
15169	0	33152	1505	0	32630	
15170	0	33172	1506	0	32792	
15171	0	33296	1507	0	32612	
15172	0	33356	1508	0	32410	
15173	0	33160	1509	0	32633	
15174	0	33172	1510	0	32802	
15175	0	33302	1511	0	32620	
15176	0	33341	1512	0	32408	
15177	0	33140	1513	0	32640	
15178	0	33172	1514	0	32800	
15179	0	33296	1515	0	32616	
15180	0	33344	1516	0	32404	
15181	0	33144	1517	0	32636	
15182	0	33172	1518	0	32800	
15183	0	33292	1519	0	32616	
15184	0	33344	1520	0	32412	
15185	0	33140	1521	0	32644	
15186	0	33180	1522	0	32792	
15187	0	33296	1523	0	32624	
15188	0	33332	1524	0	32406	
15189	0	33136	1525	0	32638	
15190	0	33180	1526	0	32800	
15191	0	33292	1527	0	32614	
15192	0	33340	1528	0	32406	
15193	0	33136	1529	0	32644	
15194	0	33184	1530	0	32808	
15195	0	33304	1531	0	32624	
15196	0	33340	1532	0	32413	
15197	0	33140	1533	0	32632	
15198	0	33176	1534	0	32808	
15199	0	33296	1535	0	32618	
15200	0	33332	1536	0	32409	
15201	0	33132	1537	0	32640	
15202	0	33184	1538	0	32804	
15203	0	33304	1539	0	32612	
15204	0	33320	1540	0	32408	
15205	0	33134	1541	0	32640	
15206	0	33184	1542	0	32804	
15207	0	33296	1543	0	32612	
15208	0	33324	1544	0	32408	
15209	0	33136	1545	0	32628	
15210	0	33184	1546	0	32800	
15211	0	33304	1547	0	32600	
15212	0	33328	1548	0	32412	
15213	0	33136	1549	0	32636	
15214	0	33189	1550	0	32811	
15215	0	33312	1551	0	32612	
15216	0	33324	1552	0	32420	
15217	0	33132	1553	0	32636	
15218	0	33184	1554	0	32808	
15219	0	33300	1555	0	32602	
15220	0	33320	1556	0	32416	
15221	0	33124	1557	0	32632	
15222	0	33184	1558	0	32794	
15223	0	33305	1559	0	32596	
15224	0	33328	1560	0	32418	
15225	0	33132	1561	0	32636	
15226	0	33184	1562	0	32800	
15227	0	33298	1563	0	32592	
15228	0	33316	1564	0	32416	
15229	0	33124	1565	0	32636	
15230	0	33188	1566	0	32800	
15231	0	33300	1567	0	32588	
15232	0	33320	1568	0	32404	
15233	0	33128	1569	0	32632	
15234	0	33184	1570	0	32793	
15235	0	33294	1571	0	32586	
15236	0	33312	1572	0	32420	
15237	0	33120	1573	0	32632	
15238	0	33180	1574	0	32800	
15239	0	33292	1575	0	32580	
15240	0	33304	1576	0	32418	
15241	0	33112	1577	0	32620	
15242	0	33172	1578	0	32786	
15243	0	33288	1579	0	32568	
15244	0	33296	1580	0	32412	
15245	0	33108	1581	0	32632	
15246	0	33172	1582	0	32792	
15247	0	33284	1583	0	32576	
15248	0	33292	1584	0	32392	
15249	0	33100	1585	0	32620	
15250	0	33160	1586	0	32788	
15251	0	33280	1587	0	32568	
15252	0	33288	1588	0	32412	
15253	0	33112	1589	0	32624	
15254	0	33172	1590	0	32784	
15255	0	33280	1591	0	32564	
15256	0	33288	1592	0	32400	
15257	0	33100	1593	0	32624	
15258	0	33156	1594	0	32784	
15259	0	33272	1595	0	32556	
15260	0	33284	1596	0	32392	
15261	0	33096	1597	0	32620	
15262	0	33164	1598	0	32786	
15263	0	33268	1599	0	32570	
15264	0	33280	1600	0	32408	
15265	0	33092	1601	0	32620	
15266	0	33148	1602	0	32792	
15267	0	33264	1603	0	32548	
15268	0	33286	1604	0	32396	
15269	0	33076	1605	0	32608	
15270	0	33148	1606	0	32775	
15271	0	33264	1607	0	32538	
15272	0	33272	1608	0	32396	
15273	0	33080	1609	0	32600	
15274	0	33148	1610	0	32780	
15275	0	33256	1611	0	32546	
15276	0	33260	1612	0	32392	
15277	0	33072	1613	0	32616	
15278	0	33156	1614	0	32768	
15279	0	33256	1615	0	32541	
15280	0	33272	1616	0	32389	
15281	0	33076	1617	0	32612	
15282	0	33140	1618	0	32774	
15283	0	33256	1619	0	32528	
15284	0	33264	1620	0	32405	
15285	0	33072	1621	0	32612	
15286	0	33144	1622	0	32778	
15287	0	33244	1623	0	32537	
15288	0	33260	1624	0	32390	
15289	0	33072	1625	0	32608	
15290	0	33124	1626	0	32764	
15291	0	33248	1627	0	32524	
15292	0	33256	1628	0	32384	
15293	0	33068	1629	0	32608	
15294	0	33132	1630	0	32774	
15295	0	33240	1631	0	32534	
15296	0	33248	1632	0	32392	
15297	0	33056	1633	0	32608	
15298	0	33124	1634	0	32770	
15299	0	33236	1635	0	32522	
15300	0	33256	1636	0	32402	
15301	0	33060	1637	0	32602	
15302	0	33136	1638	0	32772	
15303	0	33240	1639	0	32534	
15304	0	33264	1640	0	32400	
15305	0	33064	1641	0	32620	
15306	0	33132	1642	0	32775	
15307	0	33244	1643	0	32532	
15308	0	33248	1644	0	32388	
15309	0	33056	1645	0	32604	
15310	0	33132	1646	0	32768	
15311	0	33240	1647	0	32522	
15312	0	33248	1648	0	32378	
15313	0	33064	1649	0	32604	
15314	0	33132	1650	0	32772	
15315	0	33252	1651	0	32522	
15316	0	33260	1652	0	32393	
15317	0	33060	1653	0	32618	
15318	0	33120	1654	0	32772	
15319	0	33244	1655	0	32525	
15320	0	33264	1656	0	32396	
15321	0	33072	1657	0	32608	
15322	0	33140	1658	0	32775	
15323	0	33248	1659	0	32530	
15324	0	33260	1660	0	32392	
15325	0	33080	1661	0	32613	
15326	0	33128	1662	0	32776	
15327	0	33248	1663	0	32533	
15328	0	33256	1664	0	32396	
15329	0	33076	1665	0	32608	
15330	0	33136	1666	0	32760	
15331	0	33252	1667	0	32528	
15332	0	33268	1668	0	32392	
15333	0	33068	1669	0	32608	
15334	0	33132	1670	0	32764	
15335	0	33248	1671	0	32528	
15336	0	33256	1672	0	32388	
15337	0	33072	1673	0	32602	
15338	0	33144	1674	0	32756	
15339	0	33260	1675	0	32526	
15340	0	33260	1676	0	32388	
15341	0	33072	1677	0	32610	
15342	0	33144	1678	0	32764	
15343	0	33264	1679	0	32518	
15344	0	33264	1680	0	32392	
15345	0	33076	1681	0	32600	
15346	0	33140	1682	0	32776	
15347	0	33266	1683	0	32520	
15348	0	33264	1684	0	32394	
15349	0	33072	1685	0	32600	
15350	0	33144	1686	0	32760	
15351	0	33264	1687	0	32504	
15352	0	33252	1688	0	32392	
15353	0	33080	1689	0	32594	
15354	0	33144	1690	0	32760	
15355	0	33252	1691	0	32504	
15356	0	33248	1692	0	32388	
15357	0	33070	1693	0	32602	
15358	0	33152	1694	0	32756	
15359	0	33260	1695	0	32500	
15360	0	33252	1696	0	32376	
15361	0	33060	1697	0	32592	
15362	0	33148	1698	0	32760	
15363	0	33264	1699	0	32502	
15364	0	33260	1700	0	32378	
15365	0	33066	1701	0	32593	
15366	0	33144	1702	0	32752	
15367	0	33272	1703	0	32492	
15368	0	33248	1704	0	32378	
15369	0	33056	1705	0	32586	
15370	0	33140	1706	0	32744	
15371	0	33248	1707	0	32486	
15372	0	33244	1708	0	32368	
15373	0	33056	1709	0	32580	
15374	0	33144	1710	0	32728	
15375	0	33260	1711	0	32482	
15376	0	33248	1712	0	32352	
15377	0	33056	1713	0	32572	
15378	0	33136	1714	0	32728	
15379	0	33240	1715	0	32472	
15380	0	33242	1716	0	32344	
15381	0	33048	1717	0	32560	
15382	0	33132	1718	0	32722	
15383	0	33248	1719	0	32464	
15384	0	33248	1720	0	32352	
15385	0	33052	1721	0	32576	
15386	0	33156	1722	0	32728	
15387	0	33248	1723	0	32464	
15388	0	33248	1724	0	32356	
15389	0	33044	1725	0	32558	
15390	0	33144	1726	0	32714	
15391	0	33248	1727	0	32457	
15392	0	33240	1728	0	32344	
15393	0	33048	1729	0	32554	
15394	0	33140	1730	0	32714	
15395	0	33248	1731	0	32452	
15396	0	33242	1732	0	32345	
15397	0	33052	1733	0	32544	
15398	0	33152	1734	0	32706	
15399	0	33252	1735	0	32436	
15400	0	33224	1736	0	32338	
15401	0	33048	1737	0	32544	
15402	0	33150	1738	0	32704	
15403	0	33256	1739	0	32432	
15404	0	33240	1740	0	32342	
15405	0	33052	1741	0	32556	
15406	0	33148	1742	0	32706	
15407	0	33248	1743	0	32428	
15408	0	33232	1744	0	32336	
15409	0	33048	1745	0	32544	
15410	0	33144	1746	0	32704	
15411	0	33252	1747	0	32428	
15412	0	33228	1748	0	32336	
15413	0	33052	1749	0	32532	
15414	0	33156	1750	0	32700	
15415	0	33248	1751	0	32425	
15416	0	33220	1752	0	32332	
15417	0	33044	1753	0	32530	
15418	0	33140	1754	0	32688	
15419	0	33260	1755	0	32416	
15420	0	33224	1756	0	32324	
15421	0	33036	1757	0	32532	
15422	0	33140	1758	0	32704	
15423	0	33256	1759	0	32416	
15424	0	33220	1760	0	32330	
15425	0	33040	1761	0	32536	
15426	0	33152	1762	0	32700	
15427	0	33252	1763	0	32425	
15428	0	33228	1764	0	32332	
15429	0	33048	1765	0	32538	
15430	0	33140	1766	0	32696	
15431	0	33248	1767	0	32422	
15432	0	33228	1768	0	32324	
15433	0	33032	1769	0	32540	
15434	0	33136	1770	0	32697	
15435	0	33252	1771	0	32416	
15436	0	33224	1772	0	32326	
15437	0	33032	1773	0	32528	
15438	0	33128	1774	0	32684	
15439	0	33248	1775	0	32408	
15440	0	33220	1776	0	32320	
15441	0	33032	1777	0	32525	
15442	0	33132	1778	0	32696	
15443	0	33252	1779	0	32412	
15444	0	33216	1780	0	32337	
15445	0	33036	1781	0	32542	
15446	0	33140	1782	0	32700	
15447	0	33252	1783	0	32410	
15448	0	33216	1784	0	32336	
15449	0	33032	1785	0	32536	
15450	0	33156	1786	0	32701	
15451	0	33248	1787	0	32400	
15452	0	33224	1788	0	32338	
15453	0	33028	1789	0	32541	
15454	0	33152	1790	0	32700	
15455	0	33256	1791	0	32402	
15456	0	33212	1792	0	32332	
15457	0	33028	1793	0	32540	
15458	0	33132	1794	0	32697	
15459	0	33244	1795	0	32396	
15460	0	33196	1796	0	32324	
15461	0	33020	1797	0	32542	
15462	0	33140	1798	0	32704	
15463	0	33248	1799	0	32402	
15464	0	33208	1800	0	32340	
15465	0	33024	1801	0	32557	
15466	0	33144	1802	0	32704	
15467	0	33254	1803	0	32408	
15468	0	33212	1804	0	32340	
15469	0	33024	1805	0	32549	
15470	0	33140	1806	0	32708	
15471	0	33256	1807	0	32396	
15472	0	33208	1808	0	32348	
15473	0	33028	1809	0	32548	
15474	0	33145	1810	0	32720	
15475	0	33248	1811	0	32397	
15476	0	33204	1812	0	32352	
15477	0	33020	1813	0	32545	
15478	0	33128	1814	0	32700	
15479	0	33244	1815	0	32394	
15480	0	33204	1816	0	32336	
15481	0	33016	1817	0	32536	
15482	0	33132	1818	0	32706	
15483	0	33244	1819	0	32396	
15484	0	33208	1820	0	32348	
15485	0	33024	1821	0	32552	
15486	0	33144	1822	0	32708	
15487	0	33240	1823	0	32394	
15488	0	33200	1824	0	32344	
15489	0	33013	1825	0	32544	
15490	0	33136	1826	0	32700	
15491	0	33240	1827	0	32400	
15492	0	33200	1828	0	32340	
15493	0	33014	1829	0	32544	
15494	0	33144	1830	0	32707	
15495	0	33248	1831	0	32392	
15496	0	33200	1832	0	32354	
15497	0	33012	1833	0	32544	
15498	0	33124	1834	0	32700	
15499	0	33240	1835	0	32390	
15500	0	33184	1836	0	32340	
15501	0	33012	1837	0	32540	
15502	0	33132	1838	0	32696	
15503	0	33240	1839	0	32386	
15504	0	33200	1840	0	32350	
15505	0	33004	1841	0	32544	
15506	0	33124	1842	0	32710	
15507	0	33232	1843	0	32390	
15508	0	33184	1844	0	32352	
15509	0	33012	1845	0	32546	
15510	0	33133	1846	0	32704	
15511	0	33240	1847	0	32379	
15512	0	33196	1848	0	32348	
15513	0	33016	1849	0	32548	
15514	0	33128	1850	0	32712	
15515	0	33244	1851	0	32380	
15516	0	33190	1852	0	32353	
15517	0	33004	1853	0	32544	
15518	0	33140	1854	0	32696	
15519	0	33244	1855	0	32376	
15520	0	33196	1856	0	32348	
15521	0	33030	1857	0	32548	
15522	0	33148	1858	0	32700	
15523	0	33256	1859	0	32380	
15524	0	33196	1860	0	32356	
15525	0	33012	1861	0	32560	
15526	0	33140	1862	0	32708	
15527	0	33256	1863	0	32386	
15528	0	33200	1864	0	32364	
15529	0	33016	1865	0	32556	
15530	0	33152	1866	0	32714	
15531	0	33280	1867	0	32384	
15532	0	33216	1868	0	32362	
15533	0	33036	1869	0	32562	
15534	0	33168	1870	0	32724	
15535	0	33280	1871	0	32396	
15536	0	33212	1872	0	32376	
15537	0	33040	1873	0	32572	
15538	0	33164	1874	0	32736	
15539	0	33268	1875	0	32386	
15540	0	33216	1876	0	32376	
15541	0	33040	1877	0	32578	
15542	0	33160	1878	0	32740	
15543	0	33272	1879	0	32402	
15544	0	33212	1880	0	32408	
15545	0	33036	1881	0	32608	
15546	0	33172	1882	0	32756	
15547	0	33280	1883	0	32424	
15548	0	33216	1884	0	32424	
15549	0	33032	1885	0	32620	
15550	0	33169	1886	0	32764	
15551	0	33280	1887	0	32432	
15552	0	33216	1888	0	32437	
15553	0	33040	1889	0	32640	
15554	0	33172	1890	0	32775	
15555	0	33280	1891	0	32436	
15556	0	33204	1892	0	32456	
15557	0	33032	1893	0	32644	
15558	0	33176	1894	0	32774	
15559	0	33284	1895	0	32440	
15560	0	33216	1896	0	32450	
15561	0	33024	1897	0	32642	
15562	0	33176	1898	0	32768	
15563	0	33284	1899	0	32436	
15564	0	33208	1900	0	32450	
15565	0	33028	1901	0	32658	
15566	0	33172	1902	0	32782	
15567	0	33276	1903	0	32452	
15568	0	33200	1904	0	32466	
15569	0	33028	1905	0	32664	
15570	0	33180	1906	0	32788	
15571	0	33280	1907	0	32452	
15572	0	33210	1908	0	32464	
15573	0	33028	1909	0	32662	
15574	0	33172	1910	0	32792	
15575	0	33272	1911	0	32456	
15576	0	33212	1912	0	32472	
15577	0	33030	1913	0	32669	
15578	0	33167	1914	0	32786	
15579	0	33284	1915	0	32448	
15580	0	33200	1916	0	32464	
15581	0	33024	1917	0	32656	
15582	0	33168	1918	0	32775	
15583	0	33280	1919	0	32440	
15584	0	33204	1920	0	32472	
15585	0	33020	1921	0	32676	
15586	0	33176	1922	0	32774	
15587	0	33280	1923	0	32456	
15588	0	33200	1924	0	32476	
15589	0	33024	1925	0	32664	
15590	0	33176	1926	0	32768	
15591	0	33288	1927	0	32448	
15592	0	33208	1928	0	32472	
15593	0	33024	1929	0	32672	
15594	0	33184	1930	0	32770	
15595	0	33280	1931	0	32448	
15596	0	33196	1932	0	32482	
15597	0	33016	1933	0	32666	
15598	0	33172	1934	0	32774	
15599	0	33272	1935	0	32448	
15600	0	33196	1936	0	32480	
15601	0	33028	1937	0	32662	
15602	0	33172	1938	0	32774	
15603	0	33280	1939	0	32440	
15604	0	33196	1940	0	32468	
15605	0	33032	1941	0	32668	
15606	0	33164	1942	0	32774	
15607	0	33276	1943	0	32444	
15608	0	33188	1944	0	32482	
15609	0	33020	1945	0	32676	
15610	0	33180	1946	0	32772	
15611	0	33284	1947	0	32440	
15612	0	33200	1948	0	32492	
15613	0	33032	1949	0	32688	
15614	0	33168	1950	0	32782	
15615	0	33276	1951	0	32452	
15616	0	33184	1952	0	32500	
15617	0	33028	1953	0	32696	
15618	0	33168	1954	0	32775	
15619	0	33272	1955	0	32448	
15620	0	33184	1956	0	32484	
15621	0	33036	1957	0	32680	
15622	0	33172	1958	0	32764	
15623	0	33276	1959	0	32448	
15624	0	33176	1960	0	32496	
15625	0	33036	1961	0	32684	
15626	0	33168	1962	0	32770	
15627	0	33268	1963	0	32448	
15628	0	33176	1964	0	32492	
15629	0	33028	1965	0	32676	
15630	0	33164	1966	0	32775	
15631	0	33272	1967	0	32448	
15632	0	33184	1968	0	32496	
15633	0	33024	1969	0	32696	
15634	0	33168	1970	0	32775	
15635	0	33280	1971	0	32450	
15636	0	33176	1972	0	32504	
15637	0	33029	1973	0	32696	
15638	0	33176	1974	0	32762	
15639	0	33268	1975	0	32452	
15640	0	33172	1976	0	32504	
15641	0	33036	1977	0	32688	
15642	0	33168	1978	0	32775	
15643	0	33280	1979	0	32448	
15644	0	33172	1980	0	32516	
15645	0	33028	1981	0	32698	
15646	0	33172	1982	0	32774	
15647	0	33280	1983	0	32452	
15648	0	33172	1984	0	32504	
15649	0	33034	1985	0	32700	
15650	0	33172	1986	0	32768	
15651	0	33292	1987	0	32454	
15652	0	33172	1988	0	32512	
15653	0	33040	1989	0	32696	
15654	0	33172	1990	0	32770	
15655	0	33276	1991	0	32452	
15656	0	33176	1992	0	32512	
15657	0	33032	1993	0	32708	
15658	0	33172	1994	0	32764	
15659	0	33272	1995	0	32450	
15660	0	33168	1996	0	32516	
15661	0	33036	1997	0	32704	
15662	0	33184	1998	0	32775	
15663	0	33280	1999	0	32451	
15664	0	33168	2000	0	32516	
15665	0	33040	2001	0	32708	
15666	0	33180	2002	0	32768	
15667	0	33284	2003	0	32452	
15668	0	33156	2004	0	32518	
15669	0	33044	2005	0	32706	
15670	0	33176	2006	0	32748	
15671	0	33280	2007	0	32432	
15672	0	33164	2008	0	32528	
15673	0	33048	2009	0	32716	
15674	0	33188	2010	0	32746	
15675	0	33288	2011	0	32448	
15676	0	33160	2012	0	32545	
15677	0	33044	2013	0	32720	
15678	0	33172	2014	0	32760	
15679	0	33280	2015	0	32436	
15680	0	33156	2016	0	32532	
15681	0	33044	2017	0	32715	
15682	0	33184	2018	0	32758	
15683	0	33284	2019	0	32440	
15684	0	33164	2020	0	32530	
15685	0	33044	2021	0	32722	
15686	0	33176	2022	0	32762	
15687	0	33285	2023	0	32448	
15688	0	33156	2024	0	32528	
15689	0	33052	2025	0	32712	
15690	0	33184	2026	0	32756	
15691	0	33280	2027	0	32434	
15692	0	33156	2028	0	32536	
15693	0	33068	2029	0	32720	
15694	0	33180	2030	0	32758	
15695	0	33292	2031	0	32444	
15696	0	33148	2032	0	32545	
15697	0	33064	2033	0	32722	
15698	0	33184	2034	0	32748	
15699	0	33276	2035	0	32432	
15700	0	33152	2036	0	32537	
15701	0	33052	2037	0	32720	
15702	0	33188	2038	0	32745	
15703	0	33296	2039	0	32428	
15704	0	33144	2040	0	32538	
15705	0	33052	2041	0	32724	
15706	0	33196	2042	0	32736	
15707	0	33292	2043	0	32424	
15708	0	33140	2044	0	32536	
15709	0	33052	2045	0	32722	
15710	0	33176	2046	0	32738	
15711	0	33300	2047	0	32422	
15712	0	33152	2048	0	32540	
15713	0	33048	2049	0	32728	
15714	0	33192	2050	0	32740	
15715	0	33300	2051	0	32428	
15716	0	33148	2052	0	32552	
15717	0	33056	2053	0	32728	
15718	0	33180	2054	0	32736	
15719	0	33276	2055	0	32420	
15720	0	33158	2056	0	32544	
15721	0	33060	2057	0	32720	
15722	0	33184	2058	0	32729	
15723	0	33300	2059	0	32416	
15724	0	33144	2060	0	32536	
15725	0	33056	2061	0	32724	
15726	0	33188	2062	0	32738	
15727	0	33288	2063	0	32424	
15728	0	33140	2064	0	32536	
15729	0	33048	2065	0	32720	
15730	0	33173	2066	0	32722	
15731	0	33288	2067	0	32410	
15732	0	33154	2068	0	32544	
15733	0	33044	2069	0	32722	
15734	0	33184	2070	0	32728	
15735	0	33284	2071	0	32424	
15736	0	33158	2072	0	32550	
15737	0	33056	2073	0	32728	
15738	0	33180	2074	0	32722	
15739	0	33280	2075	0	32408	
15740	0	33140	2076	0	32536	
15741	0	33044	2077	0	32726	
15742	0	33184	2078	0	32712	
15743	0	33300	2079	0	32416	
15744	0	33148	2080	0	32544	
15745	0	33056	2081	0	32720	
15746	0	33176	2082	0	32716	
15747	0	33292	2083	0	32408	
15748	0	33144	2084	0	32538	
15749	0	33040	2085	0	32715	
15750	0	33176	2086	0	32706	
15751	0	33292	2087	0	32406	
15752	0	33152	2088	0	32540	
15753	0	33052	2089	0	32720	
15754	0	33176	2090	0	32696	
15755	0	33292	2091	0	32394	
15756	0	33128	2092	0	32533	
15757	0	33048	2093	0	32712	
15758	0	33180	2094	0	32692	
15759	0	33268	2095	0	32392	
15760	0	33144	2096	0	32536	
15761	0	33052	2097	0	32712	
15762	0	33188	2098	0	32696	
15763	0	33284	2099	0	32392	
15764	0	33144	2100	0	32532	
15765	0	33056	2101	0	32712	
15766	0	33172	2102	0	32696	
15767	0	33284	2103	0	32382	
15768	0	33136	2104	0	32544	
15769	0	33052	2105	0	32716	
15770	0	33180	2106	0	32681	
15771	0	33286	2107	0	32378	
15772	0	33152	2108	0	32552	
15773	0	33046	2109	0	32722	
15774	0	33176	2110	0	32688	
15775	0	33288	2111	0	32390	
15776	0	33148	2112	0	32544	
15777	0	33044	2113	0	32736	
15778	0	33184	2114	0	32672	
15779	0	33280	2115	0	32379	
15780	0	33136	2116	0	32536	
15781	0	33056	2117	0	32728	
15782	0	33184	2118	0	32676	
15783	0	33288	2119	0	32388	
15784	0	33144	2120	0	32557	
15785	0	33060	2121	0	32724	
15786	0	33176	2122	0	32673	
15787	0	33280	2123	0	32384	
15788	0	33136	2124	0	32554	
15789	0	33052	2125	0	32732	
15790	0	33177	2126	0	32676	
15791	0	33284	2127	0	32368	
15792	0	33152	2128	0	32560	
15793	0	33056	2129	0	32736	
15794	0	33188	2130	0	32680	
15795	0	33288	2131	0	32384	
15796	0	33120	2132	0	32568	
15797	0	33060	2133	0	32724	
15798	0	33180	2134	0	32668	
15799	0	33280	2135	0	32376	
15800	0	33132	2136	0	32560	
15801	0	33056	2137	0	32740	
15802	0	33192	2138	0	32672	
15803	0	33296	2139	0	32368	
15804	0	33136	2140	0	32572	
15805	0	33064	2141	0	32736	
15806	0	33196	2142	0	32676	
15807	0	33292	2143	0	32388	
15808	0	33120	2144	0	32570	
15809	0	33068	2145	0	32744	
15810	0	33184	2146	0	32674	
15811	0	33292	2147	0	32368	
15812	0	33136	2148	0	32568	
15813	0	33060	2149	0	32738	
15814	0	33192	2150	0	32660	
15815	0	33292	2151	0	32372	
15816	0	33136	2152	0	32576	
15817	0	33064	2153	0	32746	
15818	0	33190	2154	0	32674	
15819	0	33284	2155	0	32378	
15820	0	33124	2156	0	32570	
15821	0	33064	2157	0	32748	
15822	0	33200	2158	0	32671	
15823	0	33290	2159	0	32376	
15824	0	33140	2160	0	32568	
15825	0	33060	2161	0	32754	
15826	0	33184	2162	0	32672	
15827	0	33296	2163	0	32384	
15828	0	33132	2164	0	32576	
15829	0	33068	2165	0	32746	
15830	0	33192	2166	0	32668	
15831	0	33292	2167	0	32368	
15832	0	33128	2168	0	32572	
15833	0	33060	2169	0	32740	
15834	0	33200	2170	0	32672	
15835	0	33304	2171	0	32368	
15836	0	33140	2172	0	32576	
15837	0	33052	2173	0	32754	
15838	0	33184	2174	0	32668	
15839	0	33296	2175	0	32368	
15840	0	33132	2176	0	32576	
15841	0	33056	2177	0	32744	
15842	0	33197	2178	0	32668	
15843	0	33304	2179	0	32372	
15844	0	33136	2180	0	32578	
15845	0	33060	2181	0	32767	
15846	0	33204	2182	0	32660	
15847	0	33296	2183	0	32370	
15848	0	33136	2184	0	32578	
15849	0	33068	2185	0	32752	
15850	0	33192	2186	0	32656	
15851	0	33296	2187	0	32360	
15852	0	33132	2188	0	32576	
15853	0	33076	2189	0	32752	
15854	0	33204	2190	0	32648	
15855	0	33312	2191	0	32356	
15856	0	33144	2192	0	32585	
15857	0	33060	2193	0	32760	
15858	0	33184	2194	0	32656	
15859	0	33300	2195	0	32368	
15860	0	33140	2196	0	32586	
15861	0	33076	2197	0	32754	
15862	0	33204	2198	0	32656	
15863	0	33300	2199	0	32364	
15864	0	33148	2200	0	32600	
15865	0	33072	2201	0	32768	
15866	0	33198	2202	0	32652	
15867	0	33304	2203	0	32368	
15868	0	33144	2204	0	32594	
15869	0	33060	2205	0	32768	
15870	0	33184	2206	0	32644	
15871	0	33300	2207	0	32352	
15872	0	33132	2208	0	32592	
15873	0	33068	2209	0	32760	
15874	0	33196	2210	0	32642	
15875	0	33296	2211	0	32352	
15876	0	33132	2212	0	32592	
15877	0	33072	2213	0	32768	
15878	0	33188	2214	0	32644	
15879	0	33300	2215	0	32354	
15880	0	33140	2216	0	32588	
15881	0	33064	2217	0	32760	
15882	0	33196	2218	0	32648	
15883	0	33292	2219	0	32356	
15884	0	33144	2220	0	32596	
15885	0	33074	2221	0	32768	
15886	0	33192	2222	0	32640	
15887	0	33292	2223	0	32352	
15888	0	33144	2224	0	32596	
15889	0	33064	2225	0	32774	
15890	0	33200	2226	0	32640	
15891	0	33304	2227	0	32352	
15892	0	33140	2228	0	32594	
15893	0	33072	2229	0	32768	
15894	0	33188	2230	0	32644	
15895	0	33296	2231	0	32354	
15896	0	33144	2232	0	32584	
15897	0	33060	2233	0	32764	
15898	0	33192	2234	0	32642	
15899	0	33296	2235	0	32344	
15900	0	33144	2236	0	32594	
15901	0	33056	2237	0	32768	
15902	0	33196	2238	0	32640	
15903	0	33296	2239	0	32352	
15904	0	33148	2240	0	32592	
15905	0	33068	2241	0	32754	
15906	0	33188	2242	0	32640	
15907	0	33296	2243	0	32354	
15908	0	33140	2244	0	32596	
15909	0	33056	2245	0	32768	
15910	0	33192	2246	0	32640	
15911	0	33300	2247	0	32352	
15912	0	33152	2248	0	32584	
15913	0	33068	2249	0	32768	
15914	0	33188	2250	0	32634	
15915	0	33288	2251	0	32352	
15916	0	33152	2252	0	32588	
15917	0	33044	2253	0	32768	
15918	0	33180	2254	0	32634	
15919	0	33296	2255	0	32348	
15920	0	33148	2256	0	32584	
15921	0	33056	2257	0	32760	
15922	0	33192	2258	0	32632	
15923	0	33292	2259	0	32340	
15924	0	33148	2260	0	32592	
15925	0	33048	2261	0	32764	
15926	0	33188	2262	0	32630	
15927	0	33284	2263	0	32352	
15928	0	33140	2264	0	32592	
15929	0	33044	2265	0	32774	
15930	0	33184	2266	0	32626	
15931	0	33284	2267	0	32361	
15932	0	33152	2268	0	32596	
15933	0	33052	2269	0	32770	
15934	0	33176	2270	0	32608	
15935	0	33288	2271	0	32360	
15936	0	33148	2272	0	32600	
15937	0	33052	2273	0	32760	
15938	0	33184	2274	0	32617	
15939	0	33284	2275	0	32364	
15940	0	33144	2276	0	32592	
15941	0	33048	2277	0	32762	
15942	0	33176	2278	0	32614	
15943	0	33276	2279	0	32364	
15944	0	33156	2280	0	32600	
15945	0	33052	2281	0	32775	
15946	0	33176	2282	0	32634	
15947	0	33272	2283	0	32368	
15948	0	33156	2284	0	32608	
15949	0	33052	2285	0	32776	
15950	0	33180	2286	0	32624	
15951	0	33284	2287	0	32374	
15952	0	33160	2288	0	32600	
15953	0	33048	2289	0	32780	
15954	0	33180	2290	0	32616	
15955	0	33284	2291	0	32382	
15956	0	33152	2292	0	32600	
15957	0	33056	2293	0	32784	
15958	0	33176	2294	0	32610	
15959	0	33276	2295	0	32370	
15960	0	33160	2296	0	32612	
15961	0	33044	2297	0	32774	
15962	0	33180	2298	0	32604	
15963	0	33292	2299	0	32391	
15964	0	33152	2300	0	32620	
15965	0	33052	2301	0	32792	
15966	0	33184	2302	0	32616	
15967	0	33296	2303	0	32402	
15968	0	33168	2304	0	32630	
15969	0	33050	2305	0	32788	
15970	0	33192	2306	0	32621	
15971	0	33296	2307	0	32388	
15972	0	33160	2308	0	32621	
15973	0	33056	2309	0	32800	
15974	0	33184	2310	0	32628	
15975	0	33304	2311	0	32400	
15976	0	33152	2312	0	32633	
15977	0	33060	2313	0	32800	
15978	0	33188	2314	0	32608	
15979	0	33292	2315	0	32393	
15980	0	33148	2316	0	32628	
15981	0	33052	2317	0	32804	
15982	0	33188	2318	0	32604	
15983	0	33300	2319	0	32410	
15984	0	33160	2320	0	32647	
15985	0	33072	2321	0	32810	
15986	0	33208	2322	0	32616	
15987	0	33308	2323	0	32420	
15988	0	33168	2324	0	32648	
15989	0	33060	2325	0	32820	
15990	0	33196	2326	0	32616	
15991	0	33292	2327	0	32424	
15992	0	33176	2328	0	32646	
15993	0	33064	2329	0	32816	
15994	0	33200	2330	0	32608	
15995	0	33304	2331	0	32440	
15996	0	33164	2332	0	32668	
15997	0	33064	2333	0	32824	
15998	0	33192	2334	0	32602	
15999	0	33296	2335	0	32438	
16000	0	33172	2336	0	32652	
16001	0	33076	2337	0	32812	
16002	0	33197	2338	0	32596	
16003	0	33312	2339	0	32442	
16004	0	33172	2340	0	32664	
16005	0	33076	2341	0	32834	
16006	0	33192	2342	0	32594	
16007	0	33304	2343	0	32456	
16008	0	33165	2344	0	32660	
16009	0	33080	2345	0	32820	
16010	0	33208	2346	0	32596	
16011	0	33316	2347	0	32448	
16012	0	33168	2348	0	32672	
16013	0	33088	2349	0	32836	
16014	0	33216	2350	0	32586	
16015	0	33316	2351	0	32457	
16016	0	33164	2352	0	32676	
16017	0	33088	2353	0	32836	
16018	0	33200	2354	0	32586	
16019	0	33296	2355	0	32456	
16020	0	33165	2356	0	32668	
16021	0	33077	2357	0	32836	
16022	0	33196	2358	0	32596	
16023	0	33308	2359	0	32464	
16024	0	33168	2360	0	32676	
16025	0	33088	2361	0	32852	
16026	0	33216	2362	0	32600	
16027	0	33320	2363	0	32474	
16028	0	33180	2364	0	32680	
16029	0	33084	2365	0	32852	
16030	0	33212	2366	0	32596	
16031	0	33316	2367	0	32474	
16032	0	33176	2368	0	32686	
16033	0	33088	2369	0	32850	
16034	0	33216	2370	0	32592	
16035	0	33328	2371	0	32480	
16036	0	33178	2372	0	32697	
16037	0	33080	2373	0	32856	
16038	0	33224	2374	0	32592	
16039	0	33320	2375	0	32470	
16040	0	33160	2376	0	32684	
16041	0	33088	2377	0	32844	
16042	0	33212	2378	0	32580	
16043	0	33324	2379	0	32478	
16044	0	33176	2380	0	32696	
16045	0	33088	2381	0	32854	
16046	0	33216	2382	0	32592	
16047	0	33324	2383	0	32480	
16048	0	33184	2384	0	32696	
16049	0	33092	2385	0	32856	
16050	0	33224	2386	0	32589	
16051	0	33328	2387	0	32484	
16052	0	33180	2388	0	32696	
16053	0	33088	2389	0	32864	
16054	0	33232	2390	0	32594	
16055	0	33332	2391	0	32492	
16056	0	33184	2392	0	32698	
16057	0	33080	2393	0	32866	
16058	0	33208	2394	0	32576	
16059	0	33316	2395	0	32489	
16060	0	33176	2396	0	32684	
16061	0	33080	2397	0	32844	
16062	0	33220	2398	0	32576	
16063	0	33320	2399	0	32482	
16064	0	33184	2400	0	32704	
16065	0	33096	2401	0	32854	
16066	0	33224	2402	0	32578	
16067	0	33320	2403	0	32500	
16068	0	33180	2404	0	32708	
16069	0	33088	2405	0	32860	
16070	0	33228	2406	0	32566	
16071	0	33320	2407	0	32496	
16072	0	33176	2408	0	32712	
16073	0	33088	2409	0	32868	
16074	0	33232	2410	0	32576	
16075	0	33332	2411	0	32508	
16076	0	33176	2412	0	32706	
16077	0	33088	2413	0	32872	
16078	0	33216	2414	0	32568	
16079	0	33328	2415	0	32504	
16080	0	33168	2416	0	32708	
16081	0	33088	2417	0	32864	
16082	0	33212	2418	0	32556	
16083	0	33316	2419	0	32500	
16084	0	33184	2420	0	32699	
16085	0	33092	2421	0	32864	
16086	0	33212	2422	0	32555	
16087	0	33316	2423	0	32512	
16088	0	33184	2424	0	32712	
16089	0	33080	2425	0	32868	
16090	0	33216	2426	0	32548	
16091	0	33316	2427	0	32496	
16092	0	33172	2428	0	32706	
16093	0	33088	2429	0	32874	
16094	0	33220	2430	0	32552	
16095	0	33312	2431	0	32508	
16096	0	33176	2432	0	32720	
16097	0	33088	2433	0	32876	
16098	0	33200	2434	0	32554	
16099	0	33324	2435	0	32512	
16100	0	33180	2436	0	32704	
16101	0	33076	2437	0	32872	
16102	0	33212	2438	0	32536	
16103	0	33304	2439	0	32508	
16104	0	33176	2440	0	32716	
16105	0	33080	2441	0	32868	
16106	0	33216	2442	0	32544	
16107	0	33316	2443	0	32520	
16108	0	33180	2444	0	32712	
16109	0	33092	2445	0	32876	
16110	0	33216	2446	0	32544	
16111	0	33320	2447	0	32516	
16112	0	33184	2448	0	32716	
16113	0	33096	2449	0	32868	
16114	0	33220	2450	0	32537	
16115	0	33320	2451	0	32520	
16116	0	33180	2452	0	32726	
16117	0	33086	2453	0	32884	
16118	0	33208	2454	0	32536	
16119	0	33320	2455	0	32524	
16120	0	33176	2456	0	32712	
16121	0	33084	2457	0	32872	
16122	0	33216	2458	0	32532	
16123	0	33328	2459	0	32516	
16124	0	33176	2460	0	32720	
16125	0	33088	2461	0	32868	
16126	0	33224	2462	0	32524	
16127	0	33312	2463	0	32539	
16128	0	33180	2464	0	32726	
16129	0	33096	2465	0	32864	
16130	0	33224	2466	0	32524	
16131	0	33324	2467	0	32532	
16132	0	33176	2468	0	32728	
16133	0	33112	2469	0	32864	
16134	0	33218	2470	0	32532	
16135	0	33328	2471	0	32536	
16136	0	33180	2472	0	32728	
16137	0	33092	2473	0	32856	
16138	0	33212	2474	0	32532	
16139	0	33328	2475	0	32528	
16140	0	33176	2476	0	32726	
16141	0	33100	2477	0	32844	
16142	0	33228	2478	0	32522	
16143	0	33336	2479	0	32540	
16144	0	33172	2480	0	32736	
16145	0	33088	2481	0	32858	
16146	0	33224	2482	0	32522	
16147	0	33332	2483	0	32540	
16148	0	33180	2484	0	32736	
16149	0	33088	2485	0	32856	
16150	0	33224	2486	0	32520	
16151	0	33332	2487	0	32544	
16152	0	33188	2488	0	32744	
16153	0	33108	2489	0	32848	
16154	0	33234	2490	0	32512	
16155	0	33332	2491	0	32556	
16156	0	33188	2492	0	32750	
16157	0	33096	2493	0	32848	
16158	0	33220	2494	0	32514	
16159	0	33328	2495	0	32566	
16160	0	33196	2496	0	32752	
16161	0	33104	2497	0	32836	
16162	0	33224	2498	0	32504	
16163	0	33328	2499	0	32568	
16164	0	33184	2500	0	32746	
16165	0	33096	2501	0	32832	
16166	0	33232	2502	0	32502	
16167	0	33332	2503	0	32560	
16168	0	33184	2504	0	32756	
16169	0	33112	2505	0	32820	
16170	0	33236	2506	0	32492	
16171	0	33344	2507	0	32576	
16172	0	33188	2508	0	32768	
16173	0	33112	2509	0	32824	
16174	0	33240	2510	0	32520	
16175	0	33344	2511	0	32592	
16176	0	33196	2512	0	32768	
16177	0	33104	2513	0	32816	
16178	0	33232	2514	0	32500	
16179	0	33344	2515	0	32598	
16180	0	33192	2516	0	32772	
16181	0	33104	2517	0	32808	
16182	0	33240	2518	0	32492	
16183	0	33344	2519	0	32584	
16184	0	33200	2520	0	32784	
16185	0	33120	2521	0	32816	
16186	0	33232	2522	0	32492	
16187	0	33344	2523	0	32600	
16188	0	33184	2524	0	32784	
16189	0	33100	2525	0	32804	
16190	0	33232	2526	0	32480	
16191	0	33336	2527	0	32592	
16192	0	33196	2528	0	32780	
16193	0	33112	2529	0	32800	
16194	0	33240	2530	0	32496	
16195	0	33340	2531	0	32612	
16196	0	33200	2532	0	32796	
16197	0	33100	2533	0	32808	
16198	0	33240	2534	0	32496	
16199	0	33332	2535	0	32602	
16200	0	33196	2536	0	32796	
16201	0	33104	2537	0	32792	
16202	0	33228	2538	0	32480	
16203	0	33340	2539	0	32620	
16204	0	33192	2540	0	32800	
16205	0	33104	2541	0	32804	
16206	0	33245	2542	0	32484	
16207	0	33328	2543	0	32612	
16208	0	33204	2544	0	32800	
16209	0	33096	2545	0	32792	
16210	0	33228	2546	0	32480	
16211	0	33340	2547	0	32612	
16212	0	33192	2548	0	32792	
16213	0	33104	2549	0	32792	
16214	0	33240	2550	0	32488	
16215	0	33336	2551	0	32624	
16216	0	33192	2552	0	32804	
16217	0	33108	2553	0	32797	
16218	0	33224	2554	0	32486	
16219	0	33336	2555	0	32620	
16220	0	33188	2556	0	32800	
16221	0	33092	2557	0	32784	
16222	0	33232	2558	0	32476	
16223	0	33340	2559	0	32620	
16224	0	33196	2560	0	32800	
16225	0	33088	2561	0	32788	
16226	0	33216	2562	0	32480	
16227	0	33332	2563	0	32608	
16228	0	33188	2564	0	32804	
16229	0	33084	2565	0	32772	
16230	0	33220	2566	0	32464	
16231	0	33340	2567	0	32616	
16232	0	33196	2568	0	32793	
16233	0	33100	2569	0	32775	
16234	0	33228	2570	0	32476	
16235	0	33320	2571	0	32628	
16236	0	33196	2572	0	32816	
16237	0	33088	2573	0	32782	
16238	0	33224	2574	0	32476	
16239	0	33320	2575	0	32624	
16240	0	33188	2576	0	32812	
16241	0	33096	2577	0	32768	
16242	0	33228	2578	0	32470	
16243	0	33328	2579	0	32624	
16244	0	33184	2580	0	32808	
16245	0	33092	2581	0	32760	
16246	0	33224	2582	0	32465	
16247	0	33325	2583	0	32628	
16248	0	33180	2584	0	32800	
16249	0	33088	2585	0	32744	
16250	0	33212	2586	0	32460	
16251	0	33332	2587	0	32628	
16252	0	33184	2588	0	32817	
16253	0	33088	2589	0	32760	
16254	0	33232	2590	0	32456	
16255	0	33328	2591	0	32632	
16256	0	33188	2592	0	32818	
16257	0	33092	2593	0	32752	
16258	0	33224	2594	0	32450	
16259	0	33320	2595	0	32636	
16260	0	33180	2596	0	32813	
16261	0	33092	2597	0	32736	
16262	0	33224	2598	0	32448	
16263	0	33328	2599	0	32634	
16264	0	33184	2600	0	32814	
16265	0	33096	2601	0	32749	
16266	0	33216	2602	0	32456	
16267	0	33332	2603	0	32640	
16268	0	33188	2604	0	32812	
16269	0	33088	2605	0	32740	
16270	0	33216	2606	0	32444	
16271	0	33328	2607	0	32624	
16272	0	33192	2608	0	32804	
16273	0	33092	2609	0	32742	
16274	0	33236	2610	0	32440	
16275	0	33332	2611	0	32644	
16276	0	33192	2612	0	32812	
16277	0	33092	2613	0	32746	
16278	0	33236	2614	0	32442	
16279	0	33320	2615	0	32640	
16280	0	33200	2616	0	32810	
16281	0	33104	2617	0	32732	
16282	0	33232	2618	0	32440	
16283	0	33336	2619	0	32648	
16284	0	33192	2620	0	32822	
16285	0	33104	2621	0	32736	
16286	0	33236	2622	0	32448	
16287	0	33344	2623	0	32652	
16288	0	33208	2624	0	32824	
16289	0	33104	2625	0	32728	
16290	0	33236	2626	0	32436	
16291	0	33344	2627	0	32648	
16292	0	33200	2628	0	32816	
16293	0	33104	2629	0	32728	
16294	0	33236	2630	0	32434	
16295	0	33336	2631	0	32648	
16296	0	33204	2632	0	32828	
16297	0	33108	2633	0	32736	
16298	0	33232	2634	0	32436	
16299	0	33344	2635	0	32652	
16300	0	33216	2636	0	32838	
16301	0	33108	2637	0	32732	
16302	0	33240	2638	0	32448	
16303	0	33344	2639	0	32656	
16304	0	33220	2640	0	32832	
16305	0	33104	2641	0	32736	
16306	0	33244	2642	0	32440	
16307	0	33344	2643	0	32656	
16308	0	33204	2644	0	32840	
16309	0	33120	2645	0	32724	
16310	0	33248	2646	0	32446	
16311	0	33352	2647	0	32660	
16312	0	33224	2648	0	32828	
16313	0	33112	2649	0	32716	
16314	0	33244	2650	0	32440	
16315	0	33352	2651	0	32660	
16316	0	33224	2652	0	32837	
16317	0	33104	2653	0	32728	
16318	0	33244	2654	0	32440	
16319	0	33356	2655	0	32668	
16320	0	33216	2656	0	32848	
16321	0	33120	2657	0	32736	
16322	0	33256	2658	0	32436	
16323	0	33364	2659	0	32672	
16324	0	33224	2660	0	32854	
16325	0	33112	2661	0	32728	
16326	0	33250	2662	0	32444	
16327	0	33349	2663	0	32688	
16328	0	33224	2664	0	32852	
16329	0	33116	2665	0	32720	
16330	0	33244	2666	0	32434	
16331	0	33360	2667	0	32676	
16332	0	33220	2668	0	32852	
16333	0	33120	2669	0	32722	
16334	0	33244	2670	0	32440	
16335	0	33348	2671	0	32684	
16336	0	33212	2672	0	32858	
16337	0	33116	2673	0	32728	
16338	0	33240	2674	0	32436	
16339	0	33344	2675	0	32688	
16340	0	33224	2676	0	32858	
16341	0	33120	2677	0	32712	
16342	0	33256	2678	0	32449	
16343	0	33356	2679	0	32696	
16344	0	33226	2680	0	32864	
16345	0	33116	2681	0	32718	
16346	0	33256	2682	0	32466	
16347	0	33360	2683	0	32700	
16348	0	33224	2684	0	32864	
16349	0	33112	2685	0	32720	
16350	0	33248	2686	0	32458	
16351	0	33352	2687	0	32702	
16352	0	33232	2688	0	32870	
16353	0	33112	2689	0	32716	
16354	0	33256	2690	0	32460	
16355	0	33356	2691	0	32710	
16356	0	33252	2692	0	32876	
16357	0	33112	2693	0	32714	
16358	0	33252	2694	0	32464	
16359	0	33344	2695	0	32704	
16360	0	33232	2696	0	32868	
16361	0	33120	2697	0	32700	
16362	0	33264	2698	0	32476	
16363	0	33360	2699	0	32713	
16364	0	33240	2700	0	32880	
16365	0	33120	2701	0	32712	
16366	0	33260	2702	0	32476	
16367	0	33360	2703	0	32706	
16368	0	33240	2704	0	32880	
16369	0	33112	2705	0	32706	
16370	0	33252	2706	0	32476	
16371	0	33352	2707	0	32706	
16372	0	33236	2708	0	32880	
16373	0	33120	2709	0	32696	
16374	0	33252	2710	0	32476	
16375	0	33360	2711	0	32704	
16376	0	33240	2712	0	32872	
16377	0	33112	2713	0	32700	
16378	0	33253	2714	0	32472	
16379	0	33346	2715	0	32704	
16380	0	33232	2716	0	32866	
16381	0	33100	2717	0	32684	
16382	0	33244	2718	0	32474	
16383	0	33352	2719	0	32704	
16384	0	33240	2720	0	32880	
16385	0	33112	2721	0	32688	
16386	0	33232	2722	0	32480	
16387	0	33344	2723	0	32714	
16388	0	33234	2724	0	32880	
16389	0	33104	2725	0	32690	
16390	0	33240	2726	0	32493	
16391	0	33344	2727	0	32714	
16392	0	33228	2728	0	32872	
16393	0	33104	2729	0	32681	
16394	0	33244	2730	0	32490	
16395	0	33336	2731	0	32716	
16396	0	33236	2732	0	32884	
16397	0	33096	2733	0	32674	
16398	0	33240	2734	0	32490	
16399	0	33336	2735	0	32712	
16400	0	33228	2736	0	32872	
16401	0	33092	2737	0	32676	
16402	0	33228	2738	0	32496	
16403	0	33344	2739	0	32712	
16404	0	33236	2740	0	32884	
16405	0	33108	2741	0	32676	
16406	0	33248	2742	0	32496	
16407	0	33344	2743	0	32720	
16408	0	33240	2744	0	32880	
16409	0	33096	2745	0	32664	
16410	0	33240	2746	0	32484	
16411	0	33344	2747	0	32712	
16412	0	33236	2748	0	32882	
16413	0	33108	2749	0	32653	
16414	0	33248	2750	0	32488	
16415	0	33348	2751	0	32712	
16416	0	33232	2752	0	32884	
16417	0	33096	2753	0	32650	
16418	0	33244	2754	0	32498	
16419	0	33336	2755	0	32714	
16420	0	33224	2756	0	32880	
16421	0	33096	2757	0	32644	
16422	0	33248	2758	0	32492	
16423	0	33352	2759	0	32714	
16424	0	33236	2760	0	32876	
16425	0	33112	2761	0	32644	
16426	0	33248	2762	0	32504	
16427	0	33352	2763	0	32722	
16428	0	33232	2764	0	32880	
16429	0	33112	2765	0	32640	
16430	0	33232	2766	0	32512	
16431	0	33352	2767	0	32720	
16432	0	33245	2768	0	32888	
16433	0	33108	2769	0	32636	
16434	0	33248	2770	0	32508	
16435	0	33344	2771	0	32736	
16436	0	33236	2772	0	32880	
16437	0	33104	2773	0	32644	
16438	0	33254	2774	0	32514	
16439	0	33360	2775	0	32736	
16440	0	33236	2776	0	32892	
16441	0	33112	2777	0	32633	
16442	0	33240	2778	0	32520	
16443	0	33360	2779	0	32730	
16444	0	33240	2780	0	32889	
16445	0	33120	2781	0	32640	
16446	0	33252	2782	0	32528	
16447	0	33368	2783	0	32736	
16448	0	33236	2784	0	32900	
16449	0	33124	2785	0	32640	
16450	0	33252	2786	0	32526	
16451	0	33344	2787	0	32740	
16452	0	33244	2788	0	32888	
16453	0	33124	2789	0	32632	
16454	0	33248	2790	0	32532	
16455	0	33356	2791	0	32744	
16456	0	33240	2792	0	32902	
16457	0	33116	2793	0	32636	
16458	0	33256	2794	0	32536	
16459	0	33352	2795	0	32738	
16460	0	33244	2796	0	32896	
16461	0	33124	2797	0	32634	
16462	0	33256	2798	0	32524	
16463	0	33372	2799	0	32744	
16464	0	33248	2800	0	32904	
16465	0	33124	2801	0	32640	
16466	0	33260	2802	0	32536	
16467	0	33360	2803	0	32752	
16468	0	33256	2804	0	32912	
16469	0	33120	2805	0	32632	
16470	0	33256	2806	0	32546	
16471	0	33364	2807	0	32748	
16472	0	33250	2808	0	32924	
16473	0	33136	2809	0	32626	
16474	0	33264	2810	0	32547	
16475	0	33360	2811	0	32761	
16476	0	33244	2812	0	32908	
16477	0	33120	2813	0	32620	
16478	0	33248	2814	0	32548	
16479	0	33360	2815	0	32756	
16480	0	33248	2816	0	32912	
16481	0	33128	2817	0	32616	
16482	0	33252	2818	0	32564	
16483	0	33364	2819	0	32770	
16484	0	33244	2820	0	32928	
16485	0	33132	2821	0	32636	
16486	0	33264	2822	0	32560	
16487	0	33372	2823	0	32764	
16488	0	33256	2824	0	32932	
16489	0	33132	2825	0	32624	
16490	0	33264	2826	0	32576	
16491	0	33356	2827	0	32768	
16492	0	33252	2828	0	32932	
16493	0	33120	2829	0	32632	
16494	0	33272	2830	0	32566	
16495	0	33384	2831	0	32775	
16496	0	33256	2832	0	32928	
16497	0	33128	2833	0	32624	
16498	0	33244	2834	0	32568	
16499	0	33364	2835	0	32768	
16500	0	33252	2836	0	32929	
16501	0	33132	2837	0	32616	
16502	0	33264	2838	0	32568	
16503	0	33380	2839	0	32768	
16504	0	33256	2840	0	32936	
16505	0	33124	2841	0	32616	
16506	0	33264	2842	0	32576	
16507	0	33360	2843	0	32778	
16508	0	33248	2844	0	32933	
16509	0	33136	2845	0	32616	
16510	0	33268	2846	0	32578	
16511	0	33372	2847	0	32780	
16512	0	33256	2848	0	32928	
16513	0	33136	2849	0	32610	
16514	0	33268	2850	0	32580	
16515	0	33376	2851	0	32774	
16516	0	33252	2852	0	32938	
16517	0	33132	2853	0	32616	
16518	0	33256	2854	0	32580	
16519	0	33372	2855	0	32775	
16520	0	33244	2856	0	32936	
16521	0	33124	2857	0	32594	
16522	0	33264	2858	0	32588	
16523	0	33372	2859	0	32784	
16524	0	33260	2860	0	32944	
16525	0	33124	2861	0	32604	
16526	0	33268	2862	0	32592	
16527	0	33368	2863	0	32786	
16528	0	33244	2864	0	32946	
16529	0	33124	2865	0	32600	
16530	0	33264	2866	0	32594	
16531	0	33376	2867	0	32793	
16532	0	33252	2868	0	32948	
16533	0	33140	2869	0	32604	
16534	0	33272	2870	0	32596	
16535	0	33376	2871	0	32792	
16536	0	33252	2872	0	32928	
16537	0	33124	2873	0	32585	
16538	0	33260	2874	0	32586	
16539	0	33364	2875	0	32784	
16540	0	33248	2876	0	32916	
16541	0	33120	2877	0	32568	
16542	0	33260	2878	0	32592	
16543	0	33368	2879	0	32792	
16544	0	33240	2880	0	32914	
16545	0	33140	2881	0	32580	
16546	0	33268	2882	0	32608	
16547	0	33364	2883	0	32784	
16548	0	33244	2884	0	32904	
16549	0	33124	2885	0	32580	
16550	0	33264	2886	0	32590	
16551	0	33368	2887	0	32784	
16552	0	33248	2888	0	32914	
16553	0	33134	2889	0	32572	
16554	0	33260	2890	0	32604	
16555	0	33368	2891	0	32800	
16556	0	33248	2892	0	32904	
16557	0	33124	2893	0	32569	
16558	0	33248	2894	0	32592	
16559	0	33364	2895	0	32792	
16560	0	33232	2896	0	32880	
16561	0	33120	2897	0	32552	
16562	0	33260	2898	0	32598	
16563	0	33356	2899	0	32788	
16564	0	33240	2900	0	32880	
16565	0	33128	2901	0	32560	
16566	0	33256	2902	0	32594	
16567	0	33360	2903	0	32788	
16568	0	33232	2904	0	32876	
16569	0	33120	2905	0	32548	
16570	0	33252	2906	0	32584	
16571	0	33360	2907	0	32795	
16572	0	33244	2908	0	32868	
16573	0	33128	2909	0	32552	
16574	0	33260	2910	0	32592	
16575	0	33364	2911	0	32793	
16576	0	33240	2912	0	32874	
16577	0	33116	2913	0	32541	
16578	0	33240	2914	0	32600	
16579	0	33364	2915	0	32780	
16580	0	33232	2916	0	32864	
16581	0	33112	2917	0	32528	
16582	0	33252	2918	0	32592	
16583	0	33356	2919	0	32774	
16584	0	33240	2920	0	32858	
16585	0	33116	2921	0	32528	
16586	0	33252	2922	0	32598	
16587	0	33356	2923	0	32784	
16588	0	33232	2924	0	32852	
16589	0	33120	2925	0	32532	
16590	0	33256	2926	0	32592	
16591	0	33360	2927	0	32782	
16592	0	33240	2928	0	32856	
16593	0	33128	2929	0	32548	
16594	0	33260	2930	0	32600	
16595	0	33368	2931	0	32784	
16596	0	33244	2932	0	32856	
16597	0	33124	2933	0	32524	
16598	0	33260	2934	0	32596	
16599	0	33344	2935	0	32770	
16600	0	33228	2936	0	32843	
16601	0	33120	2937	0	32524	
16602	0	33256	2938	0	32580	
16603	0	33356	2939	0	32778	
16604	0	33244	2940	0	32836	
16605	0	33128	2941	0	32524	
16606	0	33262	2942	0	32600	
16607	0	33364	2943	0	32788	
16608	0	33240	2944	0	32836	
16609	0	33136	2945	0	32520	
16610	0	33260	2946	0	32596	
16611	0	33374	2947	0	32800	
16612	0	33248	2948	0	32832	
16613	0	33144	2949	0	32520	
16614	0	33260	2950	0	32618	
16615	0	33364	2951	0	32800	
16616	0	33256	2952	0	32836	
16617	0	33128	2953	0	32516	
16618	0	33268	2954	0	32608	
16619	0	33360	2955	0	32800	
16620	0	33261	2956	0	32826	
16621	0	33140	2957	0	32506	
16622	0	33272	2958	0	32616	
16623	0	33380	2959	0	32792	
16624	0	33262	2960	0	32813	
16625	0	33132	2961	0	32512	
16626	0	33268	2962	0	32612	
16627	0	33372	2963	0	32796	
16628	0	33260	2964	0	32828	
16629	0	33144	2965	0	32512	
16630	0	33276	2966	0	32616	
16631	0	33376	2967	0	32805	
16632	0	33260	2968	0	32816	
16633	0	33136	2969	0	32508	
16634	0	33276	2970	0	32630	
16635	0	33380	2971	0	32816	
16636	0	33260	2972	0	32816	
16637	0	33136	2973	0	32510	
16638	0	33268	2974	0	32632	
16639	0	33364	2975	0	32808	
16640	0	33256	2976	0	32804	
16641	0	33128	2977	0	32492	
16642	0	33268	2978	0	32632	
16643	0	33369	2979	0	32809	
16644	0	33268	2980	0	32800	
16645	0	33136	2981	0	32498	
16646	0	33280	2982	0	32634	
16647	0	33372	2983	0	32813	
16648	0	33248	2984	0	32800	
16649	0	33148	2985	0	32492	
16650	0	33268	2986	0	32636	
16651	0	33368	2987	0	32818	
16652	0	33264	2988	0	32801	
16653	0	33144	2989	0	32492	
16654	0	33264	2990	0	32636	
16655	0	33380	2991	0	32820	
16656	0	33268	2992	0	32800	
16657	0	33136	2993	0	32493	
16658	0	33276	2994	0	32641	
16659	0	33380	2995	0	32812	
16660	0	33260	2996	0	32784	
16661	0	33132	2997	0	32484	
16662	0	33264	2998	0	32640	
16663	0	33372	2999	0	32816	
16664	0	33256	3000	0	32776	
16665	0	33128	3001	0	32480	
16666	0	33272	3002	0	32632	
16667	0	33368	3003	0	32804	
16668	0	33256	3004	0	32772	
16669	0	33120	3005	0	32481	
16670	0	33260	3006	0	32642	
16671	0	33372	3007	0	32817	
16672	0	33252	3008	0	32764	
16673	0	33128	3009	0	32480	
16674	0	33260	3010	0	32647	
16675	0	33372	3011	0	32825	
16676	0	33252	3012	0	32770	
16677	0	33120	3013	0	32476	
16678	0	33264	3014	0	32653	
16679	0	33356	3015	0	32817	
16680	0	33248	3016	0	32755	
16681	0	33124	3017	0	32452	
16682	0	33252	3018	0	32636	
16683	0	33364	3019	0	32816	
16684	0	33260	3020	0	32752	
16685	0	33116	3021	0	32464	
16686	0	33252	3022	0	32642	
16687	0	33360	3023	0	32820	
16688	0	33244	3024	0	32748	
16689	0	33120	3025	0	32453	
16690	0	33252	3026	0	32640	
16691	0	33372	3027	0	32820	
16692	0	33264	3028	0	32744	
16693	0	33124	3029	0	32452	
16694	0	33264	3030	0	32648	
16695	0	33368	3031	0	32826	
16696	0	33256	3032	0	32742	
16697	0	33122	3033	0	32456	
16698	0	33260	3034	0	32644	
16699	0	33360	3035	0	32824	
16700	0	33264	3036	0	32738	
16701	0	33120	3037	0	32442	
16702	0	33252	3038	0	32644	
16703	0	33360	3039	0	32840	
16704	0	33268	3040	0	32738	
16705	0	33116	3041	0	32452	
16706	0	33264	3042	0	32656	
16707	0	33360	3043	0	32824	
16708	0	33264	3044	0	32728	
16709	0	33124	3045	0	32432	
16710	0	33256	3046	0	32644	
16711	0	33372	3047	0	32824	
16712	0	33276	3048	0	32712	
16713	0	33116	3049	0	32432	
16714	0	33260	3050	0	32656	
16715	0	33364	3051	0	32840	
16716	0	33276	3052	0	32728	
16717	0	33112	3053	0	32444	
16718	0	33256	3054	0	32668	
16719	0	33360	3055	0	32840	
16720	0	33272	3056	0	32728	
16721	0	33124	3057	0	32428	
16722	0	33268	3058	0	32668	
16723	0	33372	3059	0	32840	
16724	0	33280	3060	0	32728	
16725	0	33120	3061	0	32440	
16726	0	33268	3062	0	32680	
16727	0	33372	3063	0	32854	
16728	0	33272	3064	0	32722	
16729	0	33128	3065	0	32436	
16730	0	33268	3066	0	32674	
16731	0	33368	3067	0	32848	
16732	0	33280	3068	0	32724	
16733	0	33124	3069	0	32440	
16734	0	33272	3070	0	32690	
16735	0	33376	3071	0	32864	
16736	0	33280	3072	0	32736	
16737	0	33128	3073	0	32440	
16738	0	33268	3074	0	32692	
16739	0	33368	3075	0	32858	
16740	0	33284	3076	0	32724	
16741	0	33122	3077	0	32436	
16742	0	33276	3078	0	32684	
16743	0	33384	3079	0	32862	
16744	0	33296	3080	0	32720	
16745	0	33124	3081	0	32452	
16746	0	33264	3082	0	32690	
16747	0	33376	3083	0	32860	
16748	0	33284	3084	0	32714	
16749	0	33132	3085	0	32444	
16750	0	33272	3086	0	32684	
16751	0	33380	3087	0	32864	
16752	0	33296	3088	0	32712	
16753	0	33136	3089	0	32452	
16754	0	33276	3090	0	32698	
16755	0	33376	3091	0	32872	
16756	0	33304	3092	0	32722	
16757	0	33128	3093	0	32466	
16758	0	33272	3094	0	32711	
16759	0	33380	3095	0	32880	
16760	0	33300	3096	0	32720	
16761	0	33128	3097	0	32477	
16762	0	33284	3098	0	32706	
16763	0	33392	3099	0	32874	
16764	0	33308	3100	0	32714	
16765	0	33148	3101	0	32484	
16766	0	33284	3102	0	32706	
16767	0	33396	3103	0	32884	
16768	0	33304	3104	0	32704	
16769	0	33152	3105	0	32472	
16770	0	33293	3106	0	32708	
16771	0	33396	3107	0	32876	
16772	0	33312	3108	0	32712	
16773	0	33148	3109	0	32482	
16774	0	33300	3110	0	32720	
16775	0	33404	3111	0	32884	
16776	0	33316	3112	0	32712	
16777	0	33144	3113	0	32496	
16778	0	33292	3114	0	32724	
16779	0	33392	3115	0	32888	
16780	0	33320	3116	0	32712	
16781	0	33152	3117	0	32488	
16782	0	33300	3118	0	32728	
16783	0	33408	3119	0	32892	
16784	0	33316	3120	0	32713	
16785	0	33152	3121	0	32506	
16786	0	33308	3122	0	32726	
16787	0	33404	3123	0	32906	
16788	0	33328	3124	0	32704	
16789	0	33152	3125	0	32500	
16790	0	33292	3126	0	32716	
16791	0	33414	3127	0	32886	
16792	0	33328	3128	0	32705	
16793	0	33144	3129	0	32504	
16794	0	33288	3130	0	32724	
16795	0	33404	3131	0	32904	
16796	0	33328	3132	0	32705	
16797	0	33140	3133	0	32508	
16798	0	33288	3134	0	32730	
16799	0	33400	3135	0	32897	
16800	0	33324	3136	0	32706	
16801	0	33148	3137	0	32500	
16802	0	33302	3138	0	32728	
16803	0	33404	3139	0	32896	
16804	0	33336	3140	0	32704	
16805	0	33148	3141	0	32505	
16806	0	33296	3142	0	32740	
16807	0	33404	3143	0	32896	
16808	0	33336	3144	0	32704	
16809	0	33144	3145	0	32504	
16810	0	33292	3146	0	32731	
16811	0	33412	3147	0	32896	
16812	0	33332	3148	0	32688	
16813	0	33156	3149	0	32500	
16814	0	33296	3150	0	32720	
16815	0	33392	3151	0	32901	
16816	0	33336	3152	0	32690	
16817	0	33146	3153	0	32506	
16818	0	33296	3154	0	32728	
16819	0	33396	3155	0	32896	
16820	0	33336	3156	0	32668	
16821	0	33159	3157	0	32508	
16822	0	33297	3158	0	32736	
16823	0	33384	3159	0	32892	
16824	0	33340	3160	0	32680	
16825	0	33156	3161	0	32508	
16826	0	33298	3162	0	32732	
16827	0	33392	3163	0	32892	
16828	0	33336	3164	0	32674	
16829	0	33144	3165	0	32512	
16830	0	33280	3166	0	32722	
16831	0	33396	3167	0	32881	
16832	0	33328	3168	0	32668	
16833	0	33152	3169	0	32509	
16834	0	33285	3170	0	32722	
16835	0	33388	3171	0	32896	
16836	0	33328	3172	0	32660	
16837	0	33150	3173	0	32512	
16838	0	33272	3174	0	32728	
16839	0	33388	3175	0	32882	
16840	0	33316	3176	0	32644	
16841	0	33148	3177	0	32520	
16842	0	33272	3178	0	32722	
16843	0	33396	3179	0	32884	
16844	0	33344	3180	0	32648	
16845	0	33164	3181	0	32520	
16846	0	33276	3182	0	32722	
16847	0	33388	3183	0	32888	
16848	0	33328	3184	0	32648	
16849	0	33148	3185	0	32510	
16850	0	33256	3186	0	32720	
16851	0	33368	3187	0	32888	
16852	0	33328	3188	0	32632	
16853	0	33152	3189	0	32504	
16854	0	33264	3190	0	32728	
16855	0	33376	3191	0	32884	
16856	0	33332	3192	0	32632	
16857	0	33152	3193	0	32512	
16858	0	33260	3194	0	32732	
16859	0	33376	3195	0	32888	
16860	0	33336	3196	0	32620	
16861	0	33148	3197	0	32520	
16862	0	33256	3198	0	32726	
16863	0	33368	3199	0	32896	
16864	0	33336	3200	0	32621	
16865	0	33148	3201	0	32520	
16866	0	33260	3202	0	32732	
16867	0	33368	3203	0	32890	
16868	0	33336	3204	0	32616	
16869	0	33152	3205	0	32530	
16870	0	33252	3206	0	32732	
16871	0	33364	3207	0	32888	
16872	0	33344	3208	0	32608	
16873	0	33156	3209	0	32540	
16874	0	33260	3210	0	32736	
16875	0	33364	3211	0	32892	
16876	0	33344	3212	0	32608	
16877	0	33160	3213	0	32524	
16878	0	33248	3214	0	32732	
16879	0	33368	3215	0	32884	
16880	0	33344	3216	0	32598	
16881	0	33160	3217	0	32528	
16882	0	33252	3218	0	32728	
16883	0	33360	3219	0	32900	
16884	0	33352	3220	0	32604	
16885	0	33164	3221	0	32544	
16886	0	33256	3222	0	32752	
16887	0	33360	3223	0	32908	
16888	0	33352	3224	0	32592	
16889	0	33172	3225	0	32552	
16890	0	33252	3226	0	32740	
16891	0	33356	3227	0	32892	
16892	0	33360	3228	0	32584	
16893	0	33176	3229	0	32544	
16894	0	33248	3230	0	32744	
16895	0	33376	3231	0	32908	
16896	0	33360	3232	0	32590	
16897	0	33165	3233	0	32546	
16898	0	33248	3234	0	32746	
16899	0	33380	3235	0	32898	
16900	0	33360	3236	0	32592	
16901	0	33168	3237	0	32554	
16902	0	33252	3238	0	32752	
16903	0	33364	3239	0	32905	
16904	0	33360	3240	0	32580	
16905	0	33176	3241	0	32562	
16906	0	33268	3242	0	32762	
16907	0	33360	3243	0	32912	
16908	0	33364	3244	0	32584	
16909	0	33168	3245	0	32552	
16910	0	33248	3246	0	32752	
16911	0	33368	3247	0	32912	
16912	0	33368	3248	0	32576	
16913	0	33176	3249	0	32552	
16914	0	33240	3250	0	32758	
16915	0	33356	3251	0	32912	
16916	0	33368	3252	0	32569	
16917	0	33172	3253	0	32562	
16918	0	33248	3254	0	32752	
16919	0	33368	3255	0	32904	
16920	0	33372	3256	0	32570	
16921	0	33172	3257	0	32564	
16922	0	33248	3258	0	32761	
16923	0	33368	3259	0	32904	
16924	0	33380	3260	0	32560	
16925	0	33180	3261	0	32568	
16926	0	33248	3262	0	32760	
16927	0	33352	3263	0	32896	
16928	0	33372	3264	0	32572	
16929	0	33184	3265	0	32564	
16930	0	33240	3266	0	32754	
16931	0	33364	3267	0	32892	
16932	0	33372	3268	0	32556	
16933	0	33180	3269	0	32564	
16934	0	33252	3270	0	32762	
16935	0	33352	3271	0	32878	
16936	0	33364	3272	0	32548	
16937	0	33172	3273	0	32568	
16938	0	33248	3274	0	32763	
16939	0	33356	3275	0	32880	
16940	0	33380	3276	0	32545	
16941	0	33168	3277	0	32556	
16942	0	33248	3278	0	32772	
16943	0	33348	3279	0	32872	
16944	0	33372	3280	0	32550	
16945	0	33184	3281	0	32581	
16946	0	33240	3282	0	32770	
16947	0	33348	3283	0	32872	
16948	0	33360	3284	0	32544	
16949	0	33180	3285	0	32568	
16950	0	33240	3286	0	32770	
16951	0	33352	3287	0	32856	
16952	0	33368	3288	0	32536	
16953	0	33172	3289	0	32578	
16954	0	33240	3290	0	32768	
16955	0	33352	3291	0	32853	
16956	0	33372	3292	0	32530	
16957	0	33180	3293	0	32576	
16958	0	33224	3294	0	32760	
16959	0	33344	3295	0	32844	
16960	0	33360	3296	0	32508	
16961	0	33168	3297	0	32576	
16962	0	33228	3298	0	32762	
16963	0	33348	3299	0	32836	
16964	0	33372	3300	0	32516	
16965	0	33180	3301	0	32580	
16966	0	33216	3302	0	32764	
16967	0	33340	3303	0	32836	
16968	0	33368	3304	0	32514	
16969	0	33172	3305	0	32572	
16970	0	33220	3306	0	32762	
16971	0	33336	3307	0	32828	
16972	0	33368	3308	0	32492	
16973	0	33168	3309	0	32578	
16974	0	33224	3310	0	32754	
16975	0	33336	3311	0	32824	
16976	0	33368	3312	0	32490	
16977	0	33184	3313	0	32570	
16978	0	33216	3314	0	32748	
16979	0	33332	3315	0	32810	
16980	0	33356	3316	0	32482	
16981	0	33168	3317	0	32560	
16982	0	33220	3318	0	32740	
16983	0	33328	3319	0	32800	
16984	0	33368	3320	0	32490	
16985	0	33172	3321	0	32568	
16986	0	33220	3322	0	32752	
16987	0	33328	3323	0	32801	
16988	0	33356	3324	0	32480	
16989	0	33168	3325	0	32572	
16990	0	33212	3326	0	32746	
16991	0	33328	3327	0	32790	
16992	0	33376	3328	0	32476	
16993	0	33178	3329	0	32569	
16994	0	33216	3330	0	32754	
16995	0	33328	3331	0	32778	
16996	0	33368	3332	0	32464	
16997	0	33180	3333	0	32568	
16998	0	33192	3334	0	32740	
16999	0	33312	3335	0	32770	
17000	0	33356	3336	0	32460	
17001	0	33164	3337	0	32557	
17002	0	33200	3338	0	32737	
17003	0	33320	3339	0	32768	
17004	0	33368	3340	0	32462	
17005	0	33178	3341	0	32568	
17006	0	33200	3342	0	32750	
17007	0	33320	3343	0	32768	
17008	0	33364	3344	0	32457	
17009	0	33172	3345	0	32564	
17010	0	33208	3346	0	32740	
17011	0	33320	3347	0	32754	
17012	0	33360	3348	0	32452	
17013	0	33180	3349	0	32560	
17014	0	33192	3350	0	32758	
17015	0	33316	3351	0	32760	
17016	0	33376	3352	0	32445	
17017	0	33169	3353	0	32580	
17018	0	33192	3354	0	32754	
17019	0	33304	3355	0	32732	
17020	0	33364	3356	0	32420	
17021	0	33180	3357	0	32568	
17022	0	33204	3358	0	32740	
17023	0	33314	3359	0	32721	
17024	0	33380	3360	0	32424	
17025	0	33172	3361	0	32578	
17026	0	33194	3362	0	32769	
17027	0	33320	3363	0	32720	
17028	0	33368	3364	0	32420	
17029	0	33172	3365	0	32602	
17030	0	33200	3366	0	32764	
17031	0	33314	3367	0	32722	
17032	0	33364	3368	0	32420	
17033	0	33172	3369	0	32594	
17034	0	33196	3370	0	32768	
17035	0	33324	3371	0	32722	
17036	0	33368	3372	0	32420	
17037	0	33188	3373	0	32598	
17038	0	33192	3374	0	32762	
17039	0	33312	3375	0	32706	
17040	0	33372	3376	0	32410	
17041	0	33172	3377	0	32594	
17042	0	33192	3378	0	32770	
17043	0	33324	3379	0	32700	
17044	0	33376	3380	0	32412	
17045	0	33184	3381	0	32604	
17046	0	33216	3382	0	32786	
17047	0	33316	3383	0	32712	
17048	0	33376	3384	0	32412	
17049	0	33172	3385	0	32611	
17050	0	33196	3386	0	32776	
17051	0	33316	3387	0	32704	
17052	0	33380	3388	0	32408	
17053	0	33184	3389	0	32616	
17054	0	33208	3390	0	32794	
17055	0	33316	3391	0	32700	
17056	0	33380	3392	0	32413	
17057	0	33184	3393	0	32620	
17058	0	33200	3394	0	32788	
17059	0	33308	3395	0	32684	
17060	0	33376	3396	0	32394	
17061	0	33180	3397	0	32616	
17062	0	33200	3398	0	32796	
17063	0	33328	3399	0	32684	
17064	0	33396	3400	0	32392	
17065	0	33192	3401	0	32620	
17066	0	33204	3402	0	32797	
17067	0	33332	3403	0	32688	
17068	0	33398	3404	0	32404	
17069	0	33192	3405	0	32632	
17070	0	33204	3406	0	32800	
17071	0	33324	3407	0	32676	
17072	0	33388	3408	0	32395	
17073	0	33192	3409	0	32628	
17074	0	33196	3410	0	32804	
17075	0	33336	3411	0	32680	
17076	0	33400	3412	0	32392	
17077	0	33196	3413	0	32624	
17078	0	33196	3414	0	32801	
17079	0	33320	3415	0	32682	
17080	0	33392	3416	0	32386	
17081	0	33188	3417	0	32624	
17082	0	33196	3418	0	32792	
17083	0	33324	3419	0	32672	
17084	0	33392	3420	0	32380	
17085	0	33184	3421	0	32632	
17086	0	33208	3422	0	32800	
17087	0	33316	3423	0	32672	
17088	0	33400	3424	0	32384	
17089	0	33184	3425	0	32642	
17090	0	33204	3426	0	32800	
17091	0	33324	3427	0	32666	
17092	0	33396	3428	0	32395	
17093	0	33196	3429	0	32635	
17094	0	33212	3430	0	32809	
17095	0	33328	3431	0	32672	
17096	0	33392	3432	0	32398	
17097	0	33188	3433	0	32639	
17098	0	33188	3434	0	32800	
17099	0	33324	3435	0	32668	
17100	0	33380	3436	0	32390	
17101	0	33192	3437	0	32620	
17102	0	33196	3438	0	32792	
17103	0	33312	3439	0	32656	
17104	0	33380	3440	0	32388	
17105	0	33188	3441	0	32632	
17106	0	33196	3442	0	32800	
17107	0	33332	3443	0	32648	
17108	0	33392	3444	0	32394	
17109	0	33180	3445	0	32628	
17110	0	33196	3446	0	32800	
17111	0	33320	3447	0	32650	
17112	0	33384	3448	0	32400	
17113	0	33184	3449	0	32632	
17114	0	33200	3450	0	32800	
17115	0	33324	3451	0	32640	
17116	0	33388	3452	0	32402	
17117	0	33184	3453	0	32640	
17118	0	33184	3454	0	32800	
17119	0	33316	3455	0	32632	
17120	0	33368	3456	0	32392	
17121	0	33180	3457	0	32624	
17122	0	33196	3458	0	32804	
17123	0	33304	3459	0	32624	
17124	0	33372	3460	0	32402	
17125	0	33164	3461	0	32634	
17126	0	33184	3462	0	32796	
17127	0	33308	3463	0	32616	
17128	0	33372	3464	0	32408	
17129	0	33180	3465	0	32636	
17130	0	33188	3466	0	32800	
17131	0	33304	3467	0	32618	
17132	0	33380	3468	0	32404	
17133	0	33168	3469	0	32632	
17134	0	33192	3470	0	32800	
17135	0	33308	3471	0	32609	
17136	0	33368	3472	0	32404	
17137	0	33168	3473	0	32628	
17138	0	33176	3474	0	32800	
17139	0	33296	3475	0	32596	
17140	0	33360	3476	0	32404	
17141	0	33164	3477	0	32628	
17142	0	33176	3478	0	32796	
17143	0	33304	3479	0	32592	
17144	0	33364	3480	0	32404	
17145	0	33152	3481	0	32632	
17146	0	33180	3482	0	32800	
17147	0	33292	3483	0	32600	
17148	0	33356	3484	0	32408	
17149	0	33157	3485	0	32624	
17150	0	33180	3486	0	32800	
17151	0	33292	3487	0	32584	
17152	0	33348	3488	0	32418	
17153	0	33154	3489	0	32640	
17154	0	33188	3490	0	32797	
17155	0	33292	3491	0	32594	
17156	0	33356	3492	0	32432	
17157	0	33144	3493	0	32646	
17158	0	33176	3494	0	32800	
17159	0	33280	3495	0	32584	
17160	0	33344	3496	0	32420	
17161	0	33144	3497	0	32644	
17162	0	33160	3498	0	32796	
17163	0	33288	3499	0	32570	
17164	0	33346	3500	0	32432	
17165	0	33140	3501	0	32648	
17166	0	33168	3502	0	32812	
17167	0	33287	3503	0	32578	
17168	0	33332	3504	0	32436	
17169	0	33140	3505	0	32654	
17170	0	33172	3506	0	32824	
17171	0	33284	3507	0	32573	
17172	0	33336	3508	0	32448	
17173	0	33136	3509	0	32668	
17174	0	33176	3510	0	32816	
17175	0	33296	3511	0	32572	
17176	0	33344	3512	0	32452	
17177	0	33148	3513	0	32669	
17178	0	33168	3514	0	32820	
17179	0	33284	3515	0	32569	
17180	0	33340	3516	0	32452	
17181	0	33140	3517	0	32656	
17182	0	33168	3518	0	32816	
17183	0	33280	3519	0	32568	
17184	0	33340	3520	0	32456	
17185	0	33144	3521	0	32669	
17186	0	33168	3522	0	32828	
17187	0	33288	3523	0	32576	
17188	0	33344	3524	0	32461	
17189	0	33140	3525	0	32668	
17190	0	33168	3526	0	32832	
17191	0	33292	3527	0	32568	
17192	0	33336	3528	0	32472	
17193	0	33152	3529	0	32680	
17194	0	33184	3530	0	32844	
17195	0	33296	3531	0	32576	
17196	0	33356	3532	0	32476	
17197	0	33145	3533	0	32682	
17198	0	33178	3534	0	32842	
17199	0	33296	3535	0	32564	
17200	0	33336	3536	0	32476	
17201	0	33156	3537	0	32682	
17202	0	33180	3538	0	32840	
17203	0	33296	3539	0	32569	
17204	0	33340	3540	0	32476	
17205	0	33149	3541	0	32676	
17206	0	33180	3542	0	32852	
17207	0	33300	3543	0	32560	
17208	0	33344	3544	0	32480	
17209	0	33148	3545	0	32680	
17210	0	33184	3546	0	32848	
17211	0	33292	3547	0	32552	
17212	0	33344	3548	0	32486	
17213	0	33148	3549	0	32692	
17214	0	33188	3550	0	32856	
17215	0	33304	3551	0	32568	
17216	0	33348	3552	0	32496	
17217	0	33156	3553	0	32692	
17218	0	33192	3554	0	32860	
17219	0	33300	3555	0	32562	
17220	0	33344	3556	0	32496	
17221	0	33148	3557	0	32699	
17222	0	33184	3558	0	32850	
17223	0	33296	3559	0	32556	
17224	0	33344	3560	0	32498	
17225	0	33148	3561	0	32698	
17226	0	33188	3562	0	32856	
17227	0	33296	3563	0	32556	
17228	0	33344	3564	0	32496	
17229	0	33136	3565	0	32696	
17230	0	33189	3566	0	32858	
17231	0	33300	3567	0	32556	
17232	0	33336	3568	0	32493	
17233	0	33148	3569	0	32692	
17234	0	33196	3570	0	32862	
17235	0	33308	3571	0	32559	
17236	0	33340	3572	0	32502	
17237	0	33148	3573	0	32708	
17238	0	33192	3574	0	32865	
17239	0	33304	3575	0	32544	
17240	0	33345	3576	0	32492	
17241	0	33148	3577	0	32698	
17242	0	33184	3578	0	32852	
17243	0	33312	3579	0	32552	
17244	0	33336	3580	0	32504	
17245	0	33156	3581	0	32708	
17246	0	33184	3582	0	32865	
17247	0	33296	3583	0	32546	
17248	0	33328	3584	0	32512	
17249	0	33136	3585	0	32712	
17250	0	33180	3586	0	32862	
17251	0	33296	3587	0	32544	
17252	0	33328	3588	0	32506	
17253	0	33140	3589	0	32708	
17254	0	33188	3590	0	32866	
17255	0	33300	3591	0	32536	
17256	0	33340	3592	0	32508	
17257	0	33132	3593	0	32708	
17258	0	33184	3594	0	32871	
17259	0	33300	3595	0	32544	
17260	0	33332	3596	0	32516	
17261	0	33132	3597	0	32712	
17262	0	33184	3598	0	32872	
17263	0	33296	3599	0	32536	
17264	0	33336	3600	0	32532	
17265	0	33132	3601	0	32720	
17266	0	33196	3602	0	32868	
17267	0	33294	3603	0	32529	
17268	0	33328	3604	0	32520	
17269	0	33144	3605	0	32714	
17270	0	33184	3606	0	32864	
17271	0	33308	3607	0	32518	
17272	0	33328	3608	0	32528	
17273	0	33144	3609	0	32722	
17274	0	33192	3610	0	32864	
17275	0	33316	3611	0	32530	
17276	0	33332	3612	0	32540	
17277	0	33152	3613	0	32728	
17278	0	33184	3614	0	32868	
17279	0	33300	3615	0	32520	
17280	0	33330	3616	0	32524	
17281	0	33140	3617	0	32722	
17282	0	33200	3618	0	32852	
17283	0	33312	3619	0	32523	
17284	0	33336	3620	0	32530	
17285	0	33140	3621	0	32724	
17286	0	33196	3622	0	32852	
17287	0	33312	3623	0	32524	
17288	0	33332	3624	0	32528	
17289	0	33140	3625	0	32720	
17290	0	33192	3626	0	32836	
17291	0	33300	3627	0	32505	
17292	0	33320	3628	0	32528	
17293	0	33140	3629	0	32722	
17294	0	33188	3630	0	32848	
17295	0	33316	3631	0	32508	
17296	0	33344	3632	0	32536	
17297	0	33149	3633	0	32728	
17298	0	33204	3634	0	32840	
17299	0	33308	3635	0	32508	
17300	0	33336	3636	0	32522	
17301	0	33144	3637	0	32712	
17302	0	33200	3638	0	32836	
17303	0	33312	3639	0	32500	
17304	0	33324	3640	0	32540	
17305	0	33136	3641	0	32732	
17306	0	33192	3642	0	32836	
17307	0	33308	3643	0	32512	
17308	0	33320	3644	0	32530	
17309	0	33140	3645	0	32720	
17310	0	33200	3646	0	32820	
17311	0	33308	3647	0	32484	
17312	0	33320	3648	0	32524	
17313	0	33124	3649	0	32716	
17314	0	33206	3650	0	32813	
17315	0	33314	3651	0	32484	
17316	0	33332	3652	0	32530	
17317	0	33136	3653	0	32712	
17318	0	33192	3654	0	32804	
17319	0	33308	3655	0	32480	
17320	0	33312	3656	0	32532	
17321	0	33124	3657	0	32716	
17322	0	33200	3658	0	32800	
17323	0	33316	3659	0	32480	
17324	0	33324	3660	0	32540	
17325	0	33132	3661	0	32720	
17326	0	33208	3662	0	32793	
17327	0	33312	3663	0	32472	
17328	0	33316	3664	0	32524	
17329	0	33128	3665	0	32720	
17330	0	33188	3666	0	32774	
17331	0	33312	3667	0	32456	
17332	0	33314	3668	0	32536	
17333	0	33132	3669	0	32715	
17334	0	33200	3670	0	32768	
17335	0	33312	3671	0	32458	
17336	0	33316	3672	0	32538	
17337	0	33124	3673	0	32726	
17338	0	33204	3674	0	32778	
17339	0	33304	3675	0	32458	
17340	0	33312	3676	0	32536	
17341	0	33124	3677	0	32722	
17342	0	33200	3678	0	32768	
17343	0	33308	3679	0	32456	
17344	0	33316	3680	0	32532	
17345	0	33124	3681	0	32720	
17346	0	33206	3682	0	32775	
17347	0	33316	3683	0	32464	
17348	0	33308	3684	0	32544	
17349	0	33124	3685	0	32720	
17350	0	33192	3686	0	32770	
17351	0	33308	3687	0	32459	
17352	0	33312	3688	0	32544	
17353	0	33124	3689	0	32724	
17354	0	33208	3690	0	32770	
17355	0	33312	3691	0	32456	
17356	0	33312	3692	0	32544	
17357	0	33120	3693	0	32744	
17358	0	33206	3694	0	32775	
17359	0	33312	3695	0	32473	
17360	0	33312	3696	0	32549	
17361	0	33120	3697	0	32728	
17362	0	33204	3698	0	32768	
17363	0	33328	3699	0	32459	
17364	0	33316	3700	0	32560	
17365	0	33128	3701	0	32736	
17366	0	33216	3702	0	32768	
17367	0	33320	3703	0	32464	
17368	0	33312	3704	0	32550	
17369	0	33128	3705	0	32732	
17370	0	33208	3706	0	32752	
17371	0	33337	3707	0	32448	
17372	0	33312	3708	0	32544	
17373	0	33132	3709	0	32724	
17374	0	33208	3710	0	32754	
17375	0	33328	3711	0	32452	
17376	0	33316	3712	0	32564	
17377	0	33120	3713	0	32740	
17378	0	33212	3714	0	32748	
17379	0	33320	3715	0	32440	
17380	0	33324	3716	0	32552	
17381	0	33120	3717	0	32746	
17382	0	33212	3718	0	32752	
17383	0	33332	3719	0	32442	
17384	0	33320	3720	0	32556	
17385	0	33128	3721	0	32744	
17386	0	33216	3722	0	32760	
17387	0	33328	3723	0	32448	
17388	0	33316	3724	0	32566	
17389	0	33112	3725	0	32744	
17390	0	33212	3726	0	32744	
17391	0	33328	3727	0	32440	
17392	0	33308	3728	0	32564	
17393	0	33124	3729	0	32752	
17394	0	33212	3730	0	32736	
17395	0	33324	3731	0	32442	
17396	0	33308	3732	0	32568	
17397	0	33112	3733	0	32752	
17398	0	33216	3734	0	32748	
17399	0	33320	3735	0	32420	
17400	0	33296	3736	0	32560	
17401	0	33120	3737	0	32736	
17402	0	33208	3738	0	32722	
17403	0	33320	3739	0	32428	
17404	0	33300	3740	0	32572	
17405	0	33120	3741	0	32752	
17406	0	33212	3742	0	32724	
17407	0	33330	3743	0	32424	
17408	0	33316	3744	0	32571	
17409	0	33096	3745	0	32736	
17410	0	33204	3746	0	32724	
17411	0	33324	3747	0	32412	
17412	0	33300	3748	0	32570	
17413	0	33112	3749	0	32744	
17414	0	33208	3750	0	32720	
17415	0	33320	3751	0	32414	
17416	0	33292	3752	0	32572	
17417	0	33120	3753	0	32749	
17418	0	33208	3754	0	32712	
17419	0	33312	3755	0	32408	
17420	0	33300	3756	0	32560	
17421	0	33112	3757	0	32736	
17422	0	33208	3758	0	32706	
17423	0	33316	3759	0	32400	
17424	0	33292	3760	0	32572	
17425	0	33108	3761	0	32744	
17426	0	33216	3762	0	32706	
17427	0	33320	3763	0	32404	
17428	0	33292	3764	0	32562	
17429	0	33100	3765	0	32745	
17430	0	33212	3766	0	32694	
17431	0	33320	3767	0	32396	
17432	0	33284	3768	0	32569	
17433	0	33120	3769	0	32736	
17434	0	33212	3770	0	32692	
17435	0	33328	3771	0	32392	
17436	0	33288	3772	0	32560	
17437	0	33096	3773	0	32736	
17438	0	33192	3774	0	32680	
17439	0	33312	3775	0	32376	
17440	0	33280	3776	0	32558	
17441	0	33112	3777	0	32728	
17442	0	33208	3778	0	32670	
17443	0	33320	3779	0	32386	
17444	0	33294	3780	0	32552	
17445	0	33092	3781	0	32746	
17446	0	33212	3782	0	32690	
17447	0	33316	3783	0	32380	
17448	0	33292	3784	0	32556	
17449	0	33096	3785	0	32736	
17450	0	33208	3786	0	32668	
17451	0	33312	3787	0	32370	
17452	0	33280	3788	0	32561	
17453	0	33096	3789	0	32736	
17454	0	33216	3790	0	32664	
17455	0	33316	3791	0	32368	
17456	0	33272	3792	0	32564	
17457	0	33096	3793	0	32729	
17458	0	33216	3794	0	32648	
17459	0	33308	3795	0	32352	
17460	0	33276	3796	0	32562	
17461	0	33092	3797	0	32736	
17462	0	33204	3798	0	32648	
17463	0	33312	3799	0	32354	
17464	0	33280	3800	0	32572	
17465	0	33100	3801	0	32750	
17466	0	33208	3802	0	32640	
17467	0	33312	3803	0	32352	
17468	0	33284	3804	0	32568	
17469	0	33096	3805	0	32736	
17470	0	33212	3806	0	32642	
17471	0	33312	3807	0	32348	
17472	0	33284	3808	0	32568	
17473	0	33104	3809	0	32752	
17474	0	33212	3810	0	32640	
17475	0	33320	3811	0	32348	
17476	0	33292	3812	0	32576	
17477	0	33108	3813	0	32736	
17478	0	33212	3814	0	32630	
17479	0	33320	3815	0	32340	
17480	0	33280	3816	0	32562	
17481	0	33104	3817	0	32748	
17482	0	33208	3818	0	32624	
17483	0	33328	3819	0	32340	
17484	0	33292	3820	0	32568	
17485	0	33108	3821	0	32756	
17486	0	33228	3822	0	32632	
17487	0	33328	3823	0	32348	
17488	0	33274	3824	0	32592	
17489	0	33104	3825	0	32756	
17490	0	33216	3826	0	32632	
17491	0	33328	3827	0	32340	
17492	0	33284	3828	0	32592	
17493	0	33104	3829	0	32752	
17494	0	33224	3830	0	32624	
17495	0	33328	3831	0	32344	
17496	0	33284	3832	0	32576	
17497	0	33088	3833	0	32756	
17498	0	33216	3834	0	32624	
17499	0	33320	3835	0	32340	
17500	0	33276	3836	0	32586	
17501	0	33100	3837	0	32740	
17502	0	33224	3838	0	32612	
17503	0	33337	3839	0	32336	
17504	0	33288	3840	0	32594	
17505	0	33104	3841	0	32752	
17506	0	33216	3842	0	32620	
17507	0	33340	3843	0	32352	
17508	0	33280	3844	0	32596	
17509	0	33117	3845	0	32760	
17510	0	33228	3846	0	32622	
17511	0	33340	3847	0	32356	
17512	0	33292	3848	0	32604	
17513	0	33100	3849	0	32770	
17514	0	33232	3850	0	32617	
17515	0	33340	3851	0	32360	
17516	0	33276	3852	0	32612	
17517	0	33108	3853	0	32780	
17518	0	33232	3854	0	32612	
17519	0	33340	3855	0	32368	
17520	0	33280	3856	0	32600	
17521	0	33104	3857	0	32770	
17522	0	33228	3858	0	32608	
17523	0	33344	3859	0	32370	
17524	0	33292	3860	0	32620	
17525	0	33112	3861	0	32792	
17526	0	33244	3862	0	32612	
17527	0	33344	3863	0	32394	
17528	0	33284	3864	0	32622	
17529	0	33100	3865	0	32800	
17530	0	33244	3866	0	32600	
17531	0	33348	3867	0	32396	
17532	0	33304	3868	0	32626	
17533	0	33120	3869	0	32797	
17534	0	33248	3870	0	32610	
17535	0	33360	3871	0	32408	
17536	0	33296	3872	0	32624	
17537	0	33124	3873	0	32792	
17538	0	33236	3874	0	32604	
17539	0	33356	3875	0	32404	
17540	0	33304	3876	0	32633	
17541	0	33120	3877	0	32792	
17542	0	33244	3878	0	32596	
17543	0	33352	3879	0	32402	
17544	0	33292	3880	0	32636	
17545	0	33116	3881	0	32801	
17546	0	33264	3882	0	32610	
17547	0	33356	3883	0	32412	
17548	0	33296	3884	0	32636	
17549	0	33112	3885	0	32808	
17550	0	33248	3886	0	32608	
17551	0	33348	3887	0	32416	
17552	0	33292	3888	0	32640	
17553	0	33112	3889	0	32804	
17554	0	33252	3890	0	32608	
17555	0	33360	3891	0	32422	
17556	0	33308	3892	0	32650	
17557	0	33116	3893	0	32814	
17558	0	33248	3894	0	32594	
17559	0	33361	3895	0	32414	
17560	0	33292	3896	0	32632	
17561	0	33108	3897	0	32800	
17562	0	33240	3898	0	32584	
17563	0	33360	3899	0	32424	
17564	0	33284	3900	0	32642	
17565	0	33120	3901	0	32804	
17566	0	33248	3902	0	32592	
17567	0	33362	3903	0	32435	
17568	0	33290	3904	0	32658	
17569	0	33112	3905	0	32810	
17570	0	33256	3906	0	32584	
17571	0	33360	3907	0	32432	
17572	0	33300	3908	0	32648	
17573	0	33116	3909	0	32824	
17574	0	33248	3910	0	32598	
17575	0	33368	3911	0	32432	
17576	0	33292	3912	0	32652	
17577	0	33112	3913	0	32820	
17578	0	33252	3914	0	32596	
17579	0	33348	3915	0	32432	
17580	0	33284	3916	0	32648	
17581	0	33104	3917	0	32813	
17582	0	33244	3918	0	32560	
17583	0	33356	3919	0	32432	
17584	0	33276	3920	0	32640	
17585	0	33112	3921	0	32820	
17586	0	33252	3922	0	32572	
17587	0	33344	3923	0	32442	
17588	0	33292	3924	0	32656	
17589	0	33104	3925	0	32812	
17590	0	33248	3926	0	32564	
17591	0	33352	3927	0	32441	
17592	0	33288	3928	0	32648	
17593	0	33100	3929	0	32820	
17594	0	33256	3930	0	32576	
17595	0	33364	3931	0	32444	
17596	0	33284	3932	0	32667	
17597	0	33100	3933	0	32824	
17598	0	33248	3934	0	32562	
17599	0	33360	3935	0	32436	
17600	0	33276	3936	0	32652	
17601	0	33092	3937	0	32812	
17602	0	33248	3938	0	32548	
17603	0	33356	3939	0	32445	
17604	0	33280	3940	0	32660	
17605	0	33108	3941	0	32825	
17606	0	33252	3942	0	32564	
17607	0	33364	3943	0	32461	
17608	0	33280	3944	0	32650	
17609	0	33112	3945	0	32820	
17610	0	33260	3946	0	32548	
17611	0	33370	3947	0	32450	
17612	0	33276	3948	0	32672	
17613	0	33112	3949	0	32832	
17614	0	33256	3950	0	32556	
17615	0	33360	3951	0	32458	
17616	0	33272	3952	0	32664	
17617	0	33112	3953	0	32820	
17618	0	33248	3954	0	32544	
17619	0	33364	3955	0	32452	
17620	0	33272	3956	0	32660	
17621	0	33112	3957	0	32816	
17622	0	33256	3958	0	32544	
17623	0	33352	3959	0	32448	
17624	0	33276	3960	0	32660	
17625	0	33104	3961	0	32817	
17626	0	33268	3962	0	32540	
17627	0	33364	3963	0	32464	
17628	0	33268	3964	0	32672	
17629	0	33116	3965	0	32828	
17630	0	33252	3966	0	32534	
17631	0	33368	3967	0	32469	
17632	0	33272	3968	0	32668	
17633	0	33116	3969	0	32840	
17634	0	33256	3970	0	32536	
17635	0	33372	3971	0	32468	
17636	0	33276	3972	0	32684	
17637	0	33120	3973	0	32841	
17638	0	33252	3974	0	32540	
17639	0	33360	3975	0	32472	
17640	0	33272	3976	0	32664	
17641	0	33124	3977	0	32828	
17642	0	33248	3978	0	32530	
17643	0	33368	3979	0	32472	
17644	0	33268	3980	0	32673	
17645	0	33124	3981	0	32841	
17646	0	33260	3982	0	32532	
17647	0	33368	3983	0	32476	
17648	0	33280	3984	0	32684	
17649	0	33128	3985	0	32840	
17650	0	33264	3986	0	32528	
17651	0	33383	3987	0	32480	
17652	0	33276	3988	0	32672	
17653	0	33128	3989	0	32840	
17654	0	33272	3990	0	32536	
17655	0	33384	3991	0	32488	
17656	0	33292	3992	0	32702	
17657	0	33140	3993	0	32840	
17658	0	33276	3994	0	32530	
17659	0	33377	3995	0	32480	
17660	0	33276	3996	0	32676	
17661	0	33140	3997	0	32832	
17662	0	33264	3998	0	32522	
17663	0	33384	3999	0	32484	
17664	0	33290	4000	0	32680	
17665	0	33140	4001	0	32846	
17666	0	33280	4002	0	32520	
17667	0	33384	4003	0	32492	
17668	0	33284	4004	0	32676	
17669	0	33132	4005	0	32844	
17670	0	33274	4006	0	32528	
17671	0	33392	4007	0	32484	
17672	0	33284	4008	0	32688	
17673	0	33144	4009	0	32841	
17674	0	33284	4010	0	32524	
17675	0	33388	4011	0	32507	
17676	0	33288	4012	0	32696	
17677	0	33152	4013	0	32856	
17678	0	33288	4014	0	32520	
17679	0	33384	4015	0	32488	
17680	0	33284	4016	0	32682	
17681	0	33148	4017	0	32842	
17682	0	33285	4018	0	32512	
17683	0	33384	4019	0	32490	
17684	0	33288	4020	0	32696	
17685	0	33144	4021	0	32848	
17686	0	33287	4022	0	32506	
17687	0	33388	4023	0	32505	
17688	0	33280	4024	0	32697	
17689	0	33144	4025	0	32844	
17690	0	33284	4026	0	32496	
17691	0	33389	4027	0	32496	
17692	0	33284	4028	0	32701	
17693	0	33140	4029	0	32842	
17694	0	33288	4030	0	32504	
17695	0	33396	4031	0	32514	
17696	0	33284	4032	0	32706	
17697	0	33144	4033	0	32840	
17698	0	33280	4034	0	32500	
17699	0	33388	4035	0	32515	
17700	0	33287	4036	0	32708	
17701	0	33148	4037	0	32824	
17702	0	33288	4038	0	32489	
17703	0	33392	4039	0	32516	
17704	0	33284	4040	0	32706	
17705	0	33152	4041	0	32816	
17706	0	33287	4042	0	32488	
17707	0	33392	4043	0	32514	
17708	0	33272	4044	0	32712	
17709	0	33144	4045	0	32800	
17710	0	33276	4046	0	32476	
17711	0	33380	4047	0	32516	
17712	0	33280	4048	0	32704	
17713	0	33152	4049	0	32817	
17714	0	33292	4050	0	32480	
17715	0	33392	4051	0	32523	
17716	0	33272	4052	0	32716	
17717	0	33152	4053	0	32816	
17718	0	33284	4054	0	32480	
17719	0	33392	4055	0	32512	
17720	0	33260	4056	0	32708	
17721	0	33156	4057	0	32792	
17722	0	33292	4058	0	32473	
17723	0	33396	4059	0	32514	
17724	0	33268	4060	0	32710	
17725	0	33168	4061	0	32800	
17726	0	33280	4062	0	32478	
17727	0	33384	4063	0	32522	
17728	0	33256	4064	0	32706	
17729	0	33156	4065	0	32792	
17730	0	33292	4066	0	32484	
17731	0	33396	4067	0	32522	
17732	0	33276	4068	0	32714	
17733	0	33164	4069	0	32800	
17734	0	33300	4070	0	32472	
17735	0	33388	4071	0	32538	
17736	0	33256	4072	0	32722	
17737	0	33148	4073	0	32797	
17738	0	33292	4074	0	32466	
17739	0	33404	4075	0	32528	
17740	0	33256	4076	0	32714	
17741	0	33156	4077	0	32780	
17742	0	33288	4078	0	32464	
17743	0	33396	4079	0	32545	
17744	0	33260	4080	0	32728	
17745	0	33152	4081	0	32784	
17746	0	33296	4082	0	32462	
17747	0	33400	4083	0	32544	
17748	0	33256	4084	0	32724	
17749	0	33168	4085	0	32768	
17750	0	33292	4086	0	32442	
17751	0	33396	4087	0	32536	
17752	0	33252	4088	0	32726	
17753	0	33176	4089	0	32760	
17754	0	33296	4090	0	32452	
17755	0	33392	4091	0	32540	
17756	0	33252	4092	0	32724	
17757	0	33164	4093	0	32760	
17758	0	33300	4094	0	32448	
17759	0	33396	4095	0	32536	
17760	0	33252	4096	0	32722	
17761	0	33168	4097	0	32754	
17762	0	33296	4098	0	32444	
17763	0	33400	4099	0	32540	
17764	0	33240	4100	0	32728	
17765	0	33168	4101	0	32748	
17766	0	33300	4102	0	32448	
17767	0	33404	4103	0	32550	
17768	0	33252	4104	0	32732	
17769	0	33164	4105	0	32732	
17770	0	33292	4106	0	32425	
17771	0	33400	4107	0	32552	
17772	0	33242	4108	0	32728	
17773	0	33172	4109	0	32732	
17774	0	33296	4110	0	32433	
17775	0	33410	4111	0	32556	
17776	0	33252	4112	0	32736	
17777	0	33164	4113	0	32740	
17778	0	33296	4114	0	32428	
17779	0	33396	4115	0	32568	
17780	0	33248	4116	0	32736	
17781	0	33176	4117	0	32728	
17782	0	33304	4118	0	32422	
17783	0	33396	4119	0	32560	
17784	0	33248	4120	0	32736	
17785	0	33176	4121	0	32732	
17786	0	33308	4122	0	32428	
17787	0	33396	4123	0	32554	
17788	0	33236	4124	0	32736	
17789	0	33160	4125	0	32712	
17790	0	33288	4126	0	32416	
17791	0	33400	4127	0	32552	
17792	0	33240	4128	0	32738	
17793	0	33184	4129	0	32716	
17794	0	33300	4130	0	32404	
17795	0	33404	4131	0	32560	
17796	0	33232	4132	0	32728	
17797	0	33176	4133	0	32712	
17798	0	33296	4134	0	32412	
17799	0	33400	4135	0	32554	
17800	0	33236	4136	0	32740	
17801	0	33172	4137	0	32704	
17802	0	33308	4138	0	32404	
17803	0	33400	4139	0	32568	
17804	0	33232	4140	0	32736	
17805	0	33180	4141	0	32696	
17806	0	33316	4142	0	32412	
17807	0	33404	4143	0	32570	
17808	0	33224	4144	0	32736	
17809	0	33172	4145	0	32704	
17810	0	33304	4146	0	32402	
17811	0	33396	4147	0	32564	
17812	0	33216	4148	0	32736	
17813	0	33184	4149	0	32696	
17814	0	33312	4150	0	32404	
17815	0	33408	4151	0	32564	
17816	0	33232	4152	0	32737	
17817	0	33186	4153	0	32720	
17818	0	33308	4154	0	32420	
17819	0	33408	4155	0	32552	
17820	0	33216	4156	0	32736	
17821	0	33176	4157	0	32728	
17822	0	33308	4158	0	32420	
17823	0	33408	4159	0	32560	
17824	0	33228	4160	0	32736	
17825	0	33192	4161	0	32744	
17826	0	33308	4162	0	32436	
17827	0	33408	4163	0	32544	
17828	0	33224	4164	0	32720	
17829	0	33176	4165	0	32740	
17830	0	33300	4166	0	32424	
17831	0	33400	4167	0	32552	
17832	0	33224	4168	0	32720	
17833	0	33188	4169	0	32736	
17834	0	33304	4170	0	32436	
17835	0	33412	4171	0	32557	
17836	0	33220	4172	0	32728	
17837	0	33176	4173	0	32748	
17838	0	33304	4174	0	32432	
17839	0	33408	4175	0	32544	
17840	0	33228	4176	0	32722	
17841	0	33184	4177	0	32728	
17842	0	33308	4178	0	32425	
17843	0	33412	4179	0	32550	
17844	0	33228	4180	0	32730	
17845	0	33192	4181	0	32736	
17846	0	33316	4182	0	32428	
17847	0	33408	4183	0	32552	
17848	0	33220	4184	0	32736	
17849	0	33184	4185	0	32729	
17850	0	33300	4186	0	32420	
17851	0	33404	4187	0	32560	
17852	0	33212	4188	0	32732	
17853	0	33180	4189	0	32728	
17854	0	33324	4190	0	32412	
17855	0	33416	4191	0	32560	
17856	0	33224	4192	0	32736	
17857	0	33184	4193	0	32728	
17858	0	33308	4194	0	32408	
17859	0	33408	4195	0	32572	
17860	0	33216	4196	0	32744	
17861	0	33192	4197	0	32712	
17862	0	33312	4198	0	32424	
17863	0	33412	4199	0	32576	
17864	0	33216	4200	0	32756	
17865	0	33180	4201	0	32724	
17866	0	33320	4202	0	32418	
17867	0	33424	4203	0	32576	
17868	0	33224	4204	0	32756	
17869	0	33180	4205	0	32704	
17870	0	33304	4206	0	32400	
17871	0	33408	4207	0	32569	
17872	0	33216	4208	0	32748	
17873	0	33184	4209	0	32700	
17874	0	33304	4210	0	32396	
17875	0	33401	4211	0	32580	
17876	0	33220	4212	0	32764	
17877	0	33188	4213	0	32688	
17878	0	33304	4214	0	32388	
17879	0	33408	4215	0	32576	
17880	0	33216	4216	0	32752	
17881	0	33176	4217	0	32680	
17882	0	33304	4218	0	32392	
17883	0	33408	4219	0	32580	
17884	0	33220	4220	0	32754	
17885	0	33176	4221	0	32686	
17886	0	33300	4222	0	32400	
17887	0	33408	4223	0	32592	
17888	0	33216	4224	0	32756	
17889	0	33172	4225	0	32664	
17890	0	33296	4226	0	32380	
17891	0	33400	4227	0	32586	
17892	0	33216	4228	0	32752	
17893	0	33172	4229	0	32664	
17894	0	33300	4230	0	32384	
17895	0	33400	4231	0	32590	
17896	0	33221	4232	0	32757	
17897	0	33168	4233	0	32664	
17898	0	33304	4234	0	32360	
17899	0	33396	4235	0	32586	
17900	0	33208	4236	0	32753	
17901	0	33172	4237	0	32664	
17902	0	33296	4238	0	32366	
17903	0	33396	4239	0	32596	
17904	0	33214	4240	0	32768	
17905	0	33176	4241	0	32668	
17906	0	33300	4242	0	32376	
17907	0	33400	4243	0	32600	
17908	0	33208	4244	0	32774	
17909	0	33164	4245	0	32661	
17910	0	33288	4246	0	32352	
17911	0	33396	4247	0	32606	
17912	0	33200	4248	0	32775	
17913	0	33164	4249	0	32654	
17914	0	33300	4250	0	32364	
17915	0	33392	4251	0	32596	
17916	0	33208	4252	0	32768	
17917	0	33176	4253	0	32662	
17918	0	33300	4254	0	32368	
17919	0	33384	4255	0	32602	
17920	0	33196	4256	0	32772	
17921	0	33168	4257	0	32644	
17922	0	33296	4258	0	32356	
17923	0	33388	4259	0	32608	
17924	0	33216	4260	0	32775	
17925	0	33172	4261	0	32648	
17926	0	33292	4262	0	32364	
17927	0	33396	4263	0	32623	
17928	0	33208	4264	0	32780	
17929	0	33176	4265	0	32646	
17930	0	33296	4266	0	32370	
17931	0	33392	4267	0	32618	
17932	0	33216	4268	0	32778	
17933	0	33180	4269	0	32646	
17934	0	33308	4270	0	32368	
17935	0	33396	4271	0	32612	
17936	0	33216	4272	0	32784	
17937	0	33176	4273	0	32632	
17938	0	33292	4274	0	32379	
17939	0	33392	4275	0	32612	
17940	0	33218	4276	0	32784	
17941	0	33176	4277	0	32624	
17942	0	33300	4278	0	32390	
17943	0	33396	4279	0	32620	
17944	0	33216	4280	0	32784	
17945	0	33176	4281	0	32624	
17946	0	33304	4282	0	32404	
17947	0	33404	4283	0	32620	
17948	0	33216	4284	0	32787	
17949	0	33172	4285	0	32618	
17950	0	33292	4286	0	32400	
17951	0	33404	4287	0	32622	
17952	0	33224	4288	0	32784	
17953	0	33180	4289	0	32608	
17954	0	33300	4290	0	32402	
