# OpenSignals Text File Format
# {"internal sensors":{"sensor":["Latitude","Longitude","Altitude"],"device name":"internal sensors","column":["nSeq","Latitude","Longitude","Altitude"],"sync interval":2,"time":"19:01:34","comments":"","keywords":"","device connection":"UNKNOWNinternal sensors","channels":[0,1,2],"date":"2020-07-28","mode":0,"digital IO":[],"firmware version":0,"device":"android","position":0,"sampling rate":100,"label":["Latitude","Longitude","Altitude"],"resolution":[1,1,1],"special":[{},{},{}],"sleeve color":["UNKNOWN","UNKNOWN","UNKNOWN"]}}
# EndOfHeader
1465356754403127	38.859127	-9.061825	56.699997	
1465363076871614	38.858322	-9.061172	56.699997	
1465369425697653	38.858086	-9.060977	56.699997	
1465375832975724	38.857986	-9.060876	56.699997	
1465382209976086	38.857983	-9.060856	56.6	
1465388698489885	38.857994	-9.060862	56.6	
1465395066076758	38.858025	-9.060886	56.6	
1465396116843945	38.85803	-9.060891	56.6	
1465397729464309	38.85803	-9.060893	56.6	
1465398754497642	38.85803	-9.060893	56.6	
1465399869253371	38.85803	-9.060893	56.6	
1465400919631547	38.85803	-9.060893	56.6	
1465401939885505	38.858032	-9.060895	56.6	
1465403029436807	38.858032	-9.060894	56.6	
1465404095937640	38.858032	-9.060893	56.6	
1465405134569671	38.858032	-9.060892	56.6	
1465406255188889	38.858032	-9.060891	56.6	
1465407843594982	38.858032	-9.06089	56.6	
1465408851606701	38.858036	-9.06089	56.6	
1465409893623002	38.858036	-9.060889	56.6	
1465410978235450	38.858036	-9.060889	56.6	
1465411987259616	38.85804	-9.060888	56.6	
1465413011233314	38.85804	-9.060888	56.6	
1465414322352167	38.85804	-9.060888	56.6	
1465415195782584	38.85804	-9.060888	56.6	
1465416163067844	38.85804	-9.060888	56.6	
1465417173489249	38.858044	-9.060887	56.6	
1465418310410030	38.858044	-9.060886	56.6	
1465419890949613	38.858044	-9.060885	56.6	
1465420821363623	38.858044	-9.060885	57.1	
1465421890616696	38.858047	-9.060885	57.1	
1465422928288726	38.858047	-9.060885	57.1	
1465423948241643	38.858047	-9.060884	57.1	
1465424960696486	38.85805	-9.060884	57.1	
1465426068940392	38.85805	-9.0608835	57.1	
1465427067293517	38.85805	-9.0608835	57.1	
1465428151335339	38.85805	-9.060884	57.1	
1465429660284713	38.85805	-9.0608835	57.1	
1465430737365755	38.858055	-9.0608835	57.1	
1465431756840077	38.858055	-9.0608835	57.1	
1465433369216795	38.858055	-9.0608835	57.1	
1465434417944243	38.858055	-9.060884	57.1	
1465435561167784	38.858055	-9.060884	57.1	
1465436557320492	38.858055	-9.060884	57.1	
1465437570059867	38.85806	-9.060884	57.1	
1465438622486898	38.85806	-9.060885	57.1	
1465439727742105	38.85806	-9.060885	57.1	
1465440798226324	38.858078	-9.060794	57.3	
1465442335271844	38.858105	-9.060657	57.3	
1465443418165177	38.858128	-9.060563	57.3	
1465444490513458	38.858143	-9.060494	57.3	
1465445543122364	38.858162	-9.060441	57.3	
1465446595743092	38.858173	-9.060398	57.3	
1465447628197467	38.858185	-9.060283	57.3	
1465449248383560	38.8582	-9.060203	57.3	
1465450254100643	38.858208	-9.060169	57.3	
1465451287028091	38.858215	-9.0601425	57.3	
1465452356314496	38.858223	-9.060119	57.3	
1465453375573142	38.85823	-9.060101	57.3	
1465454515589235	38.85824	-9.060079	57.3	
1465455990147099	38.858246	-9.060055	57.3	
1465457084366630	38.85825	-9.06004	57.3	
1465458058799286	38.858257	-9.060028	57.3	
1465459108636265	38.858265	-9.060013	57.3	
1465460133957514	38.858273	-9.059998	57.3	
1465461199281056	38.85828	-9.059985	57.3	
1465462702446003	38.858288	-9.05997	57.3	
1465464274295117	38.858295	-9.059948	57.3	
1465465276728867	38.8583	-9.059936	57.3	
1465466333071679	38.858303	-9.059921	57.3	
1465467430911470	38.858303	-9.059906	57.3	
1465468363275949	38.858307	-9.059893	57.3	
1465469452272667	38.858307	-9.059878	57.3	
1465470401772198	38.858303	-9.059865	57.3	
1465471491891885	38.858303	-9.059849	57.3	
1465473249246780	38.8583	-9.059825	57.3	
1465474135575790	38.85829	-9.05984	57.3	
1465475581117196	38.858288	-9.0598345	57.3	
1465476620435216	38.858288	-9.059827	57.3	
1465477689603601	38.858288	-9.059818	57.3	
1465478739262038	38.858288	-9.059815	57.3	
1465480229390007	38.858288	-9.05981	57.3	
1465482238038548	38.85829	-9.059789	57.3	
1465483249650162	38.858288	-9.059786	57.3	
1465484289278703	38.858284	-9.059781	57.3	
1465485493494275	38.85828	-9.059774	57.3	
1465486558651515	38.858265	-9.059789	57.3	
1465487527745108	38.858257	-9.059798	57.3	
1465488600313337	38.858253	-9.059804	57.3	
1465489753360472	38.858246	-9.059807	57.3	
1465490789938753	38.858234	-9.059818	57.3	
1465491887957763	38.858227	-9.059821	57.3	
1465492994839898	38.85822	-9.059819	57.3	
1465494084372085	38.85821	-9.059814	57.3	
1465495346519063	38.858208	-9.059806	57.3	
1465496350000417	38.858208	-9.059797	57.3	
1465497455625573	38.858208	-9.059789	57.3	
1465498575560468	38.858208	-9.059779	57.3	
1465500236964114	38.858215	-9.059766	57.3	
1465501281101665	38.85822	-9.059757	57.3	
1465502349740988	38.858223	-9.059749	57.3	
1465503453910883	38.85823	-9.059739	57.3	
1465504923847601	38.858234	-9.059728	57.3	
1465506027413747	38.858242	-9.05972	57.3	
1465507128100205	38.858253	-9.059712	57.3	
1465508154739996	38.85826	-9.059705	57.3	
1465509263982860	38.85827	-9.059696	57.3	
1465510374369683	38.858276	-9.059688	57.3	
1465512460126296	38.858288	-9.059671	57.3	
1465514230074681	38.858303	-9.059659	57.3	
1465515233990618	38.85831	-9.059652	57.3	
1465516315698430	38.85832	-9.059644	57.3	
1465517373032440	38.858326	-9.059636	57.3	
1465518425077857	38.858334	-9.059628	57.3	
1465519460580200	38.85834	-9.059619	57.3	
1465520930721502	38.858353	-9.059607	57.5	
1465521999935199	38.85836	-9.059599	57.5	
1465523088015980	38.858368	-9.059591	57.5	
1465524125307490	38.858376	-9.059583	57.5	
1465525164329000	38.858383	-9.059574	57.5	
1465526277645979	38.85839	-9.0595665	57.5	
1465527860846082	38.858402	-9.059553	57.5	
1465529352770978	38.85841	-9.059542	57.5	
1465530454151758	38.858418	-9.059533	57.5	
1465531507263008	38.858425	-9.0595255	57.5	
1465532576204205	38.85843	-9.059516	57.5	
1465533659219726	38.858437	-9.059507	57.5	
1465534765275819	38.858444	-9.059499	57.5	
1465535733788110	38.858448	-9.059491	57.5	
1465536786797121	38.858456	-9.059484	57.5	
1465537885812901	38.85846	-9.059475	57.5	
1465538943534307	38.858467	-9.059466	57.5	
1465540016465401	38.858475	-9.059457	57.0	
1465541732967692	38.858482	-9.059443	57.0	
1465542802000035	38.858486	-9.059435	57.0	
1465543821665295	38.858494	-9.059426	57.0	
1465545074520867	38.858498	-9.059416	57.0	
1465546143202117	38.858505	-9.059407	57.0	
1465547326062116	38.85851	-9.059397	57.0	
1465548499399199	38.858513	-9.059386	57.0	
1465549682280293	38.85852	-9.059377	57.0	
1465550734539355	38.858524	-9.059367	57.0	
1465551890740604	38.85853	-9.059357	57.0	
1465552977016385	38.858532	-9.059346	57.0	
1465554145024458	38.85854	-9.059337	57.0	
1465555580242218	38.858543	-9.059325	57.0	
1465556669981175	38.858547	-9.059317	57.0	
1465557706157529	38.858555	-9.059308	57.0	
1465558758700914	38.85856	-9.059299	57.0	
1465559958568622	38.858562	-9.059292	57.5	
1465560943725393	38.858566	-9.059284	57.5	
1465562619362371	38.858574	-9.059272	57.5	
1465563719956589	38.858578	-9.059263	57.5	
1465564752981745	38.858585	-9.059256	57.5	
1465566293381745	38.85859	-9.059245	57.5	
1465567480846848	38.858593	-9.059236	57.5	
1465568465935911	38.858597	-9.059228	57.5	
1465569535027837	38.8586	-9.059219	57.5	
1465571239986066	38.85861	-9.059207	57.5	
1465572673499190	38.858612	-9.059196	57.5	
1465573779203669	38.858616	-9.059188	57.5	
1465574814423460	38.85862	-9.05918	57.5	
1465576017483043	38.858624	-9.059172	57.5	
1465577605683667	38.858627	-9.059161	57.5	
1465578524560803	38.858627	-9.059156	57.5	
1465579748902781	38.85863	-9.059148	57.5	
1465580793145072	38.858635	-9.059141	57.5	
1465581864944291	38.85864	-9.0591345	57.5	
1465583371507311	38.858643	-9.059124	57.5	
1465584406177207	38.858646	-9.059117	57.5	
1465585554796321	38.85865	-9.059111	57.0	
1465586573500487	38.858654	-9.059105	57.0	
1465587563662153	38.858658	-9.059098	57.0	
1465588599818715	38.858658	-9.059092	57.0	
1465589652128819	38.85866	-9.059086	57.0	
1465590752979027	38.858665	-9.059079	57.0	
1465592371082464	38.85867	-9.059071	57.0	
1465593374171005	38.858673	-9.059066	57.0	
1465594464561942	38.858677	-9.059059	57.0	
1465595917813556	38.85868	-9.059051	57.0	
1465597007155014	38.858685	-9.059045	57.0	
1465598052999024	38.85869	-9.059041	57.0	
1465599682550586	38.858696	-9.059032	57.0	
1465600729016836	38.8587	-9.059027	57.0	
1465601766892981	38.858704	-9.059021	57.0	
1465603248791210	38.858707	-9.059013	57.0	
1465604296642668	38.85871	-9.059007	57.0	
1465605354210584	38.858715	-9.059003	57.0	
1465606409521938	38.85872	-9.058997	57.0	
1465607479668291	38.858723	-9.058992	57.0	
1465609129610999	38.858727	-9.058984	57.0	
1465610172468811	38.85873	-9.058979	57.0	
1465611206035946	38.858734	-9.058975	57.0	
1465612214974748	38.858738	-9.05897	57.0	
1465613694659279	38.85874	-9.058963	57.0	
1465614743911622	38.858746	-9.058957	57.0	
1465615830874851	38.85875	-9.058952	57.0	
1465616899196309	38.858753	-9.058948	57.0	
1465617922231308	38.858757	-9.058944	57.199997	
1465619054668339	38.85876	-9.058939	57.199997	
1465620144084485	38.858765	-9.058933	57.199997	
1465621828374692	38.85877	-9.058927	57.199997	
1465622863826567	38.858772	-9.058923	57.199997	
1465623903501879	38.858776	-9.058919	57.199997	
1465625052631879	38.85878	-9.058915	57.199997	
1465626560506513	38.858784	-9.058908	57.199997	
1465628264983909	38.85879	-9.058903	57.199997	
1465629350581616	38.858795	-9.058899	57.199997	
1465630303421772	38.858795	-9.058896	57.199997	
1465631539550470	38.8588	-9.058892	57.199997	
1465632592746355	38.858803	-9.058888	57.199997	
1465634109711458	38.85881	-9.058883	57.199997	
1465635189170312	38.858814	-9.058879	57.199997	
1465636235690989	38.858814	-9.058876	57.199997	
1465637371257290	38.85891	-9.0587435	57.199997	
1465638470812498	38.858982	-9.058641	57.199997	
1465639389448123	38.85904	-9.058562	57.199997	
1465640534314477	38.85909	-9.0584955	57.199997	
1465641582009216	38.85913	-9.058439	57.199997	
1465642646911768	38.859165	-9.05839	57.199997	
1465643702247809	38.85931	-9.058206	57.199997	
1465644734880517	38.859413	-9.058079	57.199997	
1465645757765256	38.859447	-9.058034	57.199997	
1465647362232964	38.859505	-9.057964	57.199997	
1465648511280828	38.85953	-9.05793	57.199997	
