# OpenSignals Text File Format
# {"internal sensors":{"sensor":["xLinAcc","yLinAcc","zLinAcc"],"device name":"internal sensors","column":["nSeq","xLinAcc","yLinAcc","zLinAcc"],"sync interval":2,"time":"19:01:34","comments":"","keywords":"","device connection":"UNKNOWNinternal sensors","channels":[0,1,2],"date":"2020-07-28","mode":0,"digital IO":[],"firmware version":0,"device":"android","position":0,"sampling rate":100,"label":["xLinAcc","yLinAcc","zLinAcc"],"resolution":[1,1,1],"special":[{},{},{}],"sleeve color":["UNKNOWN","UNKNOWN","UNKNOWN"]}}
# EndOfHeader
1465354465799108	-0.70232797	-0.29978466	0.14005661	
1465354465799108	-0.70232797	-0.29978466	0.14005661	
1465354485813928	-0.7432543	-1.2279773	0.46764565	
1465354485813928	-0.7432543	-1.2279773	0.46764565	
1465354515782190	-0.23795176	-2.1361995	1.4346695	
1465354535771204	-0.5146419	-1.0669174	0.2210865	
1465354575779749	-1.223368	-0.31154156	-2.0270882	
1465354595768762	-0.5964587	-0.56514025	-2.9376535	
1465354625767542	-0.33977377	-1.1076231	-1.961648	
1465354655735803	-0.75481534	-0.9401963	-0.9780903	
1465354685734583	-0.17619576	-0.080926895	-1.3086023	
1465354715733362	0.4982373	0.3637762	-2.295065	
1465354745732141	0.05552113	0.78573585	-1.3650026	
1465354785710169	0.48475942	0.99270344	-1.4121475	
1465354835697962	0.4906013	1.37011	0.25224876	
1465354855686975	0.55270743	1.4887948	0.28493977	
1465354885685755	0.7984817	1.7108855	0.37548733	
1465354925694299	0.7083145	1.190383	1.042819	
1465354965672327	0.95160943	1.5068507	0.95373535	
1465355005650354	1.5028582	0.5347223	0.5251503	
1465355055638147	-0.9656236	-0.72375584	2.1604433	
1465355075627161	-0.47345853	-0.5131173	0.8432846	
1465355075627161	-0.47345853	-0.5131173	0.8432846	
1465355075627161	-0.47345853	-0.5131173	0.8432846	
1465355075627161	-0.47345853	-0.5131173	0.8432846	
1465355075627161	-0.47345853	-0.5131173	0.8432846	
1465355075627161	-0.47345853	-0.5131173	0.8432846	
1465355075627161	-0.47345853	-0.5131173	0.8432846	
1465355075627161	-0.47345853	-0.5131173	0.8432846	
1465355075627161	-0.47345853	-0.5131173	0.8432846	
1465355075627161	-0.47345853	-0.5131173	0.8432846	
1465355075627161	-0.47345853	-0.5131173	0.8432846	
1465355075627161	-0.47345853	-0.5131173	0.8432846	
1465355075627161	-0.47345853	-0.5131173	0.8432846	
1465355075627161	-0.47345853	-0.5131173	0.8432846	
1465355075627161	-0.47345853	-0.5131173	0.8432846	
1465355075627161	-0.47345853	-0.5131173	0.8432846	
1465355075627161	-0.47345853	-0.5131173	0.8432846	
1465355075627161	-0.47345853	-0.5131173	0.8432846	
1465355075627161	-0.47345853	-0.5131173	0.8432846	
1465355075627161	-0.47345853	-0.5131173	0.8432846	
1465355075627161	-0.47345853	-0.5131173	0.8432846	
1465355075627161	-0.47345853	-0.5131173	0.8432846	
1465355075627161	-0.47345853	-0.5131173	0.8432846	
1465355075627161	-0.47345853	-0.5131173	0.8432846	
1465355075627161	-0.47345853	-0.5131173	0.8432846	
1465355075627161	-0.47345853	-0.5131173	0.8432846	
1465355075627161	-0.47345853	-0.5131173	0.8432846	
1465355075627161	-0.47345853	-0.5131173	0.8432846	
1465355075627161	-0.47345853	-0.5131173	0.8432846	
1465355075627161	-0.47345853	-0.5131173	0.8432846	
1465355075627161	-0.47345853	-0.5131173	0.8432846	
1465355075627161	-0.47345853	-0.5131173	0.8432846	
1465355075627161	-0.47345853	-0.5131173	0.8432846	
1465355075627161	-0.47345853	-0.5131173	0.8432846	
1465355075627161	-0.47345853	-0.5131173	0.8432846	
1465355075627161	-0.47345853	-0.5131173	0.8432846	
1465355075627161	-0.47345853	-0.5131173	0.8432846	
1465355075627161	-0.47345853	-0.5131173	0.8432846	
1465355075627161	-0.47345853	-0.5131173	0.8432846	
1465355075627161	-0.47345853	-0.5131173	0.8432846	
1465355075627161	-0.47345853	-0.5131173	0.8432846	
1465355075627161	-0.47345853	-0.5131173	0.8432846	
1465355105625940	0.5802705	-0.3093109	-1.541811	
1465355125614954	0.38924003	-0.7900405	-1.4639311	
1465355145603967	0.18200946	-1.0759006	-1.3225422	
1465355145603967	0.18200946	-1.0759006	-1.3225422	
1465355145603967	0.18200946	-1.0759006	-1.3225422	
1465355145603967	0.18200946	-1.0759006	-1.3225422	
1465355145603967	0.18200946	-1.0759006	-1.3225422	
1465355175602747	0.04072374	-1.061305	-1.2919645	
1465355175602747	0.04072374	-1.061305	-1.2919645	
1465355175602747	0.04072374	-1.061305	-1.2919645	
1465355185581995	-0.42142928	-1.4582849	-1.4501305	
1465355215580774	-4.1681528E-4	-1.0577993	-0.64538956	
1465355215580774	-4.1681528E-4	-1.0577993	-0.64538956	
1465355215580774	-4.1681528E-4	-1.0577993	-0.64538956	
1465355225590540	0.0808931	-0.84641504	-0.79126644	
1465355235569788	0.33915806	-0.77564526	-1.1964684	
1465355245549036	0.7002065	-0.66269636	-1.6351662	
1465355255558801	1.0968717	-0.628129	-1.9354143	
1465355265538049	1.3683635	-0.73406076	-2.0368147	
1465355275547815	1.5210116	-0.82219124	-1.6743727	
1465355285527063	1.2708019	-0.7599063	-1.0329895	
1465355295536829	0.99054015	-0.5421417	-0.6168852	
1465355305516077	0.6591184	-0.29116726	-0.506835	
1465355315495325	0.1860795	-0.1662817	-0.35491848	
1465355325505090	-0.4638399	-0.39009452	0.04321575	
1465355335514856	0.039194465	0.38775945	1.0728016	
1465355345494104	0.9115329	0.68294215	1.9106827	
1465355355503870	0.25272632	0.19341421	2.2594032	
1465355365483118	0.007576704	-0.106144905	2.1706476	
1465355375492883	0.42790782	0.29508877	2.7223825	
1465355385502649	0.76865435	0.2972412	0.44446182	
1465355395481897	0.07281244	0.004737854	-1.7794313	
1465355405491663	0.05324185	0.73709726	-1.5238819	
1465355415501428	0.57517874	0.9854903	-1.3327284	
1465355425480676	-0.036202073	1.471592	-0.64913654	
1465355435490442	0.008706331	1.6580143	0.04615307	
1465355445469690	-0.6066961	1.6691298	0.7081518	
1465355455479456	-0.4680617	1.8798456	1.3126478	
1465355465458704	-0.15005231	2.0221443	1.6816282	
1465355475468469	0.4150226	1.9644098	1.5964584	
1465355485478235	0.8294138	1.9130664	1.4404745	
1465355495457483	0.9326098	1.6719298	1.3859081	
1465355505467249	0.478135	1.2430925	1.5649948	
1465355515446497	-0.17837226	1.4360576	2.058075	
1465355525456262	-0.8139597	1.990972	2.3608856	
1465355535435510	-0.723132	2.101079	2.1088743	
1465355545445276	-0.91253793	1.4333992	2.2899714	
1465355555455042	-1.8171072	0.06591654	3.0210047	
1465355565464807	-1.8591943	-0.64637136	3.5873318	
1465355575444055	-1.3316092	-0.89102507	3.4216528	
1465355585453821	-0.6655681	-0.8235483	2.74092	
1465355595433069	-0.083684444	-0.7667203	1.7778034	
1465355605442835	-0.7844082	-1.0805731	0.5060816	
1465355615452600	-0.80589795	-0.4531088	-0.8391018	
1465355635441614	-0.524402	0.26198673	-2.3458147	
1465355675419641	-0.5707886	-0.25786114	-3.0301952	
1465355715428186	-1.4154451	-0.23281527	-0.4662285	
1465355715428186	-1.4154451	-0.23281527	-0.4662285	
1465355735417200	-1.239485	-0.3245468	-0.7905712	
1465355735417200	-1.239485	-0.3245468	-0.7905712	
1465355735417200	-1.239485	-0.3245468	-0.7905712	
1465355735417200	-1.239485	-0.3245468	-0.7905712	
1465355735417200	-1.239485	-0.3245468	-0.7905712	
1465355735417200	-1.239485	-0.3245468	-0.7905712	
1465355745426965	-0.7991204	-0.51728487	-1.522438	
1465355745426965	-0.7991204	-0.51728487	-1.522438	
1465355745426965	-0.7991204	-0.51728487	-1.522438	
1465355755406214	-0.21043062	-0.41758394	-1.9634075	
1465355765415979	0.76572967	-0.13175082	-2.0804014	
1465355775395227	1.3427162	0.10508847	-2.3545895	
1465355785374475	1.3090367	0.21093464	-2.8172035	
1465355795384241	1.3974638	0.2906425	-2.9876156	
1465355805394006	1.5103364	0.4760983	-2.6593323	
1465355815373255	1.0071731	0.5754001	-2.3248796	
1465355825383020	0.4656372	0.6551709	-2.3468866	
1465355835362268	0.015614271	0.9045093	-1.9391928	
1465355845372034	0.22154737	0.74350977	-1.5563297	
1465355855351282	0.55421734	0.520293	-1.1403017	
1465355865361047	-0.3714018	-0.04726982	-0.24184036	
1465355875370813	-0.3052404	-0.36545467	0.40158653	
1465355885350061	1.4290419	-0.04466057	1.0097351	
1465355895359827	2.8692315	0.10064626	1.036315	
1465355905339075	4.5181174	0.45582366	0.63174343	
1465355915348840	4.8272057	0.8799093	0.9350157	
1465355925358606	3.4113142	1.3460548	1.0785465	
1465355935337854	1.343287	1.4465685	1.1430702	
1465355945347620	0.09778261	1.1955123	0.89682865	
1465355965336633	0.38467216	0.87311316	0.6306305	
1465355965336633	0.38467216	0.87311316	0.6306305	
1465355975346399	1.0140803	0.89368415	0.80191994	
1465355985325647	1.6968579	0.7940595	1.1893778	
1465355995335413	2.022303	0.6630757	1.7782812	
1465356005314661	1.8434024	0.834044	2.3251486	
1465356015324426	1.3769467	0.94758916	2.5153751	
1465356025334192	0.88715005	1.0146775	2.1517181	
1465356035343958	0.4672234	1.1269934	1.4862843	
1465356045323206	0.055419922	1.0039873	1.0079317	
1465356055332971	-0.45856428	0.74613214	0.92673016	
1465356065342737	-0.74991655	0.5759225	1.1635485	
1465356075352503	-0.54748225	0.28080773	1.7046509	
1465356085331751	-0.4062569	-0.21816993	2.0799828	
1465356095310999	-0.28796697	-0.6508994	2.0526152	
1465356125309778	-0.258255	-0.93320894	1.0735979	
1465356125309778	-0.258255	-0.93320894	1.0735979	
1465356125309778	-0.258255	-0.93320894	1.0735979	
1465356135319544	-0.5289495	-0.9789865	0.59762955	
1465356145329309	-0.6945889	-1.1069815	0.076063156	
1465356155308557	-0.43489838	-1.213968	-0.36842918	
1465356165287805	0.015087366	-1.2679024	-0.7188549	
1465356175297571	0.571815	-1.3117082	-1.0165148	
1465356185307337	0.8739481	-1.3864484	-1.1941919	
1465356195286585	0.73306084	-1.5587683	-1.1031551	
1465356205296350	0.70483994	-1.7409306	-1.0867615	
1465356215275598	0.71546006	-1.8365178	-1.2229023	
1465356225285364	0.4433279	-1.7665884	-1.0958881	
1465356235295130	-0.22000909	-1.5494373	-0.77173805	
1465356255284143	-1.8747334	-0.9824352	-0.9297781	
1465356255284143	-1.8747334	-0.9824352	-0.9297781	
1465356265263391	-1.4310069	-0.5037606	-0.32847118	
1465356285282922	-1.4091969	0.17328835	-0.18368149	
1465356285282922	-1.4091969	0.17328835	-0.18368149	
1465356295262171	-0.5251677	0.33196282	-0.30460835	
1465356305271936	0.06272197	0.20725489	-0.4564495	
1465356315281702	0.20250964	0.2116952	-1.5504131	
1465356325260950	0.18995333	0.380085	-1.6758614	
1465356335270715	0.22092581	0.6754422	-1.1804705	
1465356355259729	0.45157886	0.32235622	-0.40166664	
1465356355259729	0.45157886	0.32235622	-0.40166664	
1465356365269495	0.60656166	0.101350784	0.26369286	
1465356375248743	0.86161995	0.05159688	0.46397114	
1465356385258508	1.0138462	0.03490448	0.45486832	
1465356395237756	0.9720571	0.07020712	0.4299984	
1465356405247522	0.96876097	-6.916523E-4	0.2971487	
1465356415226770	0.93716145	-0.11012578	0.2573986	
1465356425206018	0.5489409	-0.101509094	0.48422718	
1465356435215784	0.16406119	-0.13535547	0.32854176	
1465356455204797	0.20942247	-0.07186818	-1.0645809	
1465356455204797	0.20942247	-0.07186818	-1.0645809	
1465356465214563	0.6480427	0.083517075	-1.6999388	
1465356475224329	1.1134887	0.29571104	-2.1412182	
1465356485203577	1.3909615	0.4560852	-2.5595531	
1465356495182825	1.6477932	0.53987026	-2.7209225	
1465356505192590	1.8230436	0.65250444	-2.47507	
1465356525181604	0.7485808	0.7660041	-0.3600235	
1465356525181604	0.7485808	0.7660041	-0.3600235	
1465356535191370	0.23462188	0.72595596	0.9433708	
1465356545201135	-0.0768888	0.845644	2.0948944	
1465356555180383	-0.31848973	0.95694876	2.676424	
1465356575169397	-0.059600413	1.0435734	1.9634733	
1465356575169397	-0.059600413	1.0435734	1.9634733	
1465356585179163	0.1449951	1.0472598	1.1906061	
1465356615177942	-0.9569331	1.0458665	0.711565	
1465356615177942	-0.9569331	1.0458665	0.711565	
1465356615177942	-0.9569331	1.0458665	0.711565	
1465356625187708	-1.8531237	1.0077472	1.0998955	
1465356635197473	-2.444992	0.94218636	1.4513721	
1465356645207239	-2.5470066	0.77841187	1.7730732	
1465356655186487	-2.370947	0.5570626	2.1481466	
1465356675206018	-2.1788568	0.008657932	2.281404	
1465356675206018	-2.1788568	0.008657932	2.281404	
1465356695164514	-1.9355588	-0.05353737	1.6307168	
1465356695164514	-1.9355588	-0.05353737	1.6307168	
1465356705143762	-1.6805749	-0.14603329	0.9062481	
1465356715153528	-1.5202155	-0.24003696	0.08832264	
1465356725132776	-1.2500398	-0.30794477	-0.37908077	
1465356735142542	-1.0576787	-0.3858714	-0.5556989	
1465356745152307	-1.0033157	-0.5074663	-0.5160341	
1465356755131555	-1.0435722	-0.6260791	-0.35215807	
1465356765141321	-1.0211236	-0.7995925	-0.30085802	
1465356775120569	-0.80532336	-0.9248271	-0.32062578	
1465356785130335	-0.39316154	-1.0166454	-0.5202551	
1465356805119348	0.4028964	-1.3118248	-1.2378745	
1465356805119348	0.4028964	-1.3118248	-1.2378745	
1465356825138880	1.0336676	-1.4176702	-1.718492	
1465356825138880	1.0336676	-1.4176702	-1.718492	
1465356845127893	1.5736198	-1.3788323	-2.1478004	
1465356845127893	1.5736198	-1.3788323	-2.1478004	
1465356855137659	1.5249624	-1.3169351	-2.3479757	
1465356865147424	1.658525	-1.1874814	-2.5711637	
1465356875126672	1.9610121	-1.0404382	-2.742794	
1465356895115686	2.277225	-0.65070057	-3.204587	
1465356895115686	2.277225	-0.65070057	-3.204587	
1465356905094934	2.0442936	-0.31236744	-3.1026473	
1465356925114465	1.0961139	0.42471218	-3.4460473	
1465356925114465	1.0961139	0.42471218	-3.4460473	
1465356935093714	0.60005856	0.94713306	-3.629188	
1465356945103479	0.5905895	1.3207946	-3.1658692	
1465356955113245	0.6812637	1.4831347	-2.3851418	
1465356965123010	0.89009666	1.5791569	-1.4956474	
1465356975102258	1.1237833	1.6924577	-0.6711526	
1465356985081506	0.9933839	1.7344232	-0.048798084	
1465356995091272	0.44759655	1.8410416	0.32761478	
1465357015080286	-0.5613997	2.4581485	0.9109616	
1465357015080286	-0.5613997	2.4581485	0.9109616	
1465357025090051	-0.9680598	2.738255	1.1574407	
1465357035069299	-0.9652426	2.971745	1.0257039	
1465357045079065	-0.73048115	3.1033201	0.555531	
1465357055058313	-0.24405622	3.219285	-0.26532316	
1465357065068079	0.022060633	3.4778771	-0.72461414	
1465357075047327	-0.10930395	3.7087631	-0.8436465	
1465357095066858	-0.9223621	4.027708	-1.20017	
1465357095066858	-0.9223621	4.027708	-1.20017	
1465357105076624	-1.2503448	4.094383	-0.83825207	
1465357115055872	-1.4070215	4.0769444	-0.24151754	
1465357125065637	-1.5032582	4.0204325	0.43010712	
1465357145054651	-1.8385217	3.4445705	0.8787837	
1465357145054651	-1.8385217	3.4445705	0.8787837	
1465357155064417	-2.2010243	2.8334475	1.0662045	
1465357175053430	-2.810306	1.1116676	2.5639892	
1465357175053430	-2.810306	1.1116676	2.5639892	
1465357195042444	-2.371018	-0.32712126	3.4561625	
1465357195042444	-2.371018	-0.32712126	3.4561625	
1465357205052210	-1.5275455	-0.7514777	3.2900586	
1465357225010706	0.13920546	-1.2582884	1.1981764	
1465357225010706	0.13920546	-1.2582884	1.1981764	
1465357245030237	0.836113	-1.3485851	-0.32709885	
1465357245030237	0.836113	-1.3485851	-0.32709885	
1465357255009485	1.0836413	-1.2450695	-0.5368223	
1465357274998499	1.1576438	-0.94313383	0.064520836	
1465357274998499	1.1576438	-0.94313383	0.064520836	
1465357285008264	0.92327356	-0.8323064	0.47996712	
1465357295018030	0.7060411	-0.82520056	0.8002529	
1465357304997278	0.5533254	-0.8629694	1.020544	
1465357315007044	0.5317049	-0.882473	1.1375809	
1465357325016809	0.654464	-0.97097445	1.1336746	
1465357335026575	0.8366232	-1.1419415	0.8908291	
1465357345005823	1.0530686	-1.2901359	0.4894886	
1465357354985071	1.2365406	-1.4177022	0.07447147	
1465357364964319	1.2873693	-1.5598598	-0.46037197	
1465357374943567	1.1874413	-1.6250348	-0.83916473	
1465357384953333	1.0908592	-1.6887813	-1.0658026	
1465357404972864	0.9997773	-1.8136249	-1.4678059	
1465357404972864	0.9997773	-1.8136249	-1.4678059	
1465357414982630	1.0277193	-1.8446364	-1.6857948	
1465357424961878	1.1420765	-1.9251842	-1.9236808	
1465357444950891	1.5439751	-2.0835562	-2.3495264	
1465357444950891	1.5439751	-2.0835562	-2.3495264	
1465357454960657	1.7016695	-2.1528287	-2.5594773	
1465357464970422	1.7474558	-2.0853195	-2.7905164	
1465357474949671	1.841553	-2.011047	-2.932962	
1465357484959436	1.9361107	-1.931243	-3.04421	
1465357504948450	1.7461162	-1.716279	-3.0164633	
1465357504948450	1.7461162	-1.716279	-3.0164633	
1465357514958215	1.4931884	-1.6410899	-2.8481665	
1465357524937464	1.217325	-1.4710994	-2.5690222	
1465357534947229	0.8559668	-1.3465014	-2.1619105	
1465357544956995	0.56853104	-1.2104979	-1.6909528	
1465357554936243	0.25026178	-1.1071591	-1.2392936	
1465357564946008	-0.08909178	-1.0174975	-0.8799572	
1465357574925256	-0.19511771	-1.0384583	-0.66083384	
1465357584935022	-0.076021194	-1.0663671	-0.50451565	
1465357594914270	0.17376399	-1.0939145	-0.36410427	
1465357604924036	0.5456488	-1.1201086	-0.3058672	
1465357624913049	1.1610448	-0.84416294	-0.58181953	
1465357624913049	1.1610448	-0.84416294	-0.58181953	
1465357634922815	1.2433853	-0.5749202	-0.8034253	
1465357644932581	1.1241665	-0.25790358	-1.012847	
1465357654911829	0.9597132	0.10082626	-1.0802636	
1465357674900842	0.25407386	0.59287405	-0.24336672	
1465357674900842	0.25407386	0.59287405	-0.24336672	
1465357684910608	0.27731013	0.8916116	0.63196564	
1465357694889856	0.5806761	1.3038173	1.3364382	
1465357704899622	0.8064475	1.7614722	1.7803836	
1465357714878870	0.5198035	2.2151675	2.166102	
1465357724888635	-0.36917424	2.6015391	2.404871	
1465357734898401	-1.1112614	2.9440966	2.7053466	
1465357744877649	-1.5882525	3.1849985	3.3314075	
1465357754887415	-1.8080959	3.0805073	4.0652227	
1465357764866663	-1.8590548	2.6866755	4.87418	
1465357784886194	-1.4982998	1.7022958	6.1035852	
1465357784886194	-1.4982998	1.7022958	6.1035852	
1465357794895960	-1.1630554	1.2316604	6.0385246	
1465357804905725	-1.0057979	0.83309627	5.604804	
1465357814884973	-0.978107	0.51202726	4.8359413	
1465357824864221	-0.85977674	0.2030778	3.925335	
1465357834843469	-0.543386	-0.058610678	2.899744	
1465357844853235	-0.11283684	-0.23679852	1.777173	
1465357854863001	0.25291824	-0.46113014	0.6952486	
1465357864872766	0.52858746	-0.6936159	-0.18799114	
1465357874852014	0.69486463	-0.8657758	-0.8757696	
1465357884861780	0.78041685	-1.0134554	-1.3907413	
1465357894841028	0.6911231	-1.1753826	-1.5957613	
1465357914830042	0.3842076	-1.4107461	-1.4661283	
1465357914830042	0.3842076	-1.4107461	-1.4661283	
1465357924809290	0.2612927	-1.5334578	-1.4210567	
1465357934819055	0.25714505	-1.6450262	-1.537262	
1465357944828821	0.3351115	-1.6817536	-1.7207079	
1465357954808069	0.4433329	-1.6673222	-1.9853315	
1465357964817835	0.60210013	-1.6813607	-2.3527775	
1465357984806848	0.8351655	-1.6754069	-2.950841	
1465357984806848	0.8351655	-1.6754069	-2.950841	
1465357994786096	0.88846934	-1.641366	-3.0522375	
1465358004795862	0.80475235	-1.5541148	-3.173317	
1465358014805628	0.6298529	-1.431499	-3.2393885	
1465358024784876	0.42336679	-1.1575971	-3.204813	
1465358034794641	0.2574116	-0.891767	-3.1961575	
1465358044804407	0.14563596	-0.70143604	-3.135107	
1465358054783655	0.096416116	-0.5779948	-3.0239825	
1465358064793421	0.18362951	-0.51142454	-2.8731956	
1465358074772669	0.55982685	-0.42736197	-2.8327122	
1465358084782434	0.863639	-0.3737526	-2.7333736	
1465358094761682	1.0551234	-0.2530403	-2.6089034	
1465358104771448	1.0928612	-0.033740997	-2.3496408	
1465358124790979	0.5756225	0.4893918	-1.7341537	
1465358124790979	0.5756225	0.4893918	-1.7341537	
1465358134770227	0.40656328	0.69316435	-1.377881	
1465358144779993	0.49358714	0.8298826	-1.1333971	
1465358154759241	0.6750508	0.8203006	-1.08955	
1465358164769006	0.95547146	0.84412813	-1.0580454	
1465358194767786	1.3840569	1.0100546	-0.20493507	
1465358194767786	1.3840569	1.0100546	-0.20493507	
1465358194767786	1.3840569	1.0100546	-0.20493507	
1465358204777551	1.398964	1.1048446	0.1332941	
1465358224766565	1.3648584	1.3548269	0.6511955	
1465358224766565	1.3648584	1.3548269	0.6511955	
1465358234745813	1.4105011	1.522799	0.7057438	
1465358244755579	1.4245578	1.5963359	0.7564888	
1465358254765344	0.99852234	1.4010715	1.2681179	
1465358274754358	-0.27497956	0.44986486	2.303833	
1465358274754358	-0.27497956	0.44986486	2.303833	
1465358284733606	-0.9585817	0.08468866	2.86139	
1465358294743372	-1.6956999	-0.061386585	3.593896	
1465358304753137	-2.0917666	-0.12822151	4.1173134	
1465358314762903	-2.036807	-0.22961211	4.162506	
1465358334721399	-1.0819821	-0.39610577	2.6343613	
1465358334721399	-1.0819821	-0.39610577	2.6343613	
1465358344731165	-0.55458784	-0.48141742	1.6627808	
1465358354710413	-0.040844202	-0.5224781	1.0121651	
1465358364720178	0.28447267	-0.5735431	0.5432539	
1465358374729944	0.5850238	-0.6052282	0.24829865	
1465358384739710	0.6477022	-0.6412852	0.107728004	
1465358394718958	0.5405308	-0.7924359	-0.08291817	
1465358404728723	0.26160005	-0.88846207	-0.21526814	
1465358414738489	-0.07665849	-0.84448266	-0.37886715	
1465358424717737	-0.2522837	-0.8863077	-0.56988907	
1465358434696985	-0.2797498	-0.97162867	-0.69829845	
1465358444706751	-0.18969727	-1.0219247	-0.7807493	
1465358454685999	0.02705586	-1.1130247	-0.8427572	
1465358464695764	0.2935895	-1.217864	-0.94316864	
1465358484684778	0.8425225	-1.2853005	-1.170083	
1465358484684778	0.8425225	-1.2853005	-1.170083	
1465358494694544	0.99729127	-1.2704632	-1.3461037	
1465358504673792	0.878353	-1.2021964	-1.4133835	
1465358514683557	0.62230015	-1.1230326	-1.4036512	
1465358534703089	0.46417648	-1.0643594	-1.1453352	
1465358534703089	0.46417648	-1.0643594	-1.1453352	
1465358544682337	0.46411207	-0.95591164	-1.0345259	
1465358554661585	0.5343329	-0.8086057	-1.0344868	
1465358564671350	0.7266067	-0.5923872	-0.91147137	
1465358574650598	0.7254767	-0.51067734	-0.81958294	
1465358584629846	0.6588263	-0.4979694	-0.80698204	
1465358594639612	0.7093559	-0.47643447	-0.75219345	
1465358604649378	0.79345405	-0.46895218	-0.34519386	
1465358614628626	0.6797557	-0.4366951	0.14164352	
1465358634648157	0.08293387	-0.3439281	0.67213726	
1465358634648157	0.08293387	-0.3439281	0.67213726	
1465358644627405	0.12244415	-0.34417439	0.57693577	
1465358654637171	0.25811934	-0.22582555	0.30992317	
1465358664616419	0.34963542	-0.08720398	0.016576767	
1465358674626184	0.3815249	0.030907393	-0.15579605	
1465358694615198	0.71636117	0.3924601	-0.17479038	
1465358694615198	0.71636117	0.3924601	-0.17479038	
1465358704624964	0.85043794	0.41607356	-0.21172428	
1465358714604212	0.80748606	0.41835332	-0.0858469	
1465358724613977	0.6571634	0.3679595	0.02714634	
1465358744602991	0.6851248	0.35945463	0.2516842	
1465358744602991	0.6851248	0.35945463	0.2516842	
1465358754612756	0.752871	0.51852226	0.40991783	
1465358764592005	0.89651257	0.6832185	0.5895901	
1465358774601770	0.9594503	0.64078474	0.6019926	
1465358784581018	0.77206564	0.5877328	0.639801	
1465358794590784	0.22956717	0.52172756	0.96882343	
1465358804600549	-0.547633	0.2674663	1.6531343	
1465358824589563	-1.0482472	-0.36062312	3.4731493	
1465358824589563	-1.0482472	-0.36062312	3.4731493	
1465358834599329	-0.92577374	-0.66009283	3.9315643	
1465358844609094	-0.6062258	-0.8753185	3.9595146	
1465358854588342	-0.42002875	-0.88535476	3.6602936	
1465358864598108	-0.38628086	-0.83110523	2.4810743	
1465358874577356	-0.4944192	-0.83110523	2.4810743	
1465358884587122	-0.69313955	-0.6426089	1.6985607	
1465358894596887	-0.7104199	-0.36560845	0.9751196	
1465358904576135	-0.72234714	-0.17362785	0.2175579	
1465358914585901	-0.5182802	-0.08751774	-0.5650997	
1465358924565149	-0.30599344	-0.030126095	-1.1277542	
1465358934574915	-0.14993855	-0.047538757	-1.4542837	
1465358944584680	-0.1459687	-0.11595178	-1.6545877	
1465358954594446	-0.40945995	-0.124031544	-1.5177422	
1465358964573694	-0.74015385	-0.1618824	-1.1949453	
1465358974552942	-1.0458947	-0.15480328	-0.84551907	
1465358984562708	-1.2765424	-0.09005356	-0.33412075	
1465358994572473	-1.4666685	0.027405739	0.1769085	
1465359004582239	-1.5342606	0.024983406	0.32024097	
1465359014561487	-1.4930131	0.033557177	0.17040157	
1465359024540735	-1.1561298	0.047569275	-0.11332703	
1465359034550501	-0.4686919	0.014408588	-0.46554756	
1465359044560266	0.2948485	-0.0145561695	-0.8645725	
1465359054539514	0.9370687	-0.0050263405	-1.3205805	
1465359064549280	1.425183	0.1477766	-1.7747526	
1465359074528528	1.5490632	0.36861038	-2.114025	
1465359084538294	1.4250416	0.55618644	-2.3566866	
1465359094548059	1.2047141	0.64583683	-2.5736237	
1465359114537073	0.8412361	0.70774364	-2.4128647	
1465359114537073	0.8412361	0.70774364	-2.4128647	
1465359124516321	0.8723656	0.6500795	-2.1220741	
1465359144535852	1.2378395	0.56221104	-1.3140364	
1465359144535852	1.2378395	0.56221104	-1.3140364	
1465359164524866	1.7548245	0.47421074	-0.4814062	
1465359164524866	1.7548245	0.47421074	-0.4814062	
1465359174504114	1.9184784	0.4335482	-0.30247593	
1465359184513880	1.9834638	0.52890205	-0.2857828	
1465359194493128	1.7582655	0.5730822	-0.48466873	
1465359204502893	1.3630955	0.75004363	-0.52072144	
1465359214512659	0.98971164	0.95429134	-0.28567982	
1465359224491907	0.5715009	1.0146871	0.12216759	
1465359244511438	0.010122895	0.98610663	0.8807545	
1465359244511438	0.010122895	0.98610663	0.8807545	
1465359254490686	0.12140322	1.0145161	1.1180382	
1465359274510217	0.5435842	0.99162674	1.1667662	
1465359274510217	0.5435842	0.99162674	1.1667662	
1465359284489465	0.6618191	0.9896507	1.1236668	
1465359294468714	0.75840354	1.0691149	1.0849876	
1465359304447962	0.79902494	1.1802058	1.0827684	
1465359314457727	0.5667211	0.8892894	1.2313747	
1465359324467493	0.4278686	0.5124867	1.639142	
1465359334477258	0.111735225	0.21121716	2.1852608	
1465359344456506	-0.39008653	-0.26373148	2.7321272	
1465359354466272	-0.92154086	-0.7412026	3.1215515	
1465359364445520	-1.4383568	-0.96034646	3.255188	
1465359374455286	-1.5100319	-0.976835	2.9648209	
1465359394444299	-0.7521124	-0.9828892	1.4167595	
1465359394444299	-0.7521124	-0.9828892	1.4167595	
1465359404454065	-0.30295837	-0.96357584	0.67477703	
1465359424443079	0.14815927	-0.93549633	-0.09870243	
1465359424443079	0.14815927	-0.93549633	-0.09870243	
1465359434452844	0.049123526	-0.99711275	-0.16079712	
1465359454441858	-0.47633386	-1.0285461	0.027581215	
1465359454441858	-0.47633386	-1.0285461	0.027581215	
1465359464451624	-0.5356809	-1.1726167	-0.025925636	
1465359474430872	-0.5211259	-1.228065	0.057388306	
1465359484440637	-0.6124302	-1.1027923	0.23661709	
1465359494419885	-0.86001337	-1.0554492	0.4242792	
1465359504429651	-0.95092654	-0.95183873	0.4950266	
1465359514439417	-0.8188493	-0.87792134	0.40054417	
1465359524418665	-0.58498025	-0.9126003	0.17572117	
1465359534428430	-0.24097526	-0.97037196	-0.16713905	
1465359554417444	0.33327484	-0.9343009	-0.69692516	
1465359554417444	0.33327484	-0.9343009	-0.69692516	
1465359564427210	0.544901	-0.87998724	-1.0081205	
1465359574406458	0.5089203	-0.8240955	-1.4761658	
1465359584416223	0.36547053	-0.6599829	-1.8775978	
1465359594425989	0.31674993	-0.48997784	-2.1859741	
1465359604405237	0.24677634	-0.3522942	-2.3386478	
1465359614384485	0.23905754	-0.33164692	-2.406332	
1465359624394251	0.4592762	-0.30333233	-2.2110014	
1465359634404016	0.58149874	-0.2488637	-1.6623468	
1465359654393030	0.5906924	-0.23793864	-0.593235	
1465359654393030	0.5906924	-0.23793864	-0.593235	
1465359664372278	0.64221156	-0.22883105	-0.23405838	
1465359674382044	0.6230508	-0.10767484	0.07347965	
1465359684391809	0.5564914	0.07757735	0.3015175	
1465359694371057	0.37143683	0.14893031	0.45055676	
1465359704380823	0.23235226	0.24977636	0.6190529	
1465359714360071	0.34693134	0.40149164	0.78880787	
1465359724369837	0.5713314	0.45163035	0.7579508	
1465359734349085	0.89557195	0.43775296	0.6655121	
1465359754368616	1.3010767	0.5874355	0.5348625	
1465359754368616	1.3010767	0.5874355	0.5348625	
1465359764347864	1.4193754	0.66990304	0.25310135	
1465359774357630	1.5219618	0.6227381	-0.26805592	
1465359784367395	1.3472146	0.65095925	-0.7012558	
1465359794346643	1.1280563	0.7246113	-1.0643082	
1465359814335657	1.0901983	0.7146015	-1.4928694	
1465359814335657	1.0901983	0.7146015	-1.4928694	
1465359824345422	1.0981634	0.68279314	-1.2782593	
1465359834355188	1.1173435	0.81849337	-0.7676811	
1465359844334436	1.08389	0.9545026	-0.026892662	
1465359864323450	0.4487748	0.86155844	1.5286427	
1465359864323450	0.4487748	0.86155844	1.5286427	
1465359874333215	-0.007507682	0.79070663	2.153387	
1465359884312464	-0.21936655	0.8030596	2.6015968	
1465359894322229	-0.27246135	0.84620094	2.8443356	
1465359914311243	-0.4060135	0.33354807	2.2649288	
1465359914311243	-0.4060135	0.33354807	2.2649288	
1465359924290491	-0.4761995	0.10852575	1.886116	
1465359934300256	-0.6664241	-0.12728357	1.5756855	
1465359944310022	-0.77161074	-0.417521	1.3546314	
1465359964329553	-0.5945996	-1.1275735	1.0279665	
1465359964329553	-0.5945996	-1.1275735	1.0279665	
1465359974308801	-0.3112573	-1.3635354	0.71304035	
1465359984288049	-0.22156927	-1.6257677	0.22275925	
1465359994297815	-0.23187207	-1.7344422	-0.31568432	
1465360014286829	-0.31607452	-1.9000745	-1.012764	
1465360014286829	-0.31607452	-1.9000745	-1.012764	
1465360024296594	-0.34694266	-1.9711823	-1.2808514	
1465360034306360	-0.4215849	-2.1054673	-1.4765501	
1465360044316126	-0.35041565	-2.199335	-1.4426279	
1465360054295374	-0.35087466	-2.2429247	-1.1859665	
1465360064305139	-0.2886485	-2.3131604	-1.1337385	
1465360084294153	-0.13319373	-2.4220972	-2.141739	
1465360084294153	-0.13319373	-2.4220972	-2.141739	
1465360094273401	-0.08599985	-2.3951187	-3.0074472	
1465360114262415	-0.8738165	-1.7433271	-3.954825	
1465360114262415	-0.8738165	-1.7433271	-3.954825	
1465360124272180	-1.1545026	-1.2536225	-4.0756164	
1465360134281946	-0.9960153	-0.92543554	-4.0361137	
1465360144261194	-0.61312985	-0.7569499	-3.9041324	
1465360154270960	-0.13398767	-0.65989923	-3.7711825	
1465360164250208	0.3088324	-0.5301037	-3.7289	
1465360174259973	0.6584592	-0.3502946	-3.6771955	
1465360184269739	0.8618963	-0.1876812	-3.6327214	
1465360194248987	0.8642075	-0.0827961	-3.4738612	
1465360214268518	-0.0467422	0.61592865	-2.8269534	
1465360214268518	-0.0467422	0.61592865	-2.8269534	
1465360224247766	-0.5918858	1.0509152	-2.4472442	
1465360234257532	-1.0493128	1.358201	-2.0623198	
1465360244236780	-1.1147225	1.408103	-2.5900216	
1465360264225794	-1.282728	1.4415131	-0.18169451	
1465360264225794	-1.282728	1.4415131	-0.18169451	
1465360274235559	-0.39843106	1.4212406	0.46751404	
1465360284214807	0.17442584	1.3861997	0.9660044	
1465360294224573	0.38735652	1.5084133	1.3090062	
1465360304203821	0.35695124	1.7420361	1.4335012	
1465360314213587	-0.22081566	1.9987307	1.6147118	
1465360324223352	-0.9340117	2.148115	1.7262726	
1465360334233118	-1.1693678	2.1981938	1.8941574	
1465360344212366	-1.1378093	2.2644892	2.4940538	
1465360364201380	-0.6983757	2.314582	3.4660425	
1465360364201380	-0.6983757	2.314582	3.4660425	
1465360374211145	-0.6464493	2.1776958	3.5653257	
1465360384220911	-0.582464	2.2039351	3.5304565	
1465360394200159	-0.33984113	2.334276	3.2810698	
1465360404209924	-0.16518736	2.4334135	2.821062	
1465360414219690	-0.18619871	2.5238502	2.1026516	
1465360424198938	-0.53354716	2.54959	1.7198915	
1465360444187952	-1.6283147	2.1511457	1.9592257	
1465360444187952	-1.6283147	2.1511457	1.9592257	
1465360454197717	-2.4550567	1.7562127	2.570383	
1465360464207483	-3.033959	1.2890913	3.0336332	
1465360474186731	-3.2790823	0.8226683	3.1791468	
1465360484165979	-3.213428	0.3965838	3.040824	
1465360494175745	-2.9698272	-0.03335476	2.736207	
1465360504154993	-2.5409894	-0.42609906	2.2941475	
1465360514164758	-2.0411034	-0.79217935	1.7133923	
1465360524144006	-1.4761477	-1.1100225	1.0393839	
1465360534153772	-0.9543557	-1.4193473	0.28284073	
1465360544163538	-0.45694923	-1.6362195	-0.42053986	
1465360554173303	-0.022064209	-1.8155105	-0.87547684	
1465360564152551	0.26395893	-1.9609191	-1.081708	
1465360574162317	0.40274668	-2.0597386	-1.0323524	
1465360584141565	0.44535923	-2.067389	-0.888814	
1465360594151331	0.42217255	-2.0630524	-0.71661854	
1465360604161096	0.5411992	-2.0630941	-0.5344119	
1465360614170862	0.76207304	-2.0677004	-0.3125677	
1465360624150110	1.0392756	-2.0584407	-0.19839907	
1465360634129358	1.3732014	-2.094681	-0.21826315	
1465360644108606	1.6259689	-2.1167803	-0.44534063	
1465360664097620	1.72264	-1.9790556	-1.1812334	
1465360664097620	1.72264	-1.9790556	-1.1812334	
1465360674107385	1.6072483	-1.9023879	-1.5447078	
1465360694096399	1.3647966	-1.7360036	-1.939239	
1465360694096399	1.3647966	-1.7360036	-1.939239	
1465360704106165	1.2776442	-1.7009432	-1.9828258	
1465360714115930	1.2423368	-1.6751161	-1.9496799	
1465360724095178	1.1832266	-1.647948	-1.8937106	
1465360734104944	1.0880408	-1.6192193	-1.8071017	
1465360744084192	1.0607324	-1.5336201	-1.6587567	
1465360764073206	1.096437	-1.460959	-1.5372529	
1465360764073206	1.096437	-1.460959	-1.5372529	
1465360774082971	1.1677251	-1.4034061	-1.5580096	
1465360784062219	1.1950803	-1.3224978	-1.497539	
1465360794071985	1.1706419	-1.2304199	-1.4028192	
1465360804081751	1.1783824	-1.1512084	-1.2713408	
1465360814060999	1.1785865	-1.0284503	-1.1140904	
1465360824070764	1.1432261	-0.9393575	-1.035502	
1465360834050012	1.1205149	-0.87868166	-0.958899	
1465360844059778	1.1409125	-0.77154446	-0.8858471	
1465360854069544	1.115262	-0.64347434	-0.85378313	
1465360874058557	0.823112	-0.3770492	-0.80465174	
1465360874058557	0.823112	-0.3770492	-0.80465174	
1465360884068323	0.544827	-0.23875737	-0.6579375	
1465360894047571	0.19305372	-0.10687947	-0.5322361	
1465360904057337	-0.24765205	0.09649205	-0.20134354	
1465360914067102	-0.69754696	0.09649205	-0.20134354	
1465360924046350	-0.98644495	0.13020897	0.19901466	
1465360934025598	-1.0583692	0.21560931	0.8873148	
1465360944035364	-0.8892331	0.4745028	1.669816	
1465360964024378	-0.80217075	0.9295349	2.4873438	
1465360964024378	-0.80217075	0.9295349	2.4873438	
1465360974034143	-1.1913495	1.0070071	2.5424285	
1465360984013391	-1.6158414	1.2312064	2.5274825	
1465360994023157	-2.0912218	1.5744679	2.359838	
1465361004032922	-2.6498847	1.872148	2.1292248	
1465361014012171	-3.1651936	2.0745792	1.9008675	
1465361024021936	-3.5354695	2.22752	1.8639016	
1465361044010950	-3.408455	2.303915	2.2281122	
1465361044010950	-3.408455	2.303915	2.2281122	
1465361054020715	-2.8245692	2.060507	2.2924714	
1465361064030481	-1.949872	1.6946335	2.2278562	
1465361074009729	-1.155201	1.3186684	2.0111938	
1465361084019495	-0.5670643	0.92937684	1.7244973	
1465361094029260	-0.104381084	0.65927434	1.506752	
1465361104008508	0.20138454	0.4447832	1.1812601	
1465361114018274	0.3588376	0.27467752	0.89619875	
1465361123997522	0.35056448	0.12105203	0.72072697	
1465361134007288	0.22633505	-0.0029211044	0.6177821	
1465361144017053	0.021537304	-0.087982655	0.50139475	
1465361153996301	-0.1301055	-0.16596746	0.34361792	
1465361164006067	-0.22354794	-0.25897813	0.095617294	
1465361173985315	-0.20548773	-0.36643672	-0.18160582	
1465361183995081	-0.073369026	-0.5097754	-0.44157267	
1465361194004846	0.1448884	-0.66935706	-0.65444326	
1465361203984094	0.3804884	-0.80771065	-0.86662245	
1465361223973108	0.83340454	-1.0456855	-1.3031521	
1465361223973108	0.83340454	-1.0456855	-1.3031521	
1465361233982874	1.2122297	-1.1934218	-1.558464	
1465361243992639	1.4672518	-1.3835864	-1.7595973	
1465361254002405	1.5701385	-1.4453723	-1.9792447	
1465361263981653	1.6178579	-1.4284253	-2.295555	
1465361273960901	1.7880855	-1.3980014	-2.6773443	
1465361283970667	1.8749208	-1.3868484	-3.0502658	
1465361293980432	1.8461852	-1.286556	-3.3324733	
1465361303959680	1.9516401	-1.2486575	-3.4059076	
1465361313969446	2.0140696	-1.2730405	-3.334456	
1465361323948694	2.2446346	-1.2489481	-3.152987	
1465361333958460	2.3945308	-1.2519062	-2.9223838	
1465361343968225	2.476768	-1.2905645	-2.5775619	
1465361353947473	2.4616122	-1.221848	-2.231854	
1465361373967005	2.1278825	-0.97505903	-1.6651478	
1465361373967005	2.1278825	-0.97505903	-1.6651478	
1465361383946253	1.9277773	-0.8625963	-1.4707546	
1465361393956018	1.7800775	-0.7205343	-1.3286023	
1465361403935266	1.4977283	-0.580539	-1.2610517	
1465361423924280	0.84434605	-0.26518655	-1.164372	
1465361423924280	0.84434605	-0.26518655	-1.164372	
1465361433934046	0.6628294	-0.15332627	-0.9115524	
1465361443943811	0.5600476	-0.09952092	-0.56582546	
1465361453953577	0.42130947	-0.070717335	-0.18900776	
1465361473912073	-0.011176109	0.025382757	0.55243397	
1465361473912073	-0.011176109	0.025382757	0.55243397	
1465361483921839	-0.36492205	0.20419693	1.0336332	
1465361493931604	-0.76409864	0.4666884	1.3711071	
1465361503910852	-0.9125562	0.7254765	1.4960561	
1465361513920618	-1.1325526	0.80656886	1.5776663	
1465361523899866	-1.2494006	0.7367761	1.7905598	
1465361533909631	-1.2561526	0.63644624	2.3940425	
1465361543888880	-1.1696897	0.5851693	3.1500468	
1465361553898645	-1.2195759	0.48473406	3.9063401	
1465361573918176	-1.605514	0.4746945	5.5814266	
1465361573918176	-1.605514	0.4746945	5.5814266	
1465361583927942	-1.837091	0.57894015	5.824077	
1465361593907190	-2.0476747	0.5510565	5.3445888	
1465361603886438	-2.241232	0.5844314	4.3244424	
1465361613896204	-2.2865791	0.68318105	3.0063634	
1465361623875452	-2.0229177	0.7540059	1.6531339	
1465361633885217	-1.7015224	0.73134184	0.6669507	
1465361643864465	-1.391458	0.6662967	-0.12809324	
1465361653874231	-0.91847515	0.6399789	-0.7023063	
1465361663883997	-0.64109087	0.51129603	-1.0444703	
1465361673863245	-0.4165206	0.39398026	-1.1097894	
1465361683873010	-0.4261074	0.37148285	-0.9745512	
1465361693882776	-0.66674805	0.33157086	-0.85693693	
1465361703862024	-0.8403964	0.31348562	-0.6389661	
1465361713871790	-0.9778042	0.27569032	-0.36859417	
1465361723851038	-1.1714525	0.20489669	-0.22458935	
1465361733860803	-1.1945148	0.14408445	-0.16169453	
1465361743840051	-0.93982935	0.053994417	-0.20475101	
1465361753849817	-0.461133	-0.11978698	-0.41817808	
1465361763829065	-0.015513897	-0.33865762	-0.5789356	
1465361773838831	0.32751036	-0.5570452	-0.8239722	
1465361783848596	0.5882702	-0.66699743	-1.0854411	
1465361793858362	0.86922693	-0.70148444	-1.2878952	
1465361803837610	1.0535393	-0.8442769	-1.5602155	
1465361813816858	1.1946616	-0.9983876	-1.8685312	
1465361823826624	1.3292584	-1.1135938	-2.19237	
1465361833836389	1.3632498	-1.1842973	-2.4492054	
1465361843815637	1.3183517	-1.2585492	-2.6172185	
1465361853794885	1.2889438	-1.3207791	-2.6798997	
1465361873814417	1.2646918	-1.3723857	-2.5664463	
1465361873814417	1.2646918	-1.3723857	-2.5664463	
1465361883824182	1.177506	-1.4094944	-2.4535127	
1465361893833948	1.0774245	-1.4132226	-2.3274517	
1465361903813196	1.1030917	-1.4533784	-2.23275	
1465361913822962	1.1918473	-1.4793613	-2.2200232	
1465361923802210	1.1873488	-1.5201845	-2.2104383	
1465361933811975	1.0461526	-1.5029626	-2.1343446	
1465361943821741	0.8550091	-1.4535611	-2.0063596	
1465361953800989	0.67178345	-1.3787997	-1.8672261	
1465361963780237	0.44420528	-1.3002813	-1.6882029	
1465361973790003	0.15633106	-1.2778816	-1.6025629	
1465361983799768	-0.066860676	-1.2532496	-1.4716153	
1465361993809534	-0.12017298	-1.3181062	-1.3078904	
1465362003788782	-0.10761452	-1.3918808	-1.1081161	
1465362013798547	-0.07594776	-1.3842611	-0.8573241	
1465362023777796	-0.018651485	-1.2947471	-0.6683974	
1465362033787561	0.04308033	-1.1987667	-0.37148428	
1465362043766809	0.12054825	-1.0527251	0.013247967	
1465362053776575	0.011703014	-0.8664024	0.41437578	
1465362063786340	-0.39467955	-0.67895865	0.7209611	
1465362083775354	-2.2688231	0.04801345	1.5386596	
1465362083775354	-2.2688231	0.04801345	1.5386596	
1465362093785120	-3.467053	0.32113647	2.0581903	
1465362103764368	-4.2546406	0.45102668	2.874878	
1465362113774133	-4.2553124	0.6197896	3.9925094	
1465362133763147	-2.767683	0.80281496	5.2909408	
1465362133763147	-2.767683	0.80281496	5.2909408	
1465362143772913	-1.9636497	0.74621534	5.154545	
1465362153782678	-1.1700907	0.7480973	4.6848006	
1465362163761926	-0.6024556	0.776657	3.9419994	
1465362183750940	-0.26203108	0.81051576	2.3817291	
1465362183750940	-0.26203108	0.81051576	2.3817291	
1465362193730188	-0.19283485	0.8843322	1.738246	
1465362203739954	-0.15593481	0.9221896	1.1753159	
1465362213749719	-0.16120291	0.8540895	0.69847584	
1465362233738733	-0.08049631	0.6464157	-0.093084335	
1465362233738733	-0.08049631	0.6464157	-0.093084335	
1465362243717981	0.042480946	0.6112293	-0.38881302	
1465362253727747	0.10443163	0.5202149	-0.6713762	
1465362263737512	0.09455347	0.45403934	-0.90030384	
1465362273716760	0.06015396	0.34681892	-1.0526352	
1465362283696008	0.197721	0.23425412	-1.0829687	
1465362293705774	0.41265965	0.115514755	-1.1412716	
1465362313694788	0.66590977	-0.091677904	-1.3538399	
1465362313694788	0.66590977	-0.091677904	-1.3538399	
1465362323704553	0.8841419	-0.19429016	-1.5735102	
1465362333714319	1.1006498	-0.253819	-1.8394098	
1465362343693567	1.2343965	-0.27591157	-2.0943623	
1465362353703333	1.2828698	-0.2335465	-2.2874851	
1465362363682581	1.2959075	-0.09260297	-2.4445972	
1465362373692346	1.2987113	0.13085365	-2.4915524	
1465362393681360	0.5096679	0.5866194	-1.4984426	
1465362393681360	0.5096679	0.5866194	-1.4984426	
1465362403691126	-0.28092957	0.7680466	-0.803874	
1465362413670374	-1.2873249	0.9386616	-0.5007067	
1465362423680139	-1.8250995	1.0284004	-0.34081173	
1465362433659387	-1.3527853	0.9744625	-0.1706543	
1465362443669153	-0.28928208	0.7489817	0.05159092	
1465362453678919	0.74934244	0.40266776	0.081495285	
1465362463658167	1.5355549	0.27427816	0.077887535	
1465362473667932	2.0235977	0.3490541	-0.04396057	
1465362483677698	2.0152018	0.4732902	-0.18221188	
1465362493656946	1.5745974	0.6350899	-0.17530823	
1465362503666712	1.316812	0.7231021	-0.16192913	
1465362513676477	1.1099331	0.7332628	-0.07141018	
1465362523655725	0.9796901	0.7666254	-0.015543938	
1465362533665491	1.112705	0.77207565	0.05579281	
1465362543675256	1.0826547	0.7641487	0.12049484	
1465362563664270	0.9542484	0.66434336	0.67079926	
1465362563664270	0.9542484	0.66434336	0.67079926	
1465362573674036	0.9317714	0.7088971	1.0065727	
1465362593663049	0.8477179	0.94924927	1.2473621	
1465362593663049	0.8477179	0.94924927	1.2473621	
1465362603642297	0.8662914	0.9480853	1.0496683	
1465362613621546	0.75695693	0.83017397	0.7035446	
1465362623631311	0.53391755	0.7063246	0.32365322	
1465362633641077	0.35990417	0.61759615	0.17986584	
1465362643650842	0.0754565	0.35494375	0.209939	
1465362653630090	-0.32031202	-0.032825947	0.4292469	
1465362663609339	-0.6656735	-0.30541134	0.87170696	
1465362673619104	-0.77679396	-0.41951084	1.2906771	
1465362693608118	-0.56558084	-0.7786226	1.5368872	
1465362693608118	-0.56558084	-0.7786226	1.5368872	
1465362703617883	-0.43545187	-0.866729	1.2756023	
1465362713601105	-0.21871626	-1.0244424	0.7759228	
1465362723610871	-0.04861021	-1.1265421	0.18894005	
1465362743599885	0.15030754	-1.2569647	-0.6098995	
1465362743599885	0.15030754	-1.2569647	-0.6098995	
1465362753609650	0.2639557	-1.311655	-0.8606806	
1465362763619416	0.21360004	-1.4165468	-1.0296564	
1465362773598664	0.048246145	-1.5241337	-1.1184483	
1465362783577912	-0.23572159	-1.5713966	-1.0707474	
1465362793587678	-0.5935247	-1.5259426	-0.84860516	
1465362803597443	-0.826252	-1.4995923	-0.5903244	
1465362823586457	-0.81642723	-1.5125718	-0.47022438	
1465362823586457	-0.81642723	-1.5125718	-0.47022438	
1465362833596223	-0.5996076	-1.4667339	-0.64312935	
1465362853585236	0.11416042	-1.38818	-1.3905869	
1465362853585236	0.11416042	-1.38818	-1.3905869	
1465362863564484	0.41280603	-1.3086946	-1.8178253	
1465362873574250	0.62728953	-1.2431474	-2.140954	
1465362883584016	0.79830307	-1.1581337	-2.3989792	
1465362903573029	0.7190441	-1.0146587	-2.4670296	
1465362903573029	0.7190441	-1.0146587	-2.4670296	
1465362913552277	0.5987851	-0.848881	-2.375493	
1465362933541291	0.40446448	-0.6745298	-2.0258455	
1465362933541291	0.40446448	-0.6745298	-2.0258455	
1465362943551057	0.29464757	-0.6117964	-1.8037891	
1465362953530305	0.3746016	-0.51450133	-1.5521297	
1465362963540070	0.6480763	-0.48189497	-1.1196527	
1465362973549836	0.9014027	-0.6076834	-0.17774296	
1465362983529084	0.8911972	-0.7212279	0.8185415	
1465362993538850	0.66027	-0.8064165	1.396061	
1465363003548615	0.6311127	-0.7204242	1.5263605	
1465363013527863	0.43718886	-0.6145325	1.3305101	
1465363023537629	0.053226233	-0.43028498	0.90658474	
1465363033516877	-0.2426126	-0.11241388	0.51144314	
1465363053536408	-0.009690881	0.31790733	-0.13938427	
1465363053536408	-0.009690881	0.31790733	-0.13938427	
1465363063546174	0.20927918	0.3455541	-0.47052002	
1465363073525422	0.43945134	0.33129525	-0.6023121	
1465363083504670	0.548331	0.36546397	-0.37652874	
1465363093514436	0.6124151	0.39369535	-0.13433838	
1465363103493684	0.56545496	0.4539795	-0.017335892	
1465363113503449	0.35686445	0.6427765	0.14777565	
1465363123482697	0.06290388	0.91509056	0.64128685	
1465363133492463	-0.31049967	1.1583388	1.1205664	
1465363143502229	-0.6157062	1.3548009	1.5568743	
1465363153511994	-0.9335933	1.3344038	2.1133308	
1465363163491242	-1.020253	1.2503433	2.7771463	
1465363173501008	-1.060545	1.0646868	3.3719854	
1465363183480256	-1.2395687	0.7581992	3.8597145	
1465363203499787	-1.5717323	0.30013466	4.166954	
1465363203499787	-1.5717323	0.30013466	4.166954	
1465363213509553	-1.3388484	0.25256324	3.826644	
1465363223488801	-1.0149628	0.18139195	3.00815	
1465363233498566	-0.73198605	0.022363901	1.8468132	
1465363253487580	-0.5946951	-0.13671017	-0.05614853	
1465363253487580	-0.5946951	-0.13671017	-0.05614853	
1465363263466828	-0.49616623	0.018681765	-0.60519886	
1465363273476594	-0.59813535	0.22012186	-0.7699213	
1465363283455842	-0.9862982	0.40294886	-0.55135536	
1465363303444855	-2.1297884	0.37172234	0.5354395	
1465363303444855	-2.1297884	0.37172234	0.5354395	
1465363313454621	-2.6203434	0.36673784	1.4677353	
1465363323464387	-2.7634914	0.24000633	1.9354506	
1465363333443635	-2.492362	-0.04167068	1.9153204	
1465363343453400	-2.0632286	-0.46434212	1.3480082	
1465363353463166	-1.4111044	-0.72937083	0.6632557	
1465363363442414	-0.69759834	-0.8070786	0.038985252	
1465363373421662	-0.050581753	-0.90023065	-0.6052637	
1465363383431428	0.32614636	-0.9712374	-1.1827421	
1465363393441193	0.4984898	-0.88691664	-1.6011028	
1465363403420441	0.5651894	-0.6576128	-1.8674335	
1465363413430207	0.539604	-0.4858787	-2.1628723	
1465363423439973	0.5679015	-0.4641695	-2.668476	
1465363433449738	0.6104417	-0.2672801	-3.1254368	
1465363453438752	0.53143054	0.44517422	-3.5533733	
1465363453438752	0.53143054	0.44517422	-3.5533733	
1465363463418000	0.59818804	0.67566466	-3.4512863	
1465363473427766	0.5372015	0.855932	-3.2135534	
1465363483407014	0.2830422	1.1040363	-2.9914846	
1465363503426545	-0.36648774	1.3256679	-2.0475292	
1465363503426545	-0.36648774	1.3256679	-2.0475292	
1465363513405793	-0.5079747	1.2539558	-1.6351852	
1465363523415559	-0.49505958	1.1423125	-1.181612	
1465363533425324	-0.3654487	1.072243	-0.6356964	
1465363543435090	-0.22709018	1.0749569	-0.1878624	
1465363553414338	0.097661376	1.1443174	-0.014828682	
1465363563393586	0.62012345	1.1629531	-0.28927326	
1465363573403352	1.1641072	1.0819147	-0.89794827	
1465363583382600	1.5330142	1.0784905	-1.2508116	
1465363593392365	1.6181649	1.2096055	-1.0872612	
1465363603402131	1.3852286	1.404602	-0.7641077	
1465363613381379	1.0958185	1.5577121	-0.3690424	
1465363623391145	0.96637034	1.7343323	0.03688526	
1465363633370393	0.63411	1.8196108	0.4835472	
1465363643380158	0.14214787	1.8809214	1.1174345	
1465363663369172	-0.48942927	1.8986869	2.0124006	
1465363663369172	-0.48942927	1.8986869	2.0124006	
1465363673378938	-0.28287578	1.8137574	1.8577719	
1465363683358186	0.046982527	1.754236	1.3815317	
1465363693367951	0.3904657	1.666292	1.0684586	
1465363703377717	0.6102588	1.4109004	1.287941	
1465363713356965	0.65672433	1.0236363	2.2387962	
1465363723336213	0.5020168	0.5532191	3.6586752	
1465363733345979	0.15195549	0.106769085	4.9316597	
1465363753334992	-0.598526	-0.8103242	5.865226	
1465363753334992	-0.598526	-0.8103242	5.865226	
1465363763314240	-0.48848438	-1.0629127	5.011984	
1465363773324006	-0.22253251	-1.2031121	3.664219	
1465363783333771	0.15785465	-1.1956015	2.1462755	
1465363803322785	0.7882223	-1.180062	-0.23061657	
1465363803322785	0.7882223	-1.180062	-0.23061657	
1465363813332551	0.89893574	-1.1915007	-0.865716	
1465363823311799	1.0678596	-1.1743267	-1.2911901	
1465363833321564	1.0662427	-1.1547213	-1.422451	
1465363843331330	0.56153166	-1.177371	-1.2342253	
1465363853310578	0.50860107	-1.2694759	-0.8105297	
1465363863320344	0.401392	-1.4785752	-0.36840534	
1465363873330109	0.26585048	-1.5684404	0.045323372	
1465363883309357	0.22426166	-1.5529432	0.31731415	
1465363893319123	0.24380723	-1.5680993	0.43972015	
1465363903298371	0.2829531	-1.5913377	0.37830925	
1465363913308137	0.13244753	-1.5422509	0.26824474	
1465363923317902	-0.12615216	-1.3960984	-0.095217705	
1465363933297150	-0.19050537	-1.2068524	-0.6783123	
1465363943306916	-0.14013633	-1.0600936	-1.5585165	
1465363963295930	0.15907957	-0.95628595	-2.8079777	
1465363963295930	0.15907957	-0.95628595	-2.8079777	
1465363973305695	0.27581713	-0.87200546	-2.8237734	
1465363983284943	0.5008393	-0.8385751	-2.1053686	
1465363993294709	0.47118253	-0.83310604	-0.33191872	
1465364003304475	0.55219865	-1.206033	1.0154295	
1465364013283723	1.0273015	-1.6806395	1.2961988	
1465364023262971	1.3634015	-1.7733374	0.7952328	
1465364033272736	1.3855355	-1.6804087	-0.10338783	
1465364043282502	1.1612004	-1.483177	-0.8027744	
1465364053261750	0.78209776	-1.2341278	-1.1320744	
1465364063271516	0.44949752	-1.0160067	-1.3159494	
1465364073281281	0.33140555	-0.85314274	-1.6089725	
1465364093270295	0.45319563	-0.66370845	-1.3053846	
1465364093270295	0.45319563	-0.66370845	-1.3053846	
1465364103280061	0.4606062	-0.6433301	-0.8344717	
1465364113259309	0.25367364	-0.50557375	-0.4326477	
1465364123238557	0.21697581	-0.33614063	-0.44400597	
1465364133248322	0.19792359	-0.22901988	-0.9028406	
1465364143258088	0.08814195	-0.11520958	-1.5149298	
1465364153267854	0.05834075	0.119455814	-1.7261629	
1465364163247102	-0.3095507	0.34838557	-1.3248224	
1465364173226350	-0.7272557	0.4707284	-0.46272373	
1465364193245881	-0.5486384	0.6178987	0.48866844	
1465364193245881	-0.5486384	0.6178987	0.48866844	
1465364203225129	-0.33742267	0.60079	0.5538826	
1465364213234895	-0.101869985	0.58094764	0.35082722	
1465364223244660	0.038439386	0.510216	0.1294918	
1465364243233674	-0.041219458	0.5887263	0.7331085	
1465364243233674	-0.041219458	0.5887263	0.7331085	
1465364253212922	-0.3067775	0.4685521	1.1991339	
1465364263222688	-0.83815444	0.65161324	1.1095839	
1465364273232453	-1.1340206	0.94044113	2.085187	
1465364293190949	-2.1464808	0.50885105	3.5982866	
1465364293190949	-2.1464808	0.50885105	3.5982866	
1465364303200715	-1.8928542	-0.06681681	3.9405231	
1465364313210480	-0.8633928	-0.541535	3.8588562	
1465364323220246	0.20748883	-0.8533205	3.2581444	
1465364343178742	1.1496043	-1.0091792	1.7098761	
1465364343178742	1.1496043	-1.0091792	1.7098761	
1465364353188508	0.9022993	-0.97030747	1.3494081	
1465364363198273	0.7578434	-0.8650298	1.2043037	
1465364373177521	0.5688548	-0.530195	1.0212374	
1465364393197053	-0.049827456	-0.08459544	0.5463648	
1465364393197053	-0.049827456	-0.08459544	0.5463648	
1465364403176301	-0.5668161	0.08073866	0.8980093	
1465364413155549	-0.7784653	0.21915072	1.0091763	
1465364423165314	-0.8862213	0.12342483	0.7349596	
1465364443184846	-1.1682324	-0.08189452	0.21043587	
1465364443184846	-1.1682324	-0.08189452	0.21043587	
1465364453164094	-0.9361056	-0.21927762	-0.086873055	
1465364463173859	-0.95686877	-0.2751057	-0.4531269	
1465364473183625	-0.99365044	-0.28832614	-0.84283733	
1465364483162873	-0.84623265	-0.28641856	-1.2661076	
1465364493172639	-0.5828101	-0.35537803	-1.7543831	
1465364503151887	-0.26869452	-0.3887968	-2.3079548	
1465364513161652	0.015278578	-0.30292237	-2.7195683	
1465364523171418	0.13373053	-0.17129922	-3.123783	
1465364533150666	0.1247226	-0.058540106	-3.2508707	
1465364543160432	-0.034721673	0.08215034	-3.2687187	
1465364553139680	-0.09355271	0.1742822	-2.9796066	
1465364563149445	-0.15602976	0.33778	-2.6994572	
1465364573159211	-0.42756683	0.566368	-2.4139004	
1465364593117707	-0.9303251	0.7328234	-1.6991663	
1465364593117707	-0.9303251	0.7328234	-1.6991663	
1465364603127473	-0.53126496	0.7083819	-1.2004471	
1465364613137238	0.07894325	0.65725887	-1.2971487	
1465364623116486	0.5210278	0.5651909	-2.189767	
1465364633126252	0.5988152	0.42483497	-2.519761	
1465364643105500	0.3654027	0.49850607	-2.28051	
1465364653115266	-0.06592393	0.8343351	-2.2270718	
1465364663125031	-0.4457047	1.3375374	-1.5595951	
1465364673134797	-0.2613622	1.7369494	-1.0372314	
1465364683114045	0.28695214	1.7703791	-0.18836021	
1465364693123811	0.7191832	1.2801013	0.7501459	
1465364703103059	1.2825284	0.74320066	0.90154076	
1465364713082307	1.3472487	0.42668787	1.4344292	
1465364723092072	1.3545383	0.11674762	2.006773	
1465364743111604	1.6804465	-0.11289708	2.7197266	
1465364743111604	1.6804465	-0.11289708	2.7197266	
1465364753090852	1.5434887	-0.10781718	2.9680557	
1465364763100617	1.2243614	-0.023772232	3.1554585	
1465364773110383	0.7120029	0.03090689	3.1038008	
1465364783120148	0.34947133	0.059856277	3.0768547	
1465364793099396	0.39824593	0.0060508735	2.9965801	
1465364803078645	0.55896246	-0.011404276	3.0000257	
1465364813088410	0.63262737	-0.03455074	3.3282766	
1465364823067658	0.5456641	-0.10254723	3.5239239	
1465364843056672	0.46928692	-0.46598262	4.468252	
1465364843056672	0.46928692	-0.46598262	4.468252	
1465364853066438	0.53821754	-0.8182744	4.8286457	
1465364863076203	0.50701165	-1.0720358	4.930537	
1465364873055451	0.47743058	-1.1599932	4.7379456	
1465364893044465	0.33515334	-1.1070194	3.6171074	
1465364893044465	0.33515334	-1.1070194	3.6171074	
1465364903054230	0.21273208	-1.1412638	2.6718302	
1465364913063996	0.10687971	-1.2188222	1.7747793	
1465364923043244	0.06787968	-1.203565	0.8865833	
1465364933053010	-0.020216942	-1.0595341	0.12444115	
1465364943032258	-0.14589715	-0.86873484	-0.45497894	
1465364963051789	-0.3874297	-0.7319729	-0.80134296	
1465364963051789	-0.3874297	-0.7319729	-0.80134296	
1465364973031037	-0.5060092	-0.7602813	-0.7315178	
1465364983040803	-0.69163406	-0.8668585	-0.728631	
1465364993050568	-0.8384925	-0.9536766	-0.5288267	
1465365003060334	-0.9116949	-1.0047095	-0.23282242	
1465365013039582	-0.89596736	-1.1240864	0.055998802	
1465365023018830	-0.694819	-1.2277756	-0.028856277	
1465365033028596	-0.37987328	-1.3122727	-0.58021355	
1465365043007844	-0.06621444	-1.3029535	-1.2706451	
1465365052987092	0.051247835	-1.2158835	-1.793004	
1465365062996857	-0.045261145	-1.1243259	-2.1185837	
1465365073006623	-0.28357136	-1.0695823	-2.4036722	
1465365083016389	-0.49951077	-1.0118967	-2.697115	
1465365092995637	-0.5899682	-0.9384148	-2.8564568	
1465365103005402	-0.538465	-0.9185312	-2.9787426	
1465365112984650	-0.38383687	-0.99638724	-2.9857025	
1465365122994416	-0.21756339	-0.9939318	-2.8398151	
1465365133004182	-0.084991336	-0.955315	-2.5659037	
1465365142983430	-0.007579446	-0.8218324	-2.0959682	
1465365152993195	0.003111124	-0.65484583	-1.6926041	
1465365162972443	-0.06564772	-0.53669095	-1.4413157	
1465365172982209	-0.16629553	-0.53614473	-1.2437935	
1465365182991975	-0.24883997	-0.4929825	-1.095994	
1465365192971223	-0.3221177	-0.49054205	-0.886199	
1465365202980988	-0.3802303	-0.64101493	-0.6285858	
1465365212990754	-0.290712	-0.91638494	-0.4632511	
1465365222970002	-0.17030776	-1.0075368	-0.35772038	
1465365232979768	-0.14667177	-0.92975605	-0.124313354	
1465365242959016	-0.4134816	-0.76976824	0.3716545	
1465365252968781	0.28818035	-0.69858193	0.42941666	
1465365262978547	0.4788705	-0.49916947	0.53065014	
1465365272957795	0.15649605	-0.08700991	0.9672861	
1465365282967561	-0.2571087	0.3513924	1.3371458	
1465365292946809	-0.6392677	0.49899793	1.5497637	
1465365302956574	-0.9414363	0.3566445	1.6968842	
1465365312966340	-0.91471434	0.16180098	1.7244635	
1465365322945588	-0.4542961	0.058965385	1.6922083	
1465365332955354	0.09615779	0.06921053	1.713644	
1465365342934602	0.43360496	0.20112175	1.80618	
1465365352944367	0.56923485	0.35570776	2.1411295	
1465365372963898	0.32291365	0.46306086	3.1104069	
1465365372963898	0.32291365	0.46306086	3.1104069	
1465365382943146	0.17880082	0.4286243	3.5296822	
1465365402932160	0.7817037	0.20056024	4.063321	
1465365402932160	0.7817037	0.20056024	4.063321	
1465365412941926	0.8672476	0.1339136	4.139099	
1465365422951691	1.0584846	-0.038058072	3.8343554	
1465365432930939	0.9336057	-0.079260394	3.4882345	
1465365442940705	0.7451997	-0.14743906	2.9989128	
1465365452919953	0.5570588	-0.1344226	2.5393524	
1465365462899201	0.37264848	-0.0038113296	2.1204472	
1465365482918732	-0.2218554	0.08515006	1.1911507	
1465365482918732	-0.2218554	0.08515006	1.1911507	
1465365492897980	-0.37281322	0.13094428	0.6566181	
1465365502907746	-0.45741963	0.14769453	0.07327652	
1465365512917512	-0.5670574	0.18194467	-0.4690323	
1465365522896760	-0.53388786	0.26824826	-0.7084446	
1465365532876008	-0.57875204	0.3345188	-0.73300076	
1465365542885773	-0.7198994	0.4084776	-0.7443342	
1465365552895539	-0.7919812	0.43296546	-0.79098415	
1465365562874787	-0.88111544	0.36766934	-0.8189297	
1465365582863801	-0.7986369	0.1578201	-0.94620323	
1465365582863801	-0.7986369	0.1578201	-0.94620323	
1465365592873566	-0.8426478	0.06219721	-1.0134611	
1465365602883332	-0.91363144	0.0496943	-1.1883783	
1465365612862580	-0.7599118	0.17016101	-1.4088745	
1465365622872346	-0.6860604	0.42911553	-1.6851273	
1465365632882111	-0.89082885	0.58716583	-1.9389277	
1465365642861359	-1.0698934	0.595875	-2.1114283	
1465365662850373	-1.4276717	0.85849345	-1.9124556	
1465365662850373	-1.4276717	0.85849345	-1.9124556	
1465365672860139	-0.81705713	0.8588687	-1.4667091	
1465365682839387	0.23081279	0.44960213	-0.9459171	
1465365692849152	0.41116858	0.42173135	-0.6174412	
1465365702828400	0.5609999	0.5178808	-0.5364256	
1465365762825959	0.5475614	0.5713743	0.29284668	
1465365762825959	0.5475614	0.5713743	0.29284668	
1465365762825959	0.5475614	0.5713743	0.29284668	
1465365762825959	0.5475614	0.5713743	0.29284668	
1465365762825959	0.5475614	0.5713743	0.29284668	
1465365762825959	0.5475614	0.5713743	0.29284668	
1465365772805207	0.47531652	0.4463606	0.59150696	
1465365782814973	0.3746097	0.34832025	0.56612396	
1465365792794221	0.40994287	0.295578	0.116368294	
1465365802803986	0.6283653	0.31513393	-0.29743195	
1465365812813752	0.8033464	0.3494581	-0.32771683	
1465365822793000	0.96334386	0.36193025	-0.18314743	
1465365832802766	1.155643	0.44648552	-0.07771683	
1465365842782014	1.1829433	0.52443683	0.05404377	
1465365852791779	1.1108885	0.51332545	0.015974998	
1465365862771027	0.9473834	0.584371	-0.096214294	
1465365872780793	0.69909334	0.7350844	0.11656189	
1465365882790559	0.45395136	0.7229147	0.31574154	
1465365892769807	0.3476715	0.55923367	0.30327892	
1465365902779572	0.204103	0.27539396	0.071549416	
1465365912789338	0.41753054	0.13718283	-0.26174068	
1465365922768586	0.85477257	-0.035098195	-0.5046072	
1465365932778352	0.97678375	-0.11411297	-0.12312412	
1465365952767365	0.36229324	-0.019483924	1.7351713	
1465365952767365	0.36229324	-0.019483924	1.7351713	
1465365962746613	0.07535982	-0.21654439	2.2474957	
1465365982766145	-0.20062351	-0.5636884	2.690754	
1465365982766145	-0.20062351	-0.5636884	2.690754	
1465365992745393	0.03146267	-0.75878906	2.4480247	
1465366012764924	-0.112329006	-1.146937	1.013237	
1465366012764924	-0.112329006	-1.146937	1.013237	
1465366022744172	-0.106927395	-1.087232	0.24894428	
1465366042763703	-0.09033656	-0.97587824	-0.9491348	
1465366042763703	-0.09033656	-0.97587824	-0.9491348	
1465366052773469	-0.12704158	-0.9524441	-1.2122345	
1465366062752717	-0.42686892	-0.8793273	-1.261734	
1465366072762482	-0.82914805	-0.7969562	-1.3090382	
1465366092751496	-0.4619589	-1.000575	-0.112695694	
1465366092751496	-0.4619589	-1.000575	-0.112695694	
1465366102761262	-0.29703856	-1.3611194	-0.7443819	
1465366112771027	0.044371128	-1.168211	-1.0175562	
1465366122750275	0.20028377	-1.1057274	-0.6772003	
1465366132729523	-0.074756145	-1.0422194	-0.92084694	
1465366142739289	-0.11982989	-0.9374175	-1.2384062	
1465366152749055	-0.40149975	-0.83257365	-1.5106487	
1465366162728303	-0.6558318	-0.76040673	-1.7877207	
1465366172738068	-0.766258	-0.69770527	-2.0529375	
1465366182717316	-0.7911205	-0.7591952	-2.252265	
1465366192727082	-0.586735	-0.839327	-2.424593	
1465366202706330	-0.18619132	-0.91943717	-2.3381042	
1465366212716096	0.19991374	-0.98771703	-2.229064	
1465366222725861	0.3986628	-0.94737864	-2.0826302	
1465366232705109	0.45387125	-0.85265386	-1.8216352	
1465366242714875	0.37670684	-0.71217346	-1.2947893	
1465366252694123	0.18219137	-0.5188304	-0.844697	
1465366262703889	0.050005198	-0.29405642	-0.5831938	
1465366272713654	-0.06009698	-0.08587158	-0.49578285	
1465366282692902	-0.18803716	0.19259715	-0.5831728	
1465366292702668	-0.36431074	0.53049695	-0.85000706	
1465366302712434	-0.45917976	0.7724211	-0.81126595	
1465366322701447	-1.4326366	0.041652083	-0.3506775	
1465366322701447	-1.4326366	0.041652083	-0.3506775	
1465366332680695	0.4846382	0.04594183	1.2543669	
1465366342690461	1.7741487	0.41107678	2.5750809	
1465366352669709	1.1501908	0.25609493	1.2032089	
1465366362679475	1.8816636	0.28594315	0.2373972	
1465366372689240	1.6720862	0.84761655	0.7454624	
1465366382668488	0.6057633	1.0925509	1.6352539	
1465366392678254	0.13991737	0.9618832	2.4607668	
1465366402657502	0.13368511	0.85307777	3.1169844	
1465366412667268	0.4166168	0.8781662	3.3647861	
1465366422677033	0.8744179	0.8817711	3.3342743	
1465366432656281	1.1661575	0.9241539	3.3165236	
1465366442666047	1.0949914	1.1193918	3.4298735	
1465366452675813	0.8252582	1.4476296	3.6907883	
1465366462655061	0.44961226	1.7197802	3.8251638	
1465366472664826	0.17060244	1.9244382	3.9075813	
1465366482644074	0.026744008	2.0122328	4.0553493	
1465366492653840	-0.025206506	1.9366637	4.173381	
1465366502633088	-0.11312747	1.7472682	4.0499935	
1465366512642854	-0.23025352	1.5127385	3.9607763	
1465366522652619	-0.4514125	1.1519221	3.636242	
1465366532631867	-0.76011395	0.81786895	3.1108932	
1465366542641633	-0.8965123	0.52507305	2.4473886	
1465366552651398	-0.88685066	0.21452022	1.5551519	
1465366562661164	-0.7596755	-0.019688368	0.6299486	
1465366572640412	-0.5808364	-0.14458084	-0.23859978	
1465366582619660	-0.49657935	-0.2140708	-0.92290497	
1465366592629426	-0.5354559	-0.30463266	-1.3480892	
1465366602608674	-0.60813457	-0.40253723	-1.66609	
1465366612618439	-0.6298597	-0.46804082	-2.0181856	
1465366622628205	-0.57633215	-0.50456107	-2.0181856	
1465366632607453	-0.47856045	-0.5112486	-2.2537355	
1465366652626984	-0.5694076	-0.38366604	-2.4541817	
1465366652626984	-0.5694076	-0.38366604	-2.4541817	
1465366662636750	-0.5745053	-0.30942225	-2.4713545	
1465366672615998	-0.46039546	-0.26642442	-2.4483824	
1465366682625764	-0.21422839	-0.2150147	-2.4897127	
1465366702614777	0.49654067	-0.22870135	-2.784915	
1465366702614777	0.49654067	-0.22870135	-2.784915	
1465366712624543	0.61927	-0.13045645	-2.9769278	
1465366722603791	0.48732185	0.12353444	-2.77246	
1465366732613557	0.3022191	0.3813789	-2.5902967	
1465366752572053	0.4194247	0.5908122	-2.5972767	
1465366752572053	0.4194247	0.5908122	-2.5972767	
1465366762581818	0.5103771	0.55387664	-2.3050861	
1465366772591584	0.6621948	0.53985286	-1.7382841	
1465366782570832	0.86731863	0.5054443	-0.84778404	
1465366792580598	1.0445607	0.50219893	-0.84778404	
1465366802559846	1.1617923	0.5124388	-0.6582098	
1465366812569611	1.1738172	0.54711246	-0.6680479	
1465366822548859	1.1018986	0.5394275	-0.8410826	
1465366832558625	1.0174047	0.4959588	-0.82898617	
1465366852578156	0.80807436	0.541677	-0.14464378	
1465366852578156	0.80807436	0.541677	-0.14464378	
1465366862587922	0.686738	0.6484511	0.02458477	
1465366872567170	0.6708205	0.7145579	0.050107956	
1465366882546418	0.71873605	0.6924937	0.11292648	
1465366902535432	0.7027389	0.5982399	-0.0453043	
1465366902535432	0.7027389	0.5982399	-0.0453043	
1465366912545197	0.5482657	0.6036866	-0.19820118	
1465366922554963	0.31428468	0.62151265	-0.22044754	
1465366932564729	0.054773927	0.7336345	0.108504295	
1465366952553742	-0.29933	0.7569599	1.24965	
1465366952553742	-0.29933	0.7569599	1.24965	
1465366962532990	-0.34232807	0.646492	1.7935905	
1465366972512238	-0.3292731	0.5803404	2.4250774	
1465366982522004	-0.42121458	0.5321324	3.0492983	
1465366992531770	-0.3927989	0.40795326	3.6559086	
1465367002541535	-0.17059255	0.2668463	4.287588	
1465367012520783	0.044760227	0.1137383	4.8212223	
1465367032540314	0.21359968	-0.20609117	4.6614895	
1465367032540314	0.21359968	-0.20609117	4.6614895	
1465367042519563	0.3117069	-0.39468944	3.7168608	
1465367052498811	0.40663493	-0.6089492	2.5001564	
1465367062508576	0.52957594	-0.8120152	1.3077059	
1465367072518342	0.67500794	-0.9348569	0.26995087	
1465367082528107	0.7483338	-0.9964999	-0.4824829	
1465367092507355	0.67786765	-0.9910054	-0.9093752	
1465367102517121	0.4255855	-0.97224545	-1.0247059	
1465367112496369	0.09129834	-0.9666643	-0.8675842	
1465367122506135	-0.03726101	-0.9239316	-0.6046114	
1465367132485383	-0.13992667	-0.91071177	-0.38955498	
1465367152474396	-0.3077016	-0.8534465	-0.1938734	
1465367152474396	-0.3077016	-0.8534465	-0.1938734	
1465367162484162	-0.4140191	-0.9122782	-0.30321312	
1465367182503693	-0.17900366	-1.1339309	-1.0424814	
1465367182503693	-0.17900366	-1.1339309	-1.0424814	
1465367192482941	0.059417486	-1.1993549	-1.5474672	
1465367202462189	0.3064927	-1.2312973	-2.0124588	
1465367212471955	0.4440083	-1.2398853	-2.517065	
1465367232460969	0.42443687	-1.1405556	-3.2559881	
1465367232460969	0.42443687	-1.1405556	-3.2559881	
1465367242470734	0.2166577	-1.0061293	-3.225728	
1465367252480500	0.07747972	-0.8518512	-3.4290714	
1465367262490266	-0.051516652	-0.7934253	-3.575863	
1465367272469514	-0.04520762	-0.7805941	-3.441535	
1465367282448762	0.066651106	-0.7398932	-2.9578266	
1465367302437775	0.4651705	-0.65221596	-1.6098461	
1465367302437775	0.4651705	-0.65221596	-1.6098461	
1465367312447541	0.61274004	-0.6570356	-1.044836	
1465367332467072	0.59974897	-0.52111936	-0.07784176	
1465367332467072	0.59974897	-0.52111936	-0.07784176	
1465367342446320	0.48748392	-0.3888805	0.078635216	
1465367362435334	-0.18014967	-0.106497526	0.17072201	
1465367362435334	-0.18014967	-0.106497526	0.17072201	
1465367372414582	-0.33650988	0.045011282	0.21216106	
1465367382424348	-0.36745125	0.17956972	0.12762547	
1465367392434113	-0.34243846	0.20957637	-0.086912155	
1465367402443879	-0.31615764	0.18126798	-0.18499374	
1465367412423127	-0.24392074	0.15215516	-0.10678482	
1465367422432893	-0.17813438	0.043682814	0.23950195	
1465367442391389	0.011212945	0.07755542	1.3932009	
1465367442391389	0.011212945	0.07755542	1.3932009	
1465367452401154	-0.08232218	0.22511458	2.0358496	
1465367462380402	-0.06522179	0.4361856	2.485219	
1465367472390168	-0.06818402	0.71320224	2.6636105	
1465367482399934	-0.1681652	0.8644552	2.772091	
1465367492409699	-0.18662924	0.9675691	2.8914108	
1465367502388947	-0.13807303	0.9181981	3.1193695	
1465367512398713	-0.023414463	0.87500584	3.4798126	
1465367522377961	0.27965784	0.84214365	4.0143785	
1465367532387727	0.6604736	0.90030134	4.6121254	
1465367542397492	1.0496647	1.0464493	5.0169888	
1465367552376740	1.0550742	1.102968	4.8890276	
1465367562386506	0.7699622	1.0002979	4.3274097	
1465367572365754	0.6038296	0.73193693	3.5454893	
1465367582375520	0.5322374	0.41563857	2.6367025	
1465367592385285	0.4869928	0.09172356	1.7037115	
1465367602364533	0.57296467	-0.14503801	0.7125683	
1465367612343781	0.6376703	-0.27718687	-0.19936657	
1465367622353547	0.53286684	-0.3165443	-0.7879534	
1465367642373078	0.23542729	-0.2679683	-1.4516621	
1465367642373078	0.23542729	-0.2679683	-1.4516621	
1465367652352326	0.043800518	-0.33193767	-1.5933914	
1465367662362092	-0.20210059	-0.41862988	-1.5476885	
1465367682351105	-1.0159854	-0.31156492	-1.507721	
1465367692330354	-1.488056	-0.09606433	-1.3718691	
1465367692330354	-1.488056	-0.09606433	-1.3718691	
1465367702340119	-1.964028	0.17035389	-1.3390179	
1465367712349885	-2.1003804	0.25985932	-1.484973	
1465367722359650	-1.8535914	0.15071297	-1.804512	
1465367732369416	-1.2369137	-0.006829262	-2.1614552	
1465367742348664	-0.5494992	-0.2303102	-2.5725594	
1465367752327912	-0.030658312	-0.4846468	-2.9829245	
1465367762337678	0.38702837	-0.7198875	-3.3571377	
1465367772347443	0.7101678	-0.7934809	-3.5691633	
1465367792305939	0.56247854	-0.45430708	-3.5335093	
1465367792305939	0.56247854	-0.45430708	-3.5335093	
1465367802315705	0.27445018	-0.18874335	-3.2676268	
1465367812325471	-0.101565056	0.14707541	-2.9533958	
1465367822335236	-0.4226768	0.45781326	-2.614274	
1465367842324250	-0.30880734	0.573169	-2.0393667	
1465367842324250	-0.30880734	0.573169	-2.0393667	
1465367852303498	-0.009986911	0.50954866	-1.5883446	
1465367862313264	0.28213328	0.432487	-0.9779825	
1465367872292512	0.6108671	0.38181686	-0.62337303	
1465367882302277	0.8218871	0.31969786	-0.5860672	
1465367902291291	1.0113946	0.41807556	-0.49373245	
1465367902291291	1.0113946	0.41807556	-0.49373245	
1465367912301057	0.85817426	0.4697168	-0.09592724	
1465367932290070	0.7089352	0.6846585	1.6532087	
1465367932290070	0.7089352	0.6846585	1.6532087	
1465367942299836	0.67099845	0.94265866	2.2638063	
1465367952279084	0.6325455	1.0739276	2.4693851	
1465367962288850	0.528864	1.1143188	2.616807	
1465367972268098	0.514986	1.1827002	2.6413193	
1465367992287629	-0.06523451	0.608212	2.4690447	
1465367992287629	-0.06523451	0.608212	2.4690447	
1465368002266877	-0.2665221	0.24935937	3.1435375	
1465368012276643	-0.46579778	0.28719592	4.7777452	
1465368022255891	-0.74747235	0.32392216	6.7494593	
1465368032265656	-0.93666136	0.17132854	8.0942335	
1465368042244904	-1.0000782	-0.04124403	8.518368	
1465368052254670	-1.0432881	-0.32983017	7.7668943	
1465368062264436	-1.0412816	-0.79606247	5.7727957	
1465368072243684	-0.91580844	-1.2713056	3.106141	
1465368082253449	-0.53812474	-1.6248565	0.42529774	
1465368092263215	-0.12020885	-1.8288362	-1.6650429	
1465368102272980	0.21155803	-1.9179015	-2.9776678	
1465368112252229	0.3891621	-1.9316356	-3.6256514	
1465368122261994	0.4549926	-1.8894789	-3.820198	
1465368142220490	0.189304	-1.7692668	-3.264224	
1465368142220490	0.189304	-1.7692668	-3.264224	
1465368152230256	-0.19733936	-1.569509	-2.7146301	
1465368162240021	-0.46275234	-1.2888062	-2.092989	
1465368172219270	-0.4699578	-1.0585663	-1.6091404	
1465368182229035	-0.35553434	-0.8734145	-1.2680559	
1465368192208283	-0.19078624	-0.74038243	-1.0274916	
1465368202218049	-0.0834814	-0.6871252	-0.99904156	
1465368212227814	0.052989453	-0.7147286	-1.1323538	
1465368222207063	0.32742256	-0.7621112	-1.3348455	
1465368242196076	0.42535344	-0.54591703	-1.6741943	
1465368242196076	0.42535344	-0.54591703	-1.6741943	
1465368252175324	0.2026607	-0.34561586	-1.772172	
1465368262185090	-0.149956	-0.050227642	-1.8637915	
1465368272194855	-0.43986416	0.24267173	-1.9109936	
1465368282204621	-0.6067823	0.5328903	-1.9066515	
1465368292214387	-0.6553432	0.7717023	-1.8219404	
1465368302224152	-0.46334237	0.92679286	-1.854825	
1465368312203400	-0.106859684	0.93886447	-1.9979563	
1465368322182648	0.22465724	0.8306091	-1.8572836	
1465368332192414	0.5206928	0.6719153	-1.4713125	
1465368342202180	0.78559405	0.5763178	-0.9830713	
1465368352181428	0.9422372	0.5723164	-0.61378765	
1465368362191193	1.1460316	0.6274128	-0.41012192	
1465368372200959	1.1587836	0.6546149	-0.37861347	
1465368392189973	0.8392168	0.7259517	-0.31689167	
1465368392189973	0.8392168	0.7259517	-0.31689167	
1465368402169221	0.8046282	0.788707	-0.094249725	
1465368412178986	0.7654203	0.8550577	0.012491226	
1465368422188752	0.6550477	0.86210465	-0.030174255	
1465368432168000	0.57839465	0.8522575	0.08032799	
1465368442147248	0.528937	0.8588774	0.34776974	
1465368452157014	0.42223066	0.8421285	0.53754616	
1465368462166779	0.3138314	0.768157	0.5985422	
1465368472176545	0.1415236	0.68029284	0.8686857	
1465368482155793	0.15738863	0.71477294	1.2058344	
1465368492135041	0.2685867	0.79650044	1.6366768	
1465368502144807	0.2530023	0.92721987	2.0309172	
1465368512154572	0.20314896	1.0294011	2.1843424	
1465368522133820	0.23156512	1.0831053	2.1311502	
1465368532143586	0.078110754	1.1449876	2.174117	
1465368542153352	-0.21607351	1.1772938	2.4770632	
1465368552132600	-0.5396526	1.1606492	2.8891878	
1465368562142365	-0.7887322	0.9119216	3.2554522	
1465368572152131	-0.8572986	0.4610232	3.908433	
1465368582131379	-0.8315474	-0.025176048	4.692359	
1465368592110627	-0.6385406	-0.53395	5.10923	
1465368612099641	-0.2362988	-1.5176809	3.6502285	
1465368612099641	-0.2362988	-1.5176809	3.6502285	
1465368622109406	-0.25614035	-1.8770925	2.3033695	
1465368632119172	-0.3817997	-1.9516804	0.8679228	
1465368642098420	-0.55548334	-1.862136	-0.3955469	
1465368652108186	-0.66852725	-1.710374	-1.5281	
1465368662117951	-0.7917141	-1.497218	-2.2202415	
1465368672097199	-0.96874034	-1.2341088	-2.4249887	
1465368682106965	-1.271411	-0.94635093	-2.402501	
1465368692086213	-1.5609959	-0.6351199	-2.2685528	
1465368702095979	-1.8008398	-0.37191486	-2.0181894	
1465368712075227	-1.8914019	-0.22488189	-1.724946	
1465368722084992	-1.7353655	-0.14900064	-1.4619484	
1465368732094758	-1.3711851	-0.11312723	-1.0407181	
1465368742074006	-0.90338874	-0.12799776	-0.74809265	
1465368752083771	-0.5460141	-0.19903946	-0.8253479	
1465368762063020	-0.2961309	-0.22338974	-1.1206999	
1465368772072785	-0.15573335	-0.19323468	-1.3904877	
1465368782082551	-0.1570015	-0.029669166	-1.5397415	
1465368792092316	-0.113371015	0.18906343	-1.8271132	
1465368802102082	-0.04793012	0.3491856	-2.1674032	
1465368812081330	-0.019189715	0.43480194	-2.437562	
1465368822060578	0.0783838	0.543946	-2.4998627	
1465368832070344	0.15718663	0.6386514	-2.663249	
1465368842049592	0.13729942	0.7826433	-2.854083	
1465368852059357	0.16916728	0.89767027	-2.9081078	
1465368862069123	0.17843866	1.0918812	-2.685873	
1465368872048371	0.3031361	1.2924596	-2.1600895	
1465368882027619	0.45978093	1.4691144	-1.3656044	
1465368892037385	0.5703943	1.4263083	-0.49809742	
1465368902016633	0.68975043	1.2743132	0.029690742	
1465368912026398	0.952451	0.9754678	0.08431816	
1465368922036164	1.2895856	0.8197131	-0.022034645	
1465368932045930	1.3346384	0.8279096	-0.07441616	
1465368942025178	1.1644621	0.95997	-0.20578384	
1465368952034943	0.7649641	1.000807	-0.18280411	
1465368962014191	0.19002676	0.6652477	0.77605057	
1465368972023957	0.8949034	1.2062801	0.49252033	
1465368982033723	1.5215676	1.5094686	-0.11256313	
1465368992012971	1.9308152	1.3095115	-0.25437927	
1465369012032502	0.98507404	0.43240237	0.2764454	
1465369012032502	0.98507404	0.43240237	0.2764454	
1465369022011750	0.5068867	0.13881779	0.3794756	
1465369032021516	0.5773721	0.15710855	0.35743713	
1465369042000764	0.81819844	0.4597323	0.40777206	
1465369052010529	0.86569786	0.76689124	0.49489975	
1465369061989777	0.447402	1.221678	0.99549866	
1465369071999543	-0.6341045	1.8368292	2.1273584	
1465369082009309	-1.8586075	2.2194967	3.317089	
1465369092019074	-2.6980312	2.0184035	4.563553	
1465369101998322	-3.1737885	1.4543028	6.065316	
1465369112008088	-3.4062827	0.7342849	7.497101	
1465369121987336	-3.1897964	-0.08398914	8.0603895	
1465369131997102	-2.3391948	-0.7816328	7.3343544	
1465369141976350	-1.3730055	-1.2064772	5.5036564	
1465369161995881	-0.57777095	-2.129913	0.56666565	
1465369161995881	-0.57777095	-2.129913	0.56666565	
1465369171975129	-0.33834958	-2.3504755	-1.6686144	
1465369181984895	0.16310787	-2.1244712	-3.4567108	
1465369191964143	0.38240433	-1.6853685	-4.2637777	
1465369201973908	0.063991666	-1.4394808	-4.320859	
1465369211953156	-0.39388192	-1.4044297	-3.9695234	
1465369221962922	-0.71214867	-1.4186513	-3.2132425	
1465369231972688	-1.0157714	-1.3855143	-2.2628279	
1465369241951936	-1.3229331	-1.38433	-1.2543659	
1465369251961701	-1.5370722	-1.2892544	-0.15333557	
1465369261940949	-1.3501124	-1.1852288	0.56355476	
1465369271950715	-0.6178237	-1.2128716	0.43339443	
1465369281960480	0.33437002	-1.3734105	-0.36353016	
1465369291970246	1.533994	-1.3925681	-1.4561577	
1465369301949494	2.342023	-1.2977953	-2.2891712	
1465369321938508	2.2385955	-0.98551345	-2.3537407	
1465369321938508	2.2385955	-0.98551345	-2.3537407	
1465369331948273	1.5002605	-0.8627851	-1.7554684	
1465369341927521	0.8027067	-0.98505354	-1.0196905	
1465369351937287	1.1073542	-0.9147024	-0.47220516	
1465369361916535	1.6650059	-0.6379459	-0.2021265	
1465369371926301	1.8488196	-0.6489961	-0.36732864	
1465369381905549	1.9491314	-0.7465787	-1.0179005	
1465369391915314	1.7528694	-0.51765656	-1.7647982	
1465369411904328	1.247377	0.186167	-1.9838123	
1465369411904328	1.247377	0.186167	-1.9838123	
1465369421914094	1.0754676	0.6912222	-1.5237465	
1465369431923859	1.1533042	1.0451243	-0.82399464	
1465369451912873	1.3570213	0.99056864	1.1685562	
1465369451912873	1.3570213	0.99056864	1.1685562	
1465369461892121	1.4613985	0.72433496	1.8675718	
1465369471901887	1.6571082	0.47419977	2.088892	
1465369481911652	1.9906992	0.40231848	1.7879696	
1465369501900666	2.1147902	0.82039165	0.9904127	
1465369501900666	2.1147902	0.82039165	0.9904127	
1465369511910432	2.09478	1.0353165	0.76303005	
1465369521889680	1.9882976	1.1456153	0.64155483	
1465369531868928	1.8518119	1.3368566	0.65656185	
1465369541878693	1.838414	1.4223762	0.6361942	
1465369551857941	1.8302075	1.4238224	0.53285885	
1465369561867707	1.5170503	1.429044	0.5473604	
1465369571877473	1.0442599	1.397394	0.67510223	
1465369581887238	0.8988385	1.2461638	0.956954	
1465369591866486	0.8791778	1.0768032	1.2931929	
1465369601876252	0.7317519	0.89462996	1.5100851	
1465369611855500	0.54949415	0.79537344	1.4552555	
1465369621865266	0.30523348	0.7005429	1.1840649	
1465369631844514	0.06437862	0.5895145	0.8449812	
1465369651864045	-0.92706954	0.41825294	0.51052856	
1465369651864045	-0.92706954	0.41825294	0.51052856	
1465369661873811	-1.2314273	0.21082568	0.514884	
1465369671883576	-1.3353597	0.02190733	0.61782265	
1465369681862824	-1.2192905	-0.25282407	0.9414749	
1465369691872590	-0.9844016	-0.5317128	1.3569632	
1465369701851838	-0.8198719	-0.81494856	1.5120993	
1465369711831086	-0.7120273	-1.0294018	1.4929943	
1465369721840852	-0.7626715	-1.1043661	1.623455	
1465369731820100	-0.9620917	-1.0478191	1.6673727	
1465369741829865	-1.2791986	-0.8166535	1.5530415	
1465369751839631	-1.7216759	-0.5029156	1.3918438	
1465369761818879	-2.217522	-0.22904658	1.166543	
1465369771828645	-2.511367	-0.13108134	0.7075453	
1465369781838410	-2.5383725	-0.117580414	0.12355423	
1465369791817658	-2.4480748	-0.11729407	-0.47765827	
1465369801827424	-2.2242599	-0.026426554	-0.9234905	
1465369811806672	-1.9772766	0.08819103	-1.2797232	
1465369821816438	-1.7307358	0.18350554	-1.6114616	
1465369831826203	-1.5686147	0.24163604	-1.8158455	
1465369841805451	-1.4624567	0.35384202	-1.9181747	
1465369851815217	-1.2833388	0.41051245	-2.0462074	
1465369861794465	-0.97688675	0.47700834	-2.1200047	
1465369871804230	-0.66376996	0.5128672	-2.0554705	
1465369881783479	-0.24357772	0.5399759	-1.9852686	
1465369891793244	0.055566072	0.5794852	-1.9847984	
1465369901803010	0.29248405	0.59615755	-2.1542082	
1465369911812775	0.48775697	0.6624887	-2.2359076	
1465369921792023	0.57615566	0.7798073	-2.1564884	
1465369931801789	0.6071696	0.86427903	-2.083475	
1465369941781037	0.59343076	0.9536376	-1.9375839	
1465369951790803	0.56252575	1.0518119	-1.8141251	
1465369961770051	0.5669191	1.0676637	-1.8323803	
1465369981789582	0.77975726	0.8892553	-2.0388956	
1465369981789582	0.77975726	0.8892553	-2.0388956	
1465369991768830	0.91287017	0.74530506	-2.0366173	
1465370001778596	0.88881993	0.6246846	-1.8032112	
1465370011757844	0.95962787	0.52610755	-1.3379955	
1465370021767609	1.1337454	0.46980667	-1.0147934	
1465370031777375	1.2645772	0.5499339	-0.7842865	
1465370041756623	1.343833	0.6497569	-0.5197859	
1465370051766389	1.4356322	0.6754315	-0.4972639	
1465370061745637	1.4925408	0.63330626	-0.4728794	
1465370071755402	1.3419168	0.64471984	-0.33251095	
1465370081765168	1.2735827	0.67616487	-0.11460972	
1465370091774934	1.3032424	0.67139935	0.20042324	
1465370101754182	1.2662482	0.53977394	0.65659714	
1465370111733430	1.1482625	0.271904	1.3378534	
1465370121743195	1.005954	0.12838507	2.2514744	
1465370131722443	0.8877804	0.0028159618	2.8080292	
1465370141732209	0.81499195	-0.2069614	2.550768	
1465370151741975	0.8756132	-0.34426808	1.7319117	
1465370161721223	1.0855551	-0.41873264	0.95440197	
1465370171700471	1.2003727	-0.45031428	0.53940296	
1465370181710236	1.1741188	-0.43660736	0.6192665	
1465370191720002	1.2201772	-0.38326645	1.2655516	
1465370201729768	1.2681618	-0.37967062	2.2951164	
1465370211709016	1.0452294	-0.4721949	3.4146433	
1465370221718781	0.5652461	-0.72250605	4.1995134	
1465370231728547	0.16482782	-0.968549	4.33959	
1465370241707795	-0.04843664	-1.1250837	3.9813948	
1465370251687043	-0.17775321	-1.2080989	3.4307442	
1465370261696809	-0.23254228	-1.1987245	2.7422361	
1465370281716340	-0.57325506	-1.157855	1.6206017	
1465370281716340	-0.57325506	-1.157855	1.6206017	
1465370291695588	-0.92925215	-1.0419316	1.5702047	
1465370301705354	-1.2386627	-0.85885906	1.5905476	
1465370311684602	-1.3686264	-0.8971405	1.3797894	
1465370321694367	-1.3577921	-0.9171004	1.2207203	
1465370331673615	-1.1557293	-0.66812134	1.1354294	
1465370341683381	-0.747113	-0.9165623	1.1903162	
1465370351662629	-0.68472004	-1.1793945	1.2007847	
1465370361672395	-0.6123674	-1.2212443	1.0662804	
1465370371682160	-0.29507828	-1.2538044	0.6076126	
1465370381661408	-0.11007476	-1.3094289	0.023459435	
1465370391671174	-0.12267494	-1.2979	-0.5940151	
1465370401650422	-0.33233118	-0.946857	-1.2459402	
1465370411660188	-0.6885996	-0.5463793	-1.6741228	
1465370421669953	-0.8971112	-0.41541028	-1.8409481	
1465370431649201	-0.90299606	-0.36608362	-1.8657675	
1465370441658967	-0.69126105	-0.2420609	-2.035676	
1465370451668732	-0.69918513	0.31210017	-3.4573345	
1465370471657746	-0.4401965	0.5059483	-4.1100893	
1465370471657746	-0.4401965	0.5059483	-4.1100893	
1465370481667512	-0.9377043	-0.044342756	-2.1226263	
1465370491646760	-0.85682106	0.32926965	-1.7663136	
1465370501656525	-0.39464235	1.0485663	-1.4706011	
1465370511635773	-0.45277023	1.4462614	-1.1791134	
1465370521645539	-1.0167952	1.4566782	-0.8673773	
1465370531624787	-1.223336	1.2267785	-0.75677204	
1465370541634553	-0.8122406	0.7845433	-0.36279774	
1465370551613801	0.058167934	0.5148821	0.41067982	
1465370561623566	0.91222763	0.00910306	0.94332314	
1465370571633332	0.8181889	-0.511683	0.9764147	
1465370581612580	0.013519764	-0.25814557	0.99452496	
1465370601601594	0.008390427	0.028465033	0.11069775	
1465370601601594	0.008390427	0.028465033	0.11069775	
1465370611611359	0.07509327	0.34607577	-0.02272892	
1465370621590607	0.26232052	0.88011384	0.31664276	
1465370631600373	0.5289078	1.0330861	0.8126173	
1465370641610139	0.5939565	0.7755637	1.1462345	
1465370651589387	0.3367777	0.24638724	1.1969538	
1465370661599152	0.02969122	0.046133995	1.0352001	
1465370671608918	-0.18698883	0.17744613	0.9201822	
1465370691597932	-0.9004283	0.7835367	2.1035233	
1465370691597932	-0.9004283	0.7835367	2.1035233	
1465370701607697	-1.524564	1.2374377	2.8864565	
1465370711617463	-2.044107	0.97180414	3.1792336	
1465370721596711	-2.054783	0.25565243	3.183341	
1465370731575959	-1.5922995	-0.078840494	2.8513384	
1465370741585725	-1.1671326	-1.6498566E-4	2.389021	
1465370751595490	-1.0642915	-0.03996706	1.7186308	
1465370761574738	-0.9188664	-0.10593891	0.6457405	
1465370781563752	-0.6185701	0.38714862	-1.2954407	
1465370781563752	-0.6185701	0.38714862	-1.2954407	
1465370791573518	-0.4594915	0.97638917	-1.5126333	
1465370801552766	-0.3606739	1.3045323	-1.6631508	
1465370811532014	0.59091616	0.34042573	-1.7230244	
1465370821541779	-0.22506094	0.28306913	-1.2553825	
1465370831551545	-1.3223784	0.5798824	-0.42632484	
1465370841561311	-1.6706843	0.5798824	-0.42632484	
1465370851540559	-1.6983237	0.5601077	0.014458656	
1465370861519807	-1.7253606	0.51159716	0.52943707	
1465370871529572	-1.4796164	0.45858884	0.5428648	
1465370881508820	-1.209846	0.20757985	-0.09789181	
1465370891518586	-1.4450166	-0.10523629	-1.0181971	
1465370901528352	-1.2403419	-0.17903328	-1.7629757	
1465370911507600	-1.4352584	-0.18623853	-2.1694384	
1465370921517365	-1.4352584	-0.18623853	-2.1694384	
1465370931527131	-1.7897189	-0.1445843	-2.1438284	
1465370941506379	-1.4365947	-0.005233288	-1.8412018	
1465370951516145	-1.1609809	0.028687596	-1.5335789	
1465370961495393	-0.74114156	0.09086573	-1.3988714	
1465370971505158	0.0666976	0.28567111	-0.92923164	
1465370981484406	0.67395234	0.5327091	-0.5141487	
1465370991494172	0.3292818	0.5807494	-0.5636616	
1465371001503938	0.6692591	0.40183592	-0.30025673	
1465371011483186	0.82809687	0.30530488	-0.48204136	
1465371031472199	0.84639263	-0.07677007	-0.7920141	
1465371031472199	0.84639263	-0.07677007	-0.7920141	
1465371041481965	0.49366784	-0.2292875	-0.86070824	
1465371051491730	0.5466752	-0.33455062	-0.9058676	
1465371061470979	0.52937007	-0.30603838	-1.2022648	
1465371081459992	0.28939652	-0.14429021	-1.9095545	
1465371081459992	0.28939652	-0.14429021	-1.9095545	
1465371091469758	0.42820668	-0.22446322	-1.8050098	
1465371101449006	0.58992505	-0.3081386	-1.7514563	
1465371111458771	0.6187391	-0.3422075	-1.6279736	
1465371121468537	0.20265841	-0.4127047	-1.6609764	
1465371131447785	1.2098558	-0.45570672	-1.2945032	
1465371141457551	10.729429	0.27798906	2.6949196	
1465371151467316	15.023845	1.79223	4.8786345	
1465371161446564	3.190494	1.2963616	1.8622894	
1465371171456330	-1.5616302	0.0945707	1.0193195	
1465371181435578	0.17699003	-0.20324746	4.5072565	
1465371191445344	0.7369485	-0.30589354	5.4688215	
1465371201455109	-0.23453689	-0.57532674	5.498413	
1465371211434357	-1.2759862	-0.7209792	5.322564	
1465371221444123	-1.654212	-0.618942	4.7756214	
1465371231453889	-1.1351893	-0.4445437	3.4701233	
1465371251473420	0.32087064	-0.16050854	0.4996872	
1465371251473420	0.32087064	-0.16050854	0.4996872	
1465371261452668	0.9098356	-0.06627157	-0.657506	
1465371271462434	0.6311021	-0.23547888	-1.3507395	
1465371281441682	0.27956438	-0.62317574	-1.2086592	
1465371291420930	0.20210505	-0.9906022	-0.95673275	
1465371301430695	0.34156418	-0.8683381	-0.70658684	
1465371311440461	0.0484519	-0.80600095	-0.25725937	
1465371321450227	-0.1954534	-0.777764	0.20433998	
1465371331429475	-0.49478984	-0.48705894	0.7316952	
1465371341439240	-0.41756368	-0.44787246	0.90581036	
1465371351418488	-0.18637753	-0.5896584	0.75126076	
1465371361428254	-0.19867516	-0.609362	0.38879967	
1465371371407502	-0.35517144	-0.3255831	-0.098368645	
1465371381417268	-0.019790888	-0.11261785	-0.71477795	
1465371401436799	0.20426607	-0.14609039	-2.0247278	
1465371401436799	0.20426607	-0.14609039	-2.0247278	
1465371411416047	0.037577152	0.08676243	-2.1598024	
1465371421395295	0.23221827	0.28693128	-1.9665775	
1465371431405061	0.42993236	0.351161	-2.3570528	
1465371441384309	0.47888803	0.34569913	-2.5034704	
1465371451363557	0.8666842	0.27677447	-2.7139235	
1465371461373322	1.0071995	0.055402398	-2.7075586	
1465371471383088	0.9788375	-0.06594032	-2.432847	
1465371481392854	1.0317299	-0.04551792	-1.9532032	
1465371491402619	0.941169	-0.055863917	-1.4539185	
1465371501381867	0.8807628	-0.021407306	-1.164814	
1465371511391633	0.86011744	0.027514577	-1.0503092	
1465371521370881	0.9247925	-0.014033794	-1.0998745	
1465371531380646	1.0331697	-0.0815146	-1.0913668	
1465371541390412	1.0662344	-0.1595912	-0.91042614	
1465371551369660	0.9247031	-0.2247344	-0.7182932	
1465371561379426	0.65075874	-0.14215845	-0.484066	
1465371571389191	0.5659604	-0.09673694	-0.25337315	
1465371581368439	0.67627525	-0.05687493	-0.18170547	
1465371591347688	0.59172153	-0.08796677	-0.234869	
1465371601357453	0.6998012	-0.27540925	-0.2826662	
1465371611336701	1.1977165	-0.26963925	-0.19648647	
1465371621346467	1.1017518	-0.13395172	0.13572884	
1465371631356232	0.9549134	-0.013715252	0.6469965	
1465371641365998	0.68715596	0.28184274	1.2306776	
1465371651375764	0.3920076	0.54140675	1.9517031	
1465371661355012	0.23459482	0.62046325	2.6000414	
1465371671334260	0.3655944	0.51155037	2.6727467	
1465371681344025	0.6665461	0.3540359	2.335165	
1465371691353791	1.0666308	0.22026214	2.2271976	
1465371701333039	1.5087745	0.18906331	2.4792566	
1465371711342805	1.6757157	0.36471897	3.1483698	
1465371721322053	1.5979168	0.7382139	3.6801615	
1465371731331818	1.1747388	1.2293913	4.1153183	
1465371741341584	0.53763676	1.5812912	4.679083	
1465371751320832	0.13276267	1.6372682	4.507127	
1465371761330598	-0.121554494	1.3738205	3.7395449	
1465371771340363	-0.15840721	0.9936993	2.682105	
1465371781319611	0.102201104	0.6538784	1.494626	
1465371791329377	0.10667837	0.41349006	0.5995197	
1465371811318391	-0.037987113	0.35183215	0.27157497	
1465371811318391	-0.037987113	0.35183215	0.27157497	
1465371821297639	-0.47888267	0.47711033	0.54276943	
1465371831307404	-0.68401	0.69168156	0.82797337	
1465371841317170	-0.9645113	0.8032254	0.61887074	
1465371861306184	-0.9134606	0.64226365	-0.21977043	
1465371861306184	-0.9134606	0.64226365	-0.21977043	
1465371871285432	-0.79930186	0.56364423	-0.8064537	
1465371881295197	-0.7109492	0.42941356	-1.259408	
1465371891304963	-0.7377199	0.33747578	-1.578907	
1465371911263459	-0.6182761	0.17695147	-2.7292404	
1465371911263459	-0.6182761	0.17695147	-2.7292404	
1465371921273225	-0.51407385	0.06109011	-3.0168028	
1465371941262238	-0.40360975	-0.099024	-2.8824387	
1465371941262238	-0.40360975	-0.099024	-2.8824387	
1465371951272004	-0.32499027	-0.1966098	-2.9624434	
1465371971261018	-0.028373003	-0.3205673	-3.3398533	
1465371971261018	-0.028373003	-0.3205673	-3.3398533	
1465371981270783	0.18510127	-0.37906885	-3.4459743	
1465371991280549	0.13543463	-0.2909364	-3.2215023	
1465372001290314	0.28054166	-0.14795578	-2.8171825	
1465372011269563	0.618474	-0.056711435	-2.5448227	
1465372021279328	0.7678437	0.022117257	-2.301756	
1465372031258576	0.9281204	0.11216736	-1.9333706	
1465372051247590	1.0719621	0.2550769	-1.1596079	
1465372051247590	1.0719621	0.2550769	-1.1596079	
1465372061257355	1.0081766	0.36120242	-0.66985893	
1465372071267121	1.0814784	0.42552835	-0.23325443	
1465372081246369	1.2700543	0.42552835	-0.23325443	
1465372091225617	1.4298756	0.32337207	-0.1219244	
1465372101204865	1.5292952	0.24391758	-0.087534904	
1465372111214631	1.6493998	0.14946711	-0.10765076	
1465372121224396	1.8428919	0.025624752	-0.050611496	
1465372131234162	1.9573617	0.087748766	-0.048142433	
1465372141243928	1.9513547	0.10994983	0.14735699	
1465372151223176	2.1168473	0.16205817	0.48202133	
1465372161202424	2.1305618	0.18719697	0.7329178	
1465372171181672	2.0740805	0.19154513	1.1012335	
1465372181191438	1.9790373	0.3329299	1.3755026	
1465372191201203	1.826298	0.43988448	1.8262196	
1465372201180451	1.7727892	0.43827397	2.3155603	
1465372211190217	1.8817935	0.49462306	2.2938843	
1465372221169465	1.9818449	0.48864853	2.0678854	
1465372231179230	1.9821854	0.52191687	1.8480577	
1465372241188996	1.960783	0.5944952	1.6842794	
1465372261178010	1.7064707	0.83092153	2.3973618	
1465372261178010	1.7064707	0.83092153	2.3973618	
1465372271157258	1.0251484	0.9852786	3.168993	
1465372281167023	0.3104838	1.0973121	3.8573475	
1465372291176789	0.01158452	0.8772944	3.7183094	
1465372311165803	0.3112235	0.16099	1.906826	
1465372311165803	0.3112235	0.16099	1.906826	
1465372321175568	0.56523895	-0.24177623	0.9452524	
1465372331154816	0.6649015	-0.50247395	0.3492937	
1465372341164582	0.51320386	-0.55686915	0.14094257	
1465372361153596	0.07203269	-0.3026303	0.39704514	
1465372361153596	0.07203269	-0.3026303	0.39704514	
1465372371163361	-0.08940816	-0.26358068	0.38062572	
1465372381173127	-0.17094684	-0.26048136	0.22233868	
1465372391182893	-0.19603443	-0.32295585	0.11975384	
1465372411141389	-0.55630016	-0.36698914	0.05471039	
1465372411141389	-0.55630016	-0.36698914	0.05471039	
1465372421151154	-0.84469676	-0.2953037	-0.03276825	
1465372431160920	-0.9872856	-0.28165352	-0.27003288	
1465372441170686	-1.0723653	-0.33363485	-0.6820612	
1465372451149934	-1.0347822	-0.47586226	-1.1969976	
1465372461129182	-0.8980634	-0.7080462	-1.8395061	
1465372471138947	-0.74441504	-0.9580895	-2.4129353	
1465372481148713	-0.6490004	-1.1361972	-2.857648	
1465372491127961	-0.61504745	-1.1945976	-3.0604649	
1465372501137727	-0.6475978	-1.2113199	-3.0928087	
1465372511116975	-0.6129334	-1.1378844	-3.0928087	
1465372521126740	-0.60961366	-1.0986695	-2.8534918	
1465372531136506	-0.6706996	-1.0587544	-2.5313854	
1465372541146271	-0.7406719	-0.9619831	-2.1661615	
1465372561104768	-0.7877562	-0.79648054	-1.7033234	
1465372561104768	-0.7877562	-0.79648054	-1.7033234	
1465372571114533	-0.80187154	-0.71838343	-1.4247389	
1465372581124299	-0.86007833	-0.65724814	-1.2309856	
1465372591103547	-0.8828919	-0.6029637	-1.2078781	
1465372611123078	-0.7187264	-0.5282948	-1.3148975	
1465372611123078	-0.7187264	-0.5282948	-1.3148975	
1465372621102326	-0.5478871	-0.55689764	-1.3274784	
1465372631112092	-0.42402244	-0.5499551	-1.2205706	
1465372641121857	-0.3134935	-0.47155547	-0.9904642	
1465372661110871	-0.10010934	-0.28453064	-0.2486	
1465372661110871	-0.10010934	-0.28453064	-0.2486	
1465372671090119	9.10759E-5	-0.10849142	0.20290375	
1465372681099885	0.06858611	0.017785072	0.67234135	
1465372691109650	0.19804859	0.07430172	1.0198231	
1465372711119761	0.5915742	0.059256792	1.5127878	
1465372711119761	0.5915742	0.059256792	1.5127878	
1465372721099009	1.0075753	0.0021948814	1.6667309	
1465372731078257	1.4143598	0.05705571	1.8934879	
1465372741088023	1.5971334	0.29514897	2.2636251	
1465372761107554	1.4591922	0.88311493	3.6278334	
1465372761107554	1.4591922	0.88311493	3.6278334	
1465372771086802	1.2028706	1.2281368	4.4718122	
1465372781096568	0.894068	1.5718622	5.1956406	
1465372791075816	0.549873	1.7769725	5.486351	
1465372811064829	0.3608024	1.4979292	4.256941	
1465372811064829	0.3608024	1.4979292	4.256941	
1465372821074595	0.5831628	1.1549739	3.2168846	
1465372831084361	0.74289703	0.85872245	2.3257284	
1465372841063609	0.6616856	0.6463032	1.5441456	
1465372861083140	0.36594343	0.5851499	0.70184135	
1465372861083140	0.36594343	0.5851499	0.70184135	
1465372871092906	0.14376056	0.6422366	0.37772274	
1465372881072154	-0.07478285	0.73199534	0.07878971	
1465372891081919	-0.23283303	0.8332398	-0.226017	
1465372911040415	-0.5125866	0.9070177	-0.6986799	
1465372911040415	-0.5125866	0.9070177	-0.6986799	
1465372921019663	-0.60944176	0.8959434	-0.92461395	
1465372931029429	-0.67213535	0.7743529	-1.2290926	
1465372941039195	-0.64021814	0.5846956	-1.6452084	
1465372961028208	-0.7092464	0.21160185	-2.6117163	
1465372961028208	-0.7092464	0.21160185	-2.6117163	
1465372971037974	-0.81074727	0.16954911	-3.0638924	
1465372991057505	-0.91518986	0.03196144	-3.6751385	
1465372991057505	-0.91518986	0.03196144	-3.6751385	
1465373001036753	-0.8206947	-0.119733214	-4.0230255	
1465373011046519	-0.65544343	-0.33536696	-4.3701487	
1465373021025767	-0.40682125	-0.57079554	-4.622898	
1465373031005015	-0.25535405	-0.74395025	-4.4821024	
1465373041014781	-0.17108369	-0.800285	-3.93227	
1465373061003794	-0.16340554	-0.6473236	-2.6429224	
1465373061003794	-0.16340554	-0.6473236	-2.6429224	
1465373071013560	-0.07327843	-0.56836724	-2.0808954	
1465373081023326	0.093197346	-0.5738951	-1.643034	
1465373091002574	0.2862419	-0.5559814	-1.3690128	
1465373110991587	0.6262778	-0.4031129	-1.1441946	
1465373110991587	0.6262778	-0.4031129	-1.1441946	
1465373121001353	0.771858	-0.30131137	-1.1139317	
1465373131011118	0.98262393	-0.17345083	-1.0802946	
1465373140990367	1.0752444	-0.06452489	-0.9704037	
1465373160979380	1.2353003	0.23358345	-0.5064373	
1465373160979380	1.2353003	0.23358345	-0.5064373	
1465373170989146	1.2129465	0.36129165	-0.23400974	
1465373180998911	1.3666055	0.42254257	0.107852936	
1465373190978160	1.5080078	0.41257143	0.50003815	
1465373210967173	1.7543936	0.27409458	1.3607197	
1465373210967173	1.7543936	0.27409458	1.3607197	
1465373220976939	1.7575521	0.28051114	1.7783775	
1465373230986704	1.7318604	0.32472217	2.191823	
1465373240965952	1.7412444	0.3838203	2.5227718	
1465373260985484	1.7481959	0.40943682	2.7645712	
1465373260985484	1.7481959	0.40943682	2.7645712	
1465373270964732	1.9495229	0.36086762	2.7370014	
1465373280974497	1.9682146	0.36409688	2.7800426	
1465373290984263	1.9218726	0.4749198	2.923997	
1465373310942759	2.2114887	0.84128106	3.5074244	
1465373310942759	2.2114887	0.84128106	3.5074244	
1465373320952525	1.9846312	1.029585	3.767994	
1465373330931773	1.5962795	1.2935705	3.8492193	
1465373340941538	0.97792435	1.5159745	3.7920961	
1465373360930552	-0.0132158995	1.1563492	2.6689415	
1465373360930552	-0.0132158995	1.1563492	2.6689415	
1465373370909800	-0.21633935	0.58768344	1.5562687	
1465373380919566	-0.37776744	-0.0115430355	0.4577055	
1465373390929331	-0.38401687	-0.61294913	-0.4423771	
1465373400939097	-0.26526856	-1.1204603	-1.0722532	
1465373410918345	-0.371202	-1.433061	-1.2812891	
1465373420928111	-0.77186	-1.5919107	-1.1054764	
1465373430937876	-1.0716012	-1.5590432	-0.6268873	
1465373440917124	-1.4676446	-1.4170922	-0.037096977	
1465373450926890	-1.8975344	-1.1962057	0.54050446	
1465373460936656	-2.2542462	-0.98957443	0.8651228	
1465373470946421	-2.3407688	-0.8848214	0.8386612	
1465373480925669	-2.3309832	-0.8611945	0.51696205	
1465373490904917	-2.2725294	-0.8498833	0.16450405	
1465373500914683	-2.2526522	-0.7932904	-0.26318455	
1465373510924449	-2.0914662	-0.73657036	-0.8479967	
1465373520934214	-1.8232172	-0.7201768	-1.559288	
1465373530913462	-1.5710771	-0.76744854	-2.049016	
1465373540892710	-1.3243363	-0.8361715	-2.3952103	
1465373550902476	-1.1638315	-0.91121423	-2.69987	
1465373560881724	-0.99064565	-0.9712262	-2.9228077	
1465373570891490	-0.8872323	-0.98371446	-3.0758314	
1465373580901255	-0.75923276	-1.0209965	-3.1306992	
1465373590880503	-0.69330907	-1.0201517	-3.0639486	
1465373600890269	-0.57885027	-1.0293584	-2.875657	
1465373610869517	-0.44399953	-1.0206621	-2.5825396	
1465373620879283	-0.43933678	-1.0201851	-2.274951	
1465373630858531	-0.4470513	-0.98483026	-1.8586702	
1465373640868296	-0.5172398	-0.9163679	-1.439786	
1465373650878062	-0.6425648	-0.78674674	-1.075921	
1465373660887827	-0.71930003	-0.728042	-0.8513651	
1465373670867076	-0.7456658	-0.6657394	-0.8465128	
1465373680876841	-0.69913316	-0.67149913	-1.0329313	
1465373690886607	-0.62946105	-0.6986835	-1.3207722	
1465373700865855	-0.5941119	-0.7128843	-1.592288	
1465373710845103	-0.5000851	-0.7003516	-1.8135042	
1465373720854868	-0.37771177	-0.721007	-1.9859076	
1465373730864634	-0.2903707	-0.72519076	-2.0721416	
1465373740843882	-0.22194242	-0.68615866	-2.0564394	
1465373750853648	-0.12331104	-0.670305	-2.0160437	
1465373760832896	-0.0024621487	-0.67657626	-1.8991165	
1465373770842661	0.17856431	-0.6936548	-1.7080812	
1465373790831675	0.49518633	-0.7203846	-0.75502205	
1465373790831675	0.49518633	-0.7203846	-0.75502205	
1465373800841441	0.48186994	-0.6208668	-0.12602234	
1465373810851206	0.30543685	-0.41474295	0.44652557	
1465373820830454	0.28157878	-0.22613657	0.82158184	
1465373830840220	0.42547965	-0.13214874	0.85513496	
1465373840849986	0.47947192	-0.06493771	0.7574444	
1465373850829234	0.51165366	0.026898026	0.7053404	
1465373860808482	0.4747796	0.16573215	0.7858343	
1465373870818247	0.4987452	0.50812304	0.91725445	
1465373880797495	0.5184865	0.50812304	0.91725445	
1465373890807261	0.8209338	0.43387556	0.93013763	
1465373900817027	1.2147532	0.40189493	0.93604183	
1465373910796275	1.3185179	0.64016354	1.1560221	
1465373930785288	1.3554881	1.1189972	1.9313097	
1465373930785288	1.3554881	1.1189972	1.9313097	
1465373940795054	1.7165143	1.1869031	2.2758913	
1465373950804820	2.3877838	1.2148438	2.4059677	
1465373960784068	2.5845504	1.50284	2.6313953	
1465373970793833	2.2457016	2.1182513	3.175085	
1465373980773081	1.6737585	2.511499	4.531143	
1465373990782847	0.7452071	2.8014734	5.7717886	
1465374000762095	-0.4000082	3.2589178	6.4571075	
1465374010741343	-1.1178527	3.4099686	6.2854147	
1465374030760874	-0.7910547	2.525216	3.5550966	
1465374030760874	-0.7910547	2.525216	3.5550966	
1465374040770640	-0.10138726	1.6830994	1.902278	
1465374050749888	0.57197165	0.94989645	0.6224766	
1465374060759654	0.92028785	0.57048965	-0.24383545	
1465374080779185	0.68069243	0.6690222	-0.9566946	
1465374080779185	0.68069243	0.6690222	-0.9566946	
1465374090758433	0.5379143	0.7347727	-1.1094961	
1465374100737681	0.6657033	0.65866286	-1.4219446	
1465374110747447	0.9836856	0.4748255	-1.9278183	
1465374130736460	1.5768902	0.1277411	-2.9041615	
1465374130736460	1.5768902	0.1277411	-2.9041615	
1465374140746226	1.7194488	0.12110245	-3.037363	
1465374150755992	1.6780171	0.2339834	-2.8256578	
1465374160765757	1.5898665	0.38070118	-2.4700737	
1465374180724253	1.4476995	0.64066005	-2.3320274	
1465374180724253	1.4476995	0.64066005	-2.3320274	
1465374190734019	1.4910173	0.60517836	-2.6111813	
1465374200743785	1.7103989	0.46303952	-3.0601912	
1465374210723033	1.8762835	0.20057762	-3.3391037	
1465374220732798	1.9810748	-0.015260935	-3.3452702	
1465374230742564	2.0144768	-0.19995093	-3.1301613	
1465374240721812	1.9559165	-0.31455088	-2.7697945	
1465374250731577	1.9588581	-0.39851928	-2.36588	
1465374260710826	1.8850547	-0.47360682	-1.8458271	
1465374280730357	1.8129276	-0.52219754	-0.46373653	
1465374280730357	1.8129276	-0.52219754	-0.46373653	
1465374290709605	1.7864407	-0.47749633	0.16631794	
1465374300719370	1.6663339	-0.28358322	0.8038769	
1465374310698618	1.4478076	-0.10625446	1.3896875	
1465374330718150	1.1907618	0.4547469	2.01721	
1465374330718150	1.1907618	0.4547469	2.01721	
1465374340697398	1.1009543	0.6774508	2.032609	
1465374350676646	0.92354727	0.85387087	1.9108696	
1465374360686411	0.8593135	0.964334	1.7957449	
1465374380675425	0.97540474	1.1478208	1.6648798	
1465374380675425	0.97540474	1.1478208	1.6648798	
1465374400694956	0.4084289	1.4257607	2.4972782	
1465374400694956	0.4084289	1.4257607	2.4972782	
1465374410674204	0.021515131	1.5814303	3.1367674	
1465374420683970	-0.49982	1.6778524	3.6503687	
1465374430663218	-0.9375174	1.5843145	3.8576527	
1465374440672984	-1.2265034	1.370683	3.797906	
1465374450682749	-1.302042	1.1159911	3.2908363	
1465374470671763	-0.99318933	0.46739835	1.8030558	
1465374470671763	-0.99318933	0.46739835	1.8030558	
1465374480651011	-0.7764931	0.1823374	1.2429113	
1465374500670542	-0.8042538	0.047302783	0.90851307	
1465374500670542	-0.8042538	0.047302783	0.90851307	
1465374520659556	-1.1667297	0.33275938	1.04986	
1465374520659556	-1.1667297	0.33275938	1.04986	
1465374530638804	-1.2500043	0.37610996	0.9288006	
1465374550658335	-1.2086005	0.25869954	0.05601597	
1465374550658335	-1.2086005	0.25869954	0.05601597	
1465374560637583	-1.0207279	0.13413674	-0.53327656	
1465374570647349	-0.80283403	-0.010699689	-1.2017069	
1465374580657115	-0.59272146	-0.13855237	-1.7964678	
1465374590636363	-0.4702549	-0.18749422	-2.2565432	
1465374620635142	-0.23443031	-0.28966838	-3.3524055	
1465374620635142	-0.23443031	-0.28966838	-3.3524055	
1465374620635142	-0.23443031	-0.28966838	-3.3524055	
1465374630644908	-0.13595557	-0.32788903	-3.4730806	
1465374650603404	0.11755967	-0.4918006	-3.353675	
1465374650603404	0.11755967	-0.4918006	-3.353675	
1465374670622935	0.32326436	-0.5851261	-2.820672	
1465374670622935	0.32326436	-0.5851261	-2.820672	
1465374680602183	0.39596248	-0.60352886	-2.3627062	
1465374700621714	0.23975325	-0.42955446	-1.3791876	
1465374700621714	0.23975325	-0.42955446	-1.3791876	
1465374710631480	0.08424902	-0.35094225	-0.6253128	
1465374720610728	-0.025264263	-0.25761664	0.016872406	
1465374730620493	-0.09286928	-0.20949209	0.26096058	
1465374750609507	0.09527874	-0.2372657	-0.17746449	
1465374750609507	0.09527874	-0.2372657	-0.17746449	
1465374760619273	0.20406342	-0.25638342	-0.47791862	
1465374770598521	0.30723548	-0.123007536	-0.6784363	
1465374780577769	0.3265903	-0.03175342	-0.6357155	
1465374800566783	0.30187178	0.16844165	0.10958099	
1465374800566783	0.30187178	0.16844165	0.10958099	
1465374810576548	0.35651422	0.21549189	0.63904285	
1465374820586314	0.41639733	0.27571535	1.1925697	
1465374830565562	0.49505734	0.4005649	1.7001467	
1465374850585093	0.39522147	0.75170064	2.5228186	
1465374850585093	0.39522147	0.75170064	2.5228186	
1465374860564341	0.48557186	0.88933146	2.5515203	
1465374870574107	0.63817406	0.9835917	2.2370272	
1465374880583872	0.9012368	1.0377849	1.8775177	
1465374900572886	1.0474629	1.2075093	1.6848803	
1465374900572886	1.0474629	1.2075093	1.6848803	
1465374910582652	0.9179661	1.3950502	1.776164	
1465374920561900	0.756758	1.5245342	1.983613	
1465374930541148	0.44638205	1.6245391	2.2430077	
1465374950530161	-0.50697374	1.8468145	2.6834898	
1465374950530161	-0.50697374	1.8468145	2.6834898	
1465374960539927	-0.7313504	1.7370125	2.478263	
1465374970549693	-0.66791296	1.4916058	2.0060825	
1465374980528941	-0.44873405	1.2308999	1.5547867	
1465375000517954	-0.30728436	0.9024621	0.8533249	
1465375000517954	-0.30728436	0.9024621	0.8533249	
1465375010527720	-0.33631563	0.8801997	0.53070545	
1465375020506968	-0.4486649	0.954126	0.16584396	
1465375030516734	-0.53681874	0.99312294	-0.19612408	
1465375050536265	-0.53152466	0.8957599	-1.1310396	
1465375050536265	-0.53152466	0.8957599	-1.1310396	
1465375070494761	-0.30922198	0.7154395	-1.8823738	
1465375070494761	-0.30922198	0.7154395	-1.8823738	
1465375080504527	-0.20170975	0.6521354	-2.007163	
1465375100493540	-0.074094534	0.632593	-2.1294289	
1465375100493540	-0.074094534	0.632593	-2.1294289	
1465375110503306	-0.10914159	0.66703844	-2.2010279	
1465375120513072	-0.15122867	0.7787526	-2.3530197	
1465375130492320	-0.18581653	0.9008437	-2.5252504	
1465375150481333	0.14784169	0.89689773	-2.9846907	
1465375150481333	0.14784169	0.89689773	-2.9846907	
1465375160491099	0.3940506	0.80502236	-3.228198	
1465375170470347	0.71429276	0.68807065	-3.3119898	
1465375180480113	0.95014906	0.5401417	-3.2567453	
1465375190489878	1.0944366	0.43964434	-2.9444695	
1465375200469126	1.2094827	0.38179386	-2.4663181	
1465375210478892	1.2463958	0.34623647	-1.9594336	
1465375220458140	1.2564776	0.36057204	-1.5085726	
1465375230467906	1.2459698	0.33773524	-1.0467129	
1465375250487437	1.2351162	0.45883483	-0.5315647	
1465375250487437	1.2351162	0.45883483	-0.5315647	
1465375260497202	1.2331457	0.43465126	-0.21496487	
1465375270476451	1.3163421	0.34476608	-0.19629955	
1465375280455699	1.4754479	0.19910777	-0.4609642	
1465375300444712	1.9004788	0.03855282	-0.8337803	
1465375300444712	1.9004788	0.03855282	-0.8337803	
1465375310454478	1.9890282	0.0894649	-0.503808	
1465375320464243	1.7512593	0.21963078	0.13932323	
1465375330443492	1.5478532	0.3139106	0.91460705	
1465375340453257	1.274307	0.37400317	1.6956453	
1465375350432505	1.0936129	0.3897962	2.3921156	
1465375360442271	1.0287688	0.38575238	2.7659082	
1465375370452036	0.9595938	0.39770806	2.7976265	
1465375380431285	0.9249103	0.4733622	2.6878052	
1465375400450816	0.9673035	0.6456623	1.8613968	
1465375400450816	0.9673035	0.6456623	1.8613968	
1465375410430064	1.0864098	0.66663	1.3010101	
1465375420439829	1.1495888	0.6920973	0.95301247	
1465375430449595	1.1014371	0.65331566	0.94085217	
1465375450438609	1.1732883	0.30847514	1.2099886	
1465375450438609	1.1732883	0.30847514	1.2099886	
1465375460417857	0.97399426	0.17129728	1.5594769	
1465375470397105	0.78754973	0.023540646	1.9267435	
1465375480406870	0.5798023	-0.02749142	2.1142197	
1465375490416636	0.43243742	-0.09522873	2.1678667	
1465375500395884	0.22002244	-0.1383417	2.1055593	
1465375510405650	0.04839754	-0.14305326	1.8730621	
1465375530394663	-0.21197009	-0.07600781	0.9123659	
1465375530394663	-0.21197009	-0.07600781	0.9123659	
1465375540404429	-0.32416344	-0.021639168	0.3905115	
1465375550383677	-0.2931404	-0.048282504	-0.039595604	
1465375560393443	-0.24901795	-0.10032296	-0.35014343	
1465375570403208	-0.28083014	-0.18644404	-0.5754461	
1465375580412974	-0.3560617	-0.21107846	-0.6505327	
1465375590392222	-0.5421288	-0.14782459	-0.46943474	
1465375600401988	-0.78695464	-0.060328484	-0.13146687	
1465375610381236	-0.95500493	-0.0068870783	-0.03300953	
1465375620391001	-0.9648237	0.021431446	-0.13590908	
1465375630400767	-0.9140773	0.0093278885	-0.3241825	
1465375650359263	-0.6547692	-0.05466336	-1.1281767	
1465375650359263	-0.6547692	-0.05466336	-1.1281767	
1465375660369029	-0.5236676	-0.10052532	-1.474824	
1465375670348277	-0.40861034	-0.12842411	-1.735014	
1465375680358042	-0.3503666	-0.13258183	-1.9475794	
1465375690367808	-0.2191205	-0.17642456	-2.0380564	
1465375700377574	-0.076862335	-0.22359264	-2.0711126	
1465375710356822	0.081468344	-0.26690555	-2.106433	
1465375720336070	0.19356298	-0.34826696	-2.117589	
1465375730345835	0.31660318	-0.44223934	-2.107522	
1465375750334849	0.3523562	-0.48229355	-1.5319595	
1465375750334849	0.3523562	-0.48229355	-1.5319595	
1465375760344615	0.24944258	-0.43409872	-1.1308889	
1465375770323863	0.14211845	-0.39409143	-0.7743187	
1465375780333628	0.12994671	-0.38391393	-0.48512363	
1465375790343394	0.19222045	-0.4693424	-0.45382977	
1465375810332408	0.3336718	-0.6138695	-0.5032129	
1465375810332408	0.3336718	-0.6138695	-0.5032129	
1465375820311656	0.37626052	-0.5822462	-0.57293224	
1465375830321421	0.36583924	-0.47861093	-0.6224146	
1465375840300669	0.39901018	-0.38441783	-0.59320354	
1465375850310435	0.3928957	-0.23143727	-0.45631886	
1465375860320201	0.43148112	-0.17934948	-0.24967098	
1465375870299449	0.3618796	-0.13125157	0.1284647	
1465375880309214	0.24401331	-0.07336235	0.4995556	
1465375890318980	0.19485474	0.008145332	0.86946964	
1465375910307993	0.21259737	0.06492758	1.6006794	
1465375910307993	0.21259737	0.06492758	1.6006794	
1465375920287242	0.346833	0.06891984	1.847167	
1465375930266490	0.46023417	0.1413883	1.9120998	
1465375940276255	0.59709835	0.24797344	1.8049526	
1465375950286021	0.6763251	0.3929103	1.7831135	
1465375960295786	0.65033865	0.5143121	1.9636402	
1465375970275035	0.6498103	0.7101271	2.1570797	
1465375980284800	0.5574093	0.9092235	2.2199297	
1465375990294566	0.44215846	0.9423949	1.9588509	
1465376000304331	0.5159352	0.90995884	1.4636593	
1465376010283579	0.6091697	0.7683743	1.0075092	
1465376030272593	0.658252	0.5278941	0.7208061	
1465376030272593	0.658252	0.5278941	0.7208061	
1465376040282359	0.5437043	0.5970405	0.8685818	
1465376050261607	0.34669065	0.722225	0.84511566	
1465376060271372	0.18001485	0.820045	0.70278263	
1465376070281138	0.075060844	0.8032301	0.40655708	
1465376080260386	0.14080691	0.7709102	-0.05088997	
1465376090239634	0.18200374	0.70650357	-0.47739697	
1465376100249400	0.20308709	0.64526075	-0.9053316	
1465376110259165	0.15987873	0.6316131	-1.1733074	
1465376120268931	0.10909796	0.62794083	-1.1890202	
1465376130248179	0.009018421	0.6832274	-1.1031694	
1465376140227427	-0.12960982	0.71717227	-1.0391436	
1465376150237193	-0.23698878	0.7069922	-1.0696812	
1465376160246958	-0.32338428	0.62672627	-1.1698961	
1465376170226206	-0.3306756	0.5640303	-1.4151325	
1465376180235972	-0.30082726	0.44058377	-1.7780676	
1465376190215220	-0.17596841	0.3217289	-2.187132	
1465376200224986	-0.014389038	0.24464512	-2.5166826	
1465376210204234	0.1403091	0.21265346	-2.869032	
1465376220213999	0.21042347	0.24165559	-3.0756388	
1465376230223765	0.27560782	0.29041326	-3.1181698	
1465376240233531	0.30385876	0.31798828	-3.1240559	
1465376250212779	0.40462303	0.29065245	-3.1153755	
1465376260192027	0.5768964	0.23550022	-2.861537	
1465376270201792	0.7674303	0.16792184	-2.4779587	
1465376280181040	0.8157866	0.11534375	-1.9304304	
1465376290190806	0.8338337	0.07580149	-1.4857855	
1465376300170054	0.92585135	0.037301958	-1.0801	
1465376310179820	0.9808924	0.008307099	-0.75002575	
1465376320189585	0.9787934	-0.062087655	-0.44506264	
1465376330168833	1.0384979	-0.121504724	-0.16277122	
1465376340178599	1.1763213	-0.16110313	-0.048160553	
1465376350157847	1.3167374	-0.14984691	0.05873394	
1465376360167613	1.4592192	-0.15757436	0.20302677	
1465376370177378	1.5977879	-0.12689781	0.55251503	
1465376380156626	1.6084571	-0.10636747	1.1283541	
1465376390166392	1.5571349	-0.09454787	1.7037497	
1465376400145640	1.5332212	-0.016194165	2.1033993	
1465376410155406	1.4603498	0.08161974	2.40559	
1465376420165171	1.2882197	0.1504575	2.7205381	
1465376430144419	1.2602358	0.21145278	2.8453827	
1465376440154185	1.3012676	0.2630412	2.697915	
1465376450133433	1.3748066	0.270095	2.426155	
1465376460143199	1.3561981	0.29531354	2.1626568	
1465376480162730	1.2470093	0.34828764	2.0364752	
1465376480162730	1.2470093	0.34828764	2.0364752	
1465376490141978	1.0564692	0.2995156	2.1267843	
1465376500151743	0.85107183	0.16430444	2.2983723	
1465376510161509	0.74711776	-0.02221483	2.446309	
1465376520171275	0.629766	-0.17308047	2.410675	
1465376530150523	0.61108375	-0.34801143	2.1713371	
1465376540160288	0.52067137	-0.44596228	2.0316305	
1465376550139536	0.3391316	-0.46754915	1.9988527	
1465376560118785	0.26535392	-0.4172845	1.7121449	
1465376570128550	0.20051408	-0.37822533	1.3460808	
1465376580107798	0.08430362	-0.28151774	1.0324316	
1465376590117564	-0.09807801	-0.22757733	0.88495827	
1465376600127329	-0.31362343	-0.18323612	0.85858154	
1465376610137095	-0.57183075	-0.16645002	0.8406391	
1465376620146861	-0.8205023	-0.11430848	0.6535902	
1465376630126109	-1.0383434	-0.0815112	0.35408878	
1465376640105357	-1.1264095	-0.1527102	-0.038402557	
1465376650115122	-1.1955721	-0.22296977	-0.4248762	
1465376660094370	-1.2701993	-0.3105762	-0.9071884	
1465376680113902	-1.2179375	-0.47812223	-1.5536795	
1465376680113902	-1.2179375	-0.47812223	-1.5536795	
1465376690123667	-1.1796582	-0.47895986	-1.8445139	
1465376700102915	-1.1866755	-0.47041267	-1.9877329	
1465376710112681	-1.2367833	-0.5127476	-1.948081	
1465376720091929	-1.226291	-0.5552535	-1.9447355	
1465376730101695	-1.066186	-0.546276	-2.1806154	
1465376740111460	-0.83925176	-0.5981318	-2.494113	
1465376750090708	-0.7113402	-0.60184395	-2.514145	
1465376770110240	-0.6857314	-0.42263657	-2.1097622	
1465376770110240	-0.6857314	-0.42263657	-2.1097622	
1465376780089488	-0.7184613	-0.28165483	-1.6466427	
1465376790068736	-0.9293363	-0.2207753	-1.3596096	
1465376800078501	-0.9355378	-0.11804986	-1.2737522	
1465376810057749	-0.9299543	-0.18361974	-0.9678669	
1465376820067515	-0.8125715	-0.21329725	-0.8713198	
1465376830046763	-0.5622914	-0.30320048	-0.7772579	
1465376840056529	-0.439862	-0.42371684	-0.60925007	
1465376850066294	-0.43572712	-0.5526074	-0.23834991	
1465376860076060	-0.2335136	-0.38480985	-0.4577713	
1465376870085826	-0.13477778	-0.09272373	-0.35834026	
1465376880065074	-0.15994835	-0.022383332	0.58919907	
1465376890044322	-0.16211033	0.030065298	1.4497919	
1465376900054087	-0.14191437	0.15227306	1.5553112	
1465376920043101	0.079239845	0.3906054	1.4803276	
1465376920043101	0.079239845	0.3906054	1.4803276	
1465376930022349	0.0730381	0.3854459	1.5624275	
1465376940032115	0.16069508	0.38055617	1.6450195	
1465376950041880	0.2730384	0.3075273	1.7027721	
1465376970030894	0.6673746	0.35064518	1.6759233	
1465376970030894	0.6673746	0.35064518	1.6759233	
1465376980040660	0.558084	0.3319729	2.0732613	
1465376990050425	0.37936974	0.63538074	2.1961946	
1465377000029673	0.13935804	0.8164765	2.224927	
1465377030028452	-0.20736456	0.507872	1.4506817	
1465377030028452	-0.20736456	0.507872	1.4506817	
1465377030028452	-0.20736456	0.507872	1.4506817	
1465377040007701	-0.07729173	0.31800422	0.9581671	
1465377050017466	0.010993481	0.06884298	0.7900057	
1465377059996714	0.059096336	0.08731297	0.54618454	
1465377070006480	0.0037698746	0.12532789	0.4805317	
1465377080016245	-0.046155214	0.07948065	0.5429697	
1465377090026011	0.0038788319	0.06858669	0.540987	
1465377100005259	0.15199566	0.14930667	0.2149229	
1465377109984507	0.1278584	0.2800113	-0.1559248	
1465377119994273	0.07729077	0.4672132	-0.79399776	
1465377130004038	-0.020014524	0.53794336	-0.79911613	
1465377139983286	-0.18072963	0.5352329	-0.2900648	
1465377149993052	-0.2925415	0.6673254	-0.06084919	
1465377159972300	-0.5128639	0.77946436	-0.18325615	
1465377169982066	-0.5513077	0.611714	-0.48020077	
1465377179991831	-0.47735763	0.6100701	-0.9466238	
1465377190001597	-0.33421326	0.631677	-1.650713	
1465377199980845	-0.13281322	0.55285895	-2.2091236	
1465377209960093	-0.019941568	0.38194692	-2.4376411	
1465377219939341	0.06737566	0.262371	-2.5866919	
1465377229949107	0.18434644	0.21909308	-2.664814	
1465377239958872	0.2901001	0.21392787	-2.9578733	
1465377249938120	0.42315602	0.21474606	-3.2601862	
1465377259947886	0.522979	0.16881269	-3.1450863	
1465377269927134	0.6106303	0.11573213	-2.8394413	
1465377279936900	0.74472356	0.16025776	-2.7735329	
1465377289946665	0.9051063	0.112713486	-2.4658365	
1465377299925913	0.99861836	-0.054918677	-2.0440931	
1465377309935679	0.9419229	-0.04835236	-1.5642595	
1465377319914927	0.8689451	-0.021679282	-1.1568041	
1465377329924693	0.90741277	-0.05594799	-0.96271706	
1465377339934458	1.0279794	-0.058474123	-0.88893414	
1465377349913706	1.1961539	-0.083296835	-0.6459942	
1465377359923472	1.3198223	-0.16961303	-0.52620506	
1465377369902720	1.573061	-0.23191828	-0.49427795	
1465377379912486	1.6917784	-0.25163257	-0.37087822	
1465377389891734	1.7720225	-0.12632221	0.010430336	
1465377399901499	1.8376184	0.0452362	0.46427345	
1465377409911265	1.7735317	0.16169792	0.96912193	
1465377419890513	1.7369165	0.24981672	1.487071	
1465377429900279	1.6504805	0.30621722	1.957346	
1465377449919810	1.4863145	0.3189868	2.5713177	
1465377449919810	1.4863145	0.3189868	2.5713177	
1465377459929576	1.5814419	0.29737052	2.5008793	
1465377469908824	1.7634366	0.24673165	2.3052263	
1465377479918589	2.025963	0.1765918	2.1232367	
1465377489897837	2.036872	0.17984074	1.9724693	
1465377499907603	1.8458374	0.3337217	1.9629049	
1465377509886851	1.4179838	0.5552771	2.3608646	
1465377519896617	0.6994517	0.6850333	3.0746002	
1465377529875865	0.042603493	0.66775477	3.5423546	
1465377539885630	-0.2320292	0.43035948	3.4578686	
1465377549895396	-0.28861618	0.15282115	2.8801413	
1465377559874644	-0.18450093	-0.14064245	1.9472923	
1465377569884410	-0.06804681	-0.51022774	1.0840349	
1465377579894175	0.013247967	-0.67165256	0.54796886	
1465377599883189	-0.24329638	-0.49086764	0.17679024	
1465377599883189	-0.24329638	-0.49086764	0.17679024	
1465377609892954	-0.5099454	-0.4178602	0.171772	
1465377619872202	-0.65528655	-0.4254288	0.15873146	
1465377629881968	-0.81726	-0.4530453	0.09873581	
1465377639861216	-0.91156054	-0.51049674	-0.03603649	
1465377649870982	-0.9504919	-0.58278155	-0.14735031	
1465377659880747	-1.0552831	-0.6338358	-0.24262905	
1465377669859995	-1.1345217	-0.7029311	-0.45251656	
1465377679869761	-1.2329628	-0.721087	-0.708251	
1465377689849009	-1.3851259	-0.66271985	-0.8197584	
1465377699858775	-1.519129	-0.6227543	-1.1519184	
1465377719847788	-1.3731267	-0.6756034	-1.8902254	
1465377719847788	-1.3731267	-0.6756034	-1.8902254	
1465377729857554	-1.2254825	-0.70438826	-2.23701	
1465377739836802	-1.1021278	-0.8123705	-2.3969078	
1465377749846568	-0.9448097	-0.8763369	-2.5078163	
1465377759856333	-0.72414804	-0.90923154	-2.5439177	
1465377769835581	-0.678318	-0.8809894	-2.4006252	
1465377789824595	-0.37030578	-0.89823306	-2.0835361	
1465377789824595	-0.37030578	-0.89823306	-2.0835361	
1465377799834361	-0.25707722	-0.8734754	-1.915493	
1465377809844126	-0.18129611	-0.8279409	-1.601161	
1465377819823374	-0.03231716	-0.8084293	-1.3034792	
1465377839812388	0.07230759	-0.7107584	-0.5891228	
1465377839812388	0.07230759	-0.7107584	-0.5891228	
1465377849791636	0.08330226	-0.6726951	-0.24734402	
1465377859801402	0.1763606	-0.6875228	-0.03126812	
1465377869811167	0.30195618	-0.6094239	0.03605652	
1465377889800181	0.521394	-0.44227743	0.20167542	
1465377889800181	0.521394	-0.44227743	0.20167542	
1465377899809947	0.6722479	-0.33097965	0.25589657	
1465377909789195	0.75168467	-0.21063584	0.43930626	
1465377919798960	0.81406164	-0.14931929	0.6707516	
1465377939787974	0.7196388	0.081609845	1.2350197	
1465377939787974	0.7196388	0.081609845	1.2350197	
1465377949797740	0.57788277	0.18785375	1.5964584	
1465377959776988	0.3579285	0.2735647	2.0250463	
1465377969786753	0.3370049	0.26363027	2.2689018	
1465377989775767	0.63823414	0.21063352	2.2726927	
1465377989775767	0.63823414	0.21063352	2.2726927	
1465377999755015	0.7688861	0.2779677	2.2113438	
1465378019774546	0.5866556	0.6422149	2.1068754	
1465378019774546	0.5866556	0.6422149	2.1068754	
1465378029784312	0.32516956	0.7952064	2.2350807	
1465378049773326	-0.19371128	0.8691273	2.0432148	
1465378049773326	-0.19371128	0.8691273	2.0432148	
1465378059752574	-0.21030927	0.716389	1.5526867	
1465378069762339	-0.18534613	0.50826454	1.1472034	
1465378079772105	-0.13565564	0.35095945	0.9489145	
1465378089751353	-0.24373674	0.31151718	0.9440975	
1465378099761118	-0.43511415	0.32489988	1.1444197	
1465378109740367	-0.61004996	0.43108228	1.3510771	
