# OpenSignals Text File Format
# {"internal sensors":{"sensor":["xGyr","yGyr","zGyr"],"device name":"internal sensors","column":["nSeq","xGyr","yGyr","zGyr"],"sync interval":2,"time":"19:01:34","comments":"","keywords":"","device connection":"UNKNOWNinternal sensors","channels":[0,1,2],"date":"2020-07-28","mode":0,"digital IO":[],"firmware version":0,"device":"android","position":0,"sampling rate":100,"label":["xGyr","yGyr","zGyr"],"resolution":[1,1,1],"special":[{},{},{}],"sleeve color":["UNKNOWN","UNKNOWN","UNKNOWN"]}}
# EndOfHeader
1465354455790085	-0.31848145	0.32341003	0.38464355	
1465354465799108	-0.34085083	0.36495972	0.40168762	
1465354485813928	-0.5336609	0.63127136	0.4901123	
1465354495793176	-0.6263428	0.5812073	0.4613495	
1465354515782190	-0.5805359	0.28292847	0.14389038	
1465354535771204	-0.13206482	0.15510559	-0.29179382	
1465354565769983	0.4485016	0.52156067	-0.36849976	
1465354585758997	0.40803528	0.72927856	-0.1138916	
1465354615757776	-0.34510803	0.44378662	-0.09259033	
1465354645726038	-0.51449585	0.13059998	-0.1756897	
1465354685734583	-0.15975952	-0.15382385	0.012863159	
1465354705754114	3.0517578E-5	-0.14529419	0.09915161	
1465354745732141	0.054367065	-0.035583496	0.17797852	
1465354775730921	0.16088867	0.027267456	0.36227417	
1465354805699182	-0.02659607	-0.10269165	0.2930298	
1465354845677210	0.18112183	-0.21134949	0.22592163	
1465354885685755	0.3622284	0.028335571	0.16946411	
1465354915684534	0.18112183	-0.07499695	0.009674072	
1465354955662561	0.044769287	-0.4158783	-0.1650238	
1465354985661340	-0.1778717	-0.55329895	-0.19592285	
1465355045628381	-0.29611206	0.22434998	-0.4547882	
1465355075627161	0.46554565	0.13166809	-0.14265442	
1465355075627161	0.46554565	0.13166809	-0.14265442	
1465355075627161	0.46554565	0.13166809	-0.14265442	
1465355075627161	0.46554565	0.13166809	-0.14265442	
1465355075627161	0.46554565	0.13166809	-0.14265442	
1465355075627161	0.46554565	0.13166809	-0.14265442	
1465355075627161	0.46554565	0.13166809	-0.14265442	
1465355075627161	0.46554565	0.13166809	-0.14265442	
1465355075627161	0.46554565	0.13166809	-0.14265442	
1465355075627161	0.46554565	0.13166809	-0.14265442	
1465355075627161	0.46554565	0.13166809	-0.14265442	
1465355075627161	0.46554565	0.13166809	-0.14265442	
1465355075627161	0.46554565	0.13166809	-0.14265442	
1465355075627161	0.46554565	0.13166809	-0.14265442	
1465355075627161	0.46554565	0.13166809	-0.14265442	
1465355075627161	0.46554565	0.13166809	-0.14265442	
1465355075627161	0.46554565	0.13166809	-0.14265442	
1465355075627161	0.46554565	0.13166809	-0.14265442	
1465355075627161	0.46554565	0.13166809	-0.14265442	
1465355075627161	0.46554565	0.13166809	-0.14265442	
1465355075627161	0.46554565	0.13166809	-0.14265442	
1465355075627161	0.46554565	0.13166809	-0.14265442	
1465355075627161	0.46554565	0.13166809	-0.14265442	
1465355075627161	0.46554565	0.13166809	-0.14265442	
1465355075627161	0.46554565	0.13166809	-0.14265442	
1465355075627161	0.46554565	0.13166809	-0.14265442	
1465355075627161	0.46554565	0.13166809	-0.14265442	
1465355075627161	0.46554565	0.13166809	-0.14265442	
1465355075627161	0.46554565	0.13166809	-0.14265442	
1465355075627161	0.46554565	0.13166809	-0.14265442	
1465355075627161	0.46554565	0.13166809	-0.14265442	
1465355075627161	0.46554565	0.13166809	-0.14265442	
1465355075627161	0.46554565	0.13166809	-0.14265442	
1465355075627161	0.46554565	0.13166809	-0.14265442	
1465355075627161	0.46554565	0.13166809	-0.14265442	
1465355075627161	0.46554565	0.13166809	-0.14265442	
1465355075627161	0.46554565	0.13166809	-0.14265442	
1465355075627161	0.46554565	0.13166809	-0.14265442	
1465355075627161	0.46554565	0.13166809	-0.14265442	
1465355075627161	0.46554565	0.13166809	-0.14265442	
1465355075627161	0.46554565	0.13166809	-0.14265442	
1465355075627161	0.46554565	0.13166809	-0.14265442	
1465355085636926	0.5294647	0.17001343	-0.037200928	
1465355135594202	0.073532104	0.66430664	0.35269165	
1465355145603967	-0.008483887	0.655777	0.40808105	
1465355145603967	-0.008483887	0.655777	0.40808105	
1465355145603967	-0.008483887	0.655777	0.40808105	
1465355145603967	-0.008483887	0.655777	0.40808105	
1465355145603967	-0.008483887	0.655777	0.40808105	
1465355155613733	-0.10116577	0.57055664	0.45281982	
1465355175602747	-0.34298706	0.18173218	0.5209961	
1465355175602747	-0.34298706	0.18173218	0.5209961	
1465355195591760	-0.5294037	-0.23371887	0.646698	
1465355215580774	-0.44950867	-0.42973328	0.76174927	
1465355215580774	-0.44950867	-0.42973328	0.76174927	
1465355215580774	-0.44950867	-0.42973328	0.76174927	
1465355225590540	-0.31315613	-0.44889832	0.822464	
1465355235569788	-0.17999268	-0.47447205	0.88319397	
1465355245549036	-0.09158325	-0.5000305	0.90982056	
1465355255558801	-0.07028198	-0.46168518	0.88319397	
1465355265538049	-0.12246704	-0.32958984	0.8182068	
1465355275547815	-0.21302795	-0.14529419	0.73298645	
1465355285527063	-0.2843933	0.07521057	0.6456299	
1465355295536829	-0.32273865	0.34577942	0.564682	
1465355305516077	-0.3355255	0.5694885	0.50502014	
1465355315495325	-0.3035736	0.64938354	0.5273895	
1465355325505090	-0.17041016	0.34791565	0.73405457	
1465355335514856	0.20030212	-0.3423767	1.1420441	
1465355345494104	0.63279724	-0.6257324	1.2475128	
1465355355503870	1.0461273	-0.5937805	1.0845184	
1465355365483118	1.4328156	-0.5383911	0.9119568	
1465355375492883	1.7119141	-0.39030457	0.7351227	
1465355385502649	1.7555847	0.480011	0.4986267	
1465355395481897	1.4945984	0.97109985	0.36653137	
1465355405491663	1.1590424	0.77615356	0.45069885	
1465355415501428	0.82774353	0.6291504	0.5156708	
1465355425480676	0.50497437	0.5077057	0.5465698	
1465355435490442	0.22692871	0.47575378	0.5721283	
1465355445469690	0.037322998	0.3830719	0.63072205	
1465355455479456	-0.058563232	0.16043091	0.7766571	
1465355465458704	-0.08944702	-0.113342285	0.90449524	
1465355475468469	-0.074539185	-0.35728455	0.9620209	
1465355485478235	-0.04789734	-0.51600647	0.95562744	
1465355495457483	-0.008483887	-0.5319977	0.91300964	
1465355505467249	0.057556152	-0.36367798	0.88105774	
1465355515446497	0.17047119	-0.0675354	0.88638306	
1465355525456262	0.2972412	0.30104065	0.9460449	
1465355535435510	0.30682373	0.80171204	1.0610809	
1465355545445276	0.12359619	1.307724	1.1207428	
1465355555455042	-0.06388855	1.4749603	1.1761322	
1465355565464807	-0.046844482	1.1394043	1.3071594	
1465355575444055	0.14916992	0.65045166	1.3732147	
1465355585453821	0.39736938	0.31596375	1.2752075	
1465355595433069	0.6168213	0.15510559	1.0419159	
1465355605442835	0.76382446	0.09437561	0.7862549	
1465355615452600	0.7925873	0.11781311	0.6882477	
1465355645420862	0.3153534	0.4342041	0.6957092	
1465355665440393	-0.3110199	0.32341003	0.679718	
1465355705448938	-1.3304901	-0.24862671	0.72979736	
1465355735417200	-0.91716003	-0.37220764	0.98864746	
1465355735417200	-0.91716003	-0.37220764	0.98864746	
1465355735417200	-0.91716003	-0.37220764	0.98864746	
1465355735417200	-0.91716003	-0.37220764	0.98864746	
1465355735417200	-0.91716003	-0.37220764	0.98864746	
1465355735417200	-0.91716003	-0.37220764	0.98864746	
1465355735417200	-0.91716003	-0.37220764	0.98864746	
1465355745426965	-0.76908875	-0.30615234	1.09198	
1465355745426965	-0.76908875	-0.30615234	1.09198	
1465355745426965	-0.76908875	-0.30615234	1.09198	
1465355755406214	-0.6732178	-0.32000732	1.1612244	
1465355765415979	-0.5954437	-0.36260986	1.1537628	
1465355775395227	-0.5389862	-0.3935089	1.0493774	
1465355785374475	-0.5294037	-0.44145203	0.9119568	
1465355795384241	-0.56030273	-0.51600647	0.80329895	
1465355805394006	-0.60183716	-0.57673645	0.7116852	
1465355815373255	-0.6561737	-0.49577332	0.646698	
1465355825383020	-0.7381897	-0.4073639	0.64030457	
1465355835362268	-0.8223572	-0.45742798	0.68611145	
1465355845372034	-0.8788147	-0.47447205	0.75535583	
1465355855351282	-0.89904785	-0.38497925	0.7990265	
1465355865361047	-0.8649597	-0.24650574	0.82673645	
1465355875370813	-0.75097656	-0.12719727	0.98864746	
1465355885350061	-0.59225464	-0.024932861	1.09198	
1465355895359827	-0.3813324	0.097579956	0.9588165	
1465355905339075	-0.15762329	0.25204468	0.61686707	
1465355915348840	0.049041748	0.24884033	0.17904663	
1465355925358606	0.2652893	0.09225464	-0.1565094	
1465355935337854	0.4644928	-0.03451538	-0.2619629	
1465355955326868	0.6189575	-0.062210083	-0.009506226	
1465355955326868	0.6189575	-0.062210083	-0.009506226	
1465355965336633	0.5337372	-0.024932861	0.09703064	
1465355975346399	0.4133606	-0.0206604	0.12365723	
1465355985325647	0.2919159	-0.012145996	0.06187439	
1465355995335413	0.18751526	0.058166504	-0.09579468	
1465356005314661	0.15235901	0.03366089	-0.29606628	
1465356015324426	0.1949768	-0.18045044	-0.4547882	
1465356025334192	0.2546234	-0.38497925	-0.5357361	
1465356035343958	0.28019714	-0.4393158	-0.5272217	
1465356045323206	0.21948242	-0.3423767	-0.438797	
1465356055332971	0.07460022	-0.174057	-0.29925537	
1465356065342737	-0.08732605	-0.011077881	-0.12348938	
1465356075352503	-0.22047424	0.10823059	0.046951294	
1465356085331751	-0.28225708	0.14338684	0.1492157	
1465356095310999	-0.2886505	0.08799744	0.17372131	
1465356115330530	-0.2055664	-0.15382385	0.08850098	
1465356125309778	-0.11288452	-0.22200012	0.02885437	
1465356125309778	-0.11288452	-0.22200012	0.02885437	
1465356135319544	-0.014877319	-0.20709229	-0.004180908	
1465356145329309	0.0650177	-0.103759766	0.011810303	
1465356155308557	0.122543335	0.08799744	0.053344727	
1465356165287805	0.15663147	0.30743408	0.072525024	
1465356175297571	0.13851929	0.48640442	0.037368774	
1465356185307337	0.073532104	0.5961151	-0.065963745	
1465356195286585	-0.029800415	0.6163635	-0.20657349	
1465356205296350	-0.14910889	0.5865326	-0.34825134	
1465356215275598	-0.28971863	0.5300751	-0.51976013	
1465356225285364	-0.44525146	0.4342041	-0.7147064	
1465356235295130	-0.57307434	0.29997253	-0.8617096	
1465356255284143	-0.661499	0.18493652	-0.8904724	
1465356255284143	-0.661499	0.18493652	-0.8904724	
1465356265263391	-0.62420654	0.38946533	-0.7658386	
1465356285282922	-0.325943	0.58013916	-0.5059204	
1465356285282922	-0.325943	0.58013916	-0.5059204	
1465356295262171	-0.08732605	0.8475189	-0.38980103	
1465356305271936	0.073532104	0.7079773	-0.27900696	
1465356315281702	0.042648315	0.38414	-0.20657349	
1465356325260950	-0.025527954	0.37774658	-0.17674255	
1465356335270715	-0.062820435	0.39265442	-0.14904785	
1465356355259729	-0.088378906	0.45550537	-0.10430908	
1465356355259729	-0.088378906	0.45550537	-0.10430908	
1465356365269495	-0.029800415	0.4427185	-0.12774658	
1465356375248743	0.10229492	0.39904785	-0.20550537	
1465356385258508	0.2684784	0.36495972	-0.32481384	
1465356395237756	0.46128845	0.39585876	-0.45690918	
1465356405247522	0.6626282	0.42887878	-0.58154297	
1465356415226770	0.8714142	0.47148132	-0.6859436	
1465356425206018	1.0983276	0.57907104	-0.7583771	
1465356435215784	1.343338	0.6376648	-0.7594452	
1465356455204797	1.6565247	0.5503235	-0.66038513	
1465356455204797	1.6565247	0.5503235	-0.66038513	
1465356465214563	1.6458588	0.5833435	-0.6316223	
1465356475224329	1.5467987	0.6344757	-0.6358795	
1465356485203577	1.3752899	0.67282104	-0.66889954	
1465356495182825	1.1238861	0.7271576	-0.7125702	
1465356505192590	0.83200073	0.862442	-0.7786255	
1465356525181604	0.375	1.309845	-0.9266968	
1465356525181604	0.375	1.309845	-0.9266968	
1465356535191370	0.30363464	1.4451447	-0.9416046	
1465356545201135	0.3515625	1.4909515	-0.9501343	
1465356555180383	0.49430847	1.4238281	-0.9554596	
1465356565190149	0.6722107	1.2853546	-0.94480896	
1465356575169397	0.8170929	1.2001343	-0.9320221	
1465356585179163	0.88739014	1.213974	-0.9501343	
1465356605168176	0.7755432	1.6763	-1.0151062	
1465356605168176	0.7755432	1.6763	-1.0151062	
1465356615177942	0.677536	2.041687	-1.0332184	
1465356625187708	0.60510254	2.328247	-1.0023346	
1465356635197473	0.5294647	2.4219818	-0.9128418	
1465356645207239	0.43572998	2.3420868	-0.79566956	
1465356655186487	0.34091187	2.1364899	-0.7040558	
1465356675206018	0.22373962	1.500534	-0.6316223	
1465356675206018	0.22373962	1.500534	-0.6316223	
1465356685185266	0.20562744	1.1255646	-0.5890045	
1465356695164514	0.19390869	0.75271606	-0.5229645	
1465356705143762	0.15449524	0.41822815	-0.47927856	
1465356725132776	-0.0287323	0.07839966	-0.45158386	
1465356725132776	-0.0287323	0.07839966	-0.45158386	
1465356735142542	-0.1352539	0.12953186	-0.4590454	
1465356745152307	-0.2087555	0.2339325	-0.4622345	
1465356755131555	-0.24072266	0.31596375	-0.4537201	
1465356765141321	-0.21089172	0.34898376	-0.41430664	
1465356775120569	-0.13845825	0.31169128	-0.34399414	
1465356785130335	-0.029800415	0.22647095	-0.276886	
1465356805119348	0.2184143	0.11355591	-0.21403503	
1465356805119348	0.2184143	0.11355591	-0.21403503	
1465356825138880	0.45596313	0.12634277	-0.23426819	
1465356825138880	0.45596313	0.12634277	-0.23426819	
1465356845127893	0.7105713	0.22328186	-0.32588196	
1465356845127893	0.7105713	0.22328186	-0.32588196	
1465356855137659	0.8234863	0.2850647	-0.36849976	
1465356865147424	0.9193573	0.34365845	-0.3887329	
1465356875126672	0.98646545	0.39265442	-0.41537476	
1465356895115686	0.9949951	0.47148132	-0.5293579	
1465356895115686	0.9949951	0.47148132	-0.5293579	
1465356905094934	0.96195984	0.5034485	-0.59539795	
1465356925114465	0.8501129	0.5726929	-0.64546204	
1465356925114465	0.8501129	0.5726929	-0.64546204	
1465356935093714	0.7052307	0.6003876	-0.5932617	
1465356945103479	0.4879303	0.65045166	-0.49952698	
1465356955113245	0.28659058	0.6877289	-0.4164276	
1465356965123010	0.15449524	0.6792145	-0.37701416	
1465356975102258	0.0884552	0.65470886	-0.403656	
1465356985081506	0.08312988	0.5535126	-0.47395325	
1465356995091272	0.11401367	0.34577942	-0.5368042	
1465357015080286	0.2141571	-0.048355103	-0.5570526	
1465357015080286	0.2141571	-0.048355103	-0.5570526	
1465357025090051	0.31428528	-0.18365479	-0.4909973	
1465357035069299	0.4495697	-0.21348572	-0.40151978	
1465357045079065	0.5667572	-0.21560669	-0.3290863	
1465357055058313	0.60510254	-0.20069885	-0.3045807	
1465357065068079	0.5230713	-0.1889801	-0.34506226	
1465357075047327	0.36434937	-0.20069885	-0.42814636	
1465357095066858	-0.10223389	-0.32533264	-0.5602417	
1465357095066858	-0.10223389	-0.32533264	-0.5602417	
1465357105076624	-0.405838	-0.39990234	-0.5783539	
1465357115055872	-0.68066406	-0.490448	-0.5804901	
1465357125065637	-0.90011597	-0.58418274	-0.5826111	
1465357145054651	-1.2484589	-0.6576996	-0.6028595	
1465357145054651	-1.2484589	-0.6576996	-0.6028595	
1465357155064417	-1.4455261	-0.62893677	-0.59965515	
1465357175053430	-1.7320862	-0.43078613	-0.5559845	
1465357175053430	-1.7320862	-0.43078613	-0.5559845	
1465357185063196	-1.697998	-0.4403839	-0.47608948	
1465357195042444	-1.5467377	-0.5746002	-0.34080505	
1465357205052210	-1.3027802	-0.7780609	-0.19166565	
1465357225010706	-0.84259033	-1.0838013	0.013931274	
1465357225010706	-0.84259033	-1.0838013	0.013931274	
1465357235020471	-0.7616272	-1.1104279	0.06719971	
1465357245030237	-0.77015686	-1.0678253	0.06719971	
1465357255009485	-0.8138275	-0.97088623	0.072525024	
1465357274998499	-0.8074341	-0.50535583	0.07678223	
1465357274998499	-0.8074341	-0.50535583	0.07678223	
1465357285008264	-0.7339325	-0.19963074	0.09275818	
1465357304997278	-0.46229553	0.28292847	0.15667725	
1465357304997278	-0.46229553	0.28292847	0.15667725	
1465357315007044	-0.28971863	0.43527222	0.1918335	
1465357325016809	-0.10116577	0.52156067	0.22166443	
1465357335026575	0.0884552	0.55670166	0.22805786	
1465357345005823	0.26208496	0.56736755	0.20674133	
1465357354985071	0.41229248	0.562027	0.16307068	
1465357364964319	0.53053284	0.5577698	0.11087036	
1465357374943567	0.6082916	0.5630951	0.06506348	
1465357384953333	0.6626282	0.5609741	0.04269409	
1465357404972864	0.7648926	0.4576416	0.06826782	
1465357404972864	0.7648926	0.4576416	0.06826782	
1465357414982630	0.81388855	0.36602783	0.107681274	
1465357424961878	0.85543823	0.25416565	0.15667725	
1465357444950891	0.88845825	0.031539917	0.23657227	
1465357444950891	0.88845825	0.031539917	0.23657227	
1465357454960657	0.87887573	-0.056884766	0.2472229	
1465357464970422	0.8447876	-0.10482788	0.2514801	
1465357474949671	0.7925873	-0.12612915	0.2514801	
1465357484959436	0.7212219	-0.11759949	0.24615479	
1465357494938684	0.6391907	-0.066467285	0.22805786	
1465357504948450	0.5465088	0.017684937	0.1875763	
1465357514958215	0.44424438	0.14125061	0.14176941	
1465357524937464	0.33772278	0.28399658	0.11087036	
1465357534947229	0.23652649	0.43634033	0.105545044	
1465357544956995	0.15875244	0.57481384	0.13856506	
1465357554936243	0.1161499	0.67601013	0.19715881	
1465357564946008	0.099105835	0.75590515	0.27279663	
1465357574925256	0.09378052	0.80810547	0.3686676	
1465357584935022	0.08099365	0.8134308	0.45495605	
1465357594914270	0.050094604	0.75590515	0.5082092	
1465357604924036	-0.0052948	0.6110382	0.5124817	
1465357624913049	-0.19491577	0.13380432	0.38464355	
1465357624913049	-0.19491577	0.13380432	0.38464355	
1465357634922815	-0.33659363	-0.08139038	0.297287	
1465357644932581	-0.51342773	-0.24223328	0.23017883	
1465357664891077	-0.9576416	-0.37220764	0.19396973	
1465357664891077	-0.9576416	-0.37220764	0.19396973	
1465357674900842	-1.1909332	-0.40522766	0.22273254	
1465357684910608	-1.3709564	-0.4989624	0.26107788	
1465357694889856	-1.4796143	-0.6470337	0.25787354	
1465357704899622	-1.5424652	-0.7727356	0.20248413	
1465357714878870	-1.5893402	-0.8483734	0.1407013	
1465357724888635	-1.6308899	-0.8622284	0.13323975	
1465357734898401	-1.6756287	-0.7887268	0.22485352	
1465357744877649	-1.7129059	-0.60124207	0.3921051	
1465357754887415	-1.7150421	-0.3413086	0.5944977	
1465357764866663	-1.664978	-0.12187195	0.78411865	
1465357784886194	-1.3464661	-0.045166016	1.0578918	
1465357784886194	-1.3464661	-0.045166016	1.0578918	
1465357794895960	-1.0876007	-0.18684387	1.1036987	
1465357804905725	-0.8053131	-0.39564514	1.0962372	
1465357824864221	-0.2801361	-0.888855	1.0600281	
1465357824864221	-0.2801361	-0.888855	1.0600281	
1465357834843469	-0.053237915	-1.1296082	1.05896	
1465357844853235	0.14064026	-1.3075104	1.0504303	
1465357854863001	0.28977966	-1.3820801	1.0248718	
1465357864872766	0.39204407	-1.3490448	0.9758606	
1465357874852014	0.45277405	-1.2297363	0.902359	
1465357884861780	0.48153687	-1.0358582	0.80329895	
1465357894841028	0.48898315	-0.7887268	0.6946411	
1465357904820276	0.50390625	-0.52027893	0.599823	
1465357914830042	0.5475769	-0.29870605	0.5209961	
1465357924809290	0.6264038	-0.16447449	0.46028137	
1465357934819055	0.73187256	-0.0867157	0.40808105	
1465357944828821	0.8469238	-0.010009766	0.3675995	
1465357954808069	0.96195984	0.07733154	0.32711792	
1465357964817835	1.0525208	0.1796112	0.28451538	
1465357974797083	1.0929871	0.28292847	0.23550415	
1465357984806848	1.0823364	0.37774658	0.17692566	
1465357994786096	1.0418549	0.44804382	0.11193848	
1465358004795862	0.9886017	0.49172974	0.049087524	
1465358014805628	0.91722107	0.49172974	0.007537842	
1465358024784876	0.82455444	0.44911194	-9.765625E-4	
1465358034794641	0.70417786	0.34791565	0.03630066	
1465358044804407	0.55503845	0.17533875	0.11300659	
1465358054783655	0.38671875	-0.061141968	0.20568848	
1465358064793421	0.21308899	-0.3327942	0.2898407	
1465358074772669	0.044769287	-0.5980377	0.3409729	
1465358084782434	-0.11288452	-0.80044556	0.34309387	
1465358094761682	-0.25881958	-0.9080353	0.30581665	
1465358104771448	-0.37919617	-0.9421234	0.25361633	
1465358114781214	-0.4644165	-0.92826843	0.22698975	
1465358124790979	-0.52301025	-0.8931122	0.25254822	
1465358134770227	-0.5634918	-0.8664856	0.33032227	
1465358144779993	-0.5986481	-0.88671875	0.43045044	
1465358154759241	-0.65296936	-0.94744873	0.49649048	
1465358164769006	-0.7296753	-0.9719391	0.5135498	
1465358184758020	-0.9022522	-0.872879	0.46240234	
1465358194767786	-0.94485474	-0.7471771	0.4006195	
1465358194767786	-0.94485474	-0.7471771	0.4006195	
1465358204777551	-0.9437866	-0.60017395	0.32286072	
1465358214756799	-0.8969269	-0.42546082	0.2472229	
1465358224766565	-0.81915283	-0.20709229	0.17585754	
1465358234745813	-0.7307434	0.052841187	0.12258911	
1465358244755579	-0.6593628	0.33940125	0.09063721	
1465358254765344	-0.61569214	0.655777	0.07145691	
1465358264744592	-0.5773468	0.9412689	0.05015564	
1465358274754358	-0.57414246	1.1404724	-0.025482178	
1465358284733606	-0.62101746	1.2960052	-0.16290283	
1465358294743372	-0.6732178	1.2789612	-0.2907257	
1465358304753137	-0.66362	0.9732208	-0.3525238	
1465358314762903	-0.58799744	0.4342041	-0.3557129	
1465358324742151	-0.47187805	-0.1655426	-0.32481384	
1465358334721399	-0.34724426	-0.60762024	-0.29711914	
1465358344731165	-0.24816895	-0.7834015	-0.27900696	
1465358354710413	-0.1821289	-0.7514343	-0.2587738	
1465358364720178	-0.123535156	-0.6118927	-0.2353363	
1465358374729944	-0.072402954	-0.3935089	-0.2310791	
1465358384739710	-0.021270752	-0.13891602	-0.2502594	
1465358394718958	0.012817383	0.04324341	-0.26516724	
1465358404728723	0.01600647	0.11781311	-0.276886	
1465358414738489	0.002166748	0.11569214	-0.27368164	
1465358424717737	-0.029800415	0.044311523	-0.23640442	
1465358434696985	-0.0798645	-0.04623413	-0.18527222	
1465358444706751	-0.12567139	-0.12506104	-0.1288147	
1465358454685999	-0.15229797	-0.18151855	-0.07980347	
1465358464695764	-0.15762329	-0.21986389	-0.048919678	
1465358484684778	-0.12460327	-0.21774292	-0.045715332	
1465358484684778	-0.12460327	-0.21774292	-0.045715332	
1465358494694544	-0.10116577	-0.1974945	-0.06489563	
1465358504673792	-0.084121704	-0.16340637	-0.08300781	
1465358514683557	-0.074539185	-0.14743042	-0.075546265	
1465358524693323	-0.07347107	-0.1655426	-0.042526245	
1465358534703089	-0.06600952	-0.17938232	-0.00630188	
1465358544682337	-0.036193848	-0.1655426	0.027786255	
1465358554661585	0.00642395	-0.113342285	0.060806274	
1465358564671350	0.03199768	-0.043029785	0.08743286	
1465358574650598	0.034118652	-0.0014953613	0.10874939	
1465358584629846	0.02772522	-4.272461E-4	0.13963318	
1465358594639612	0.0074920654	-0.014266968	0.17158508	
1465358604649378	-0.023406982	-0.0068206787	0.18225098	
1465358614628626	-0.032989502	-0.007888794	0.16307068	
1465358634648157	0.0692749	-0.16021729	0.18118286	
1465358634648157	0.0692749	-0.16021729	0.18118286	
1465358644627405	0.14170837	-0.3178711	0.2387085	
1465358654637171	0.20455933	-0.42333984	0.28663635	
1465358664616419	0.24397278	-0.4393158	0.33883667	
1465358674626184	0.25675964	-0.37965393	0.40275574	
1465358694615198	0.24078369	-0.17938232	0.5359192	
1465358694615198	0.24078369	-0.17938232	0.5359192	
1465358704624964	0.21095276	-0.078186035	0.58277893	
1465358714604212	0.15663147	0.01449585	0.60621643	
1465358724613977	0.07778931	0.048583984	0.6190033	
1465358744602991	-0.15336609	-0.0675354	0.6147461	
1465358744602991	-0.15336609	-0.0675354	0.6147461	
1465358754612756	-0.2875824	-0.115478516	0.6094208	
1465358764592005	-0.4090271	-0.09950256	0.599823	
1465358774601770	-0.5262146	0.0017089844	0.5636139	
1465358784581018	-0.67640686	0.19345093	0.49649048	
1465358794590784	-0.87667847	0.38093567	0.43151855	
1465358804600549	-1.0918579	0.47361755	0.39849854	
1465358814610315	-1.2580414	0.44378662	0.40489197	
1465358824589563	-1.315567	0.25416565	0.41127014	
1465358834599329	-1.2388763	-0.0440979	0.3867798	
1465358844609094	-1.0481873	-0.3413086	0.32392883	
1465358854588342	-0.77760315	-0.5447693	0.23231506	
1465358864598108	-0.4601593	-0.61294556	0.14602661	
1465358874577356	-0.12886047	-0.5671387	0.07891846	
1465358884587122	0.18218994	-0.44889832	0.03843689	
1465358894596887	0.43572998	-0.30082703	0.033111572	
1465358904576135	0.6040344	-0.1847229	0.05441284	
1465358914585901	0.66049194	-0.08457947	0.084243774	
1465358924565149	0.61042786	0.015548706	0.09703064	
1465358934574915	0.48472595	0.1327362	0.07891846	
1465358944584680	0.30895996	0.26055908	0.030975342	
1465358954594446	0.09057617	0.36921692	-0.036132812	
1465358964573694	-0.13632202	0.39265442	-0.09259033	
1465358974552942	-0.34191895	0.30636597	-0.120285034	
1465358984562708	-0.501709	0.15190125	-0.11816406	
1465358994572473	-0.581604	-0.078186035	-0.08087158	
1465359004582239	-0.5762787	-0.3647461	-0.00843811	
1465359014561487	-0.5102234	-0.6065674	0.095962524	
1465359024540735	-0.405838	-0.75357056	0.22166443	
1465359034550501	-0.27267456	-0.8164215	0.33457947	
1465359044560266	-0.12886047	-0.8110962	0.3878479	
1465359054539514	0.002166748	-0.7652893	0.37931824	
1465359064549280	0.10549927	-0.69818115	0.32499695	
1465359074528528	0.1630249	-0.6214752	0.24510193	
1465359084538294	0.17686462	-0.55223083	0.18437195	
1465359094548059	0.1438446	-0.49577332	0.15348816	
1465359114537073	-0.039382935	-0.4126892	0.1449585	
1465359114537073	-0.039382935	-0.4126892	0.1449585	
1465359124516321	-0.12992859	-0.40309143	0.15028381	
1465359144535852	-0.19277954	-0.40948486	0.10874939	
1465359144535852	-0.19277954	-0.40948486	0.10874939	
1465359164524866	-0.08305359	-0.40841675	-0.01802063	
1465359164524866	-0.08305359	-0.40841675	-0.01802063	
1465359174504114	0.022399902	-0.40097046	-0.12667847	
1465359194493128	0.23545837	-0.28271484	-0.36849976	
1465359194493128	0.23545837	-0.28271484	-0.36849976	
1465359204502893	0.28445435	-0.16233826	-0.45051575	
1465359214512659	0.29084778	-0.048355103	-0.4782257	
1465359224491907	0.2684784	-0.023864746	-0.4675598	
1465359244511438	0.15449524	-0.3189392	-0.4068451	
1465359244511438	0.15449524	-0.3189392	-0.4068451	
1465359254490686	0.10229492	-0.5170746	-0.38980103	
1465359264500452	0.07992554	-0.6534271	-0.39086914	
1465359274510217	0.07141113	-0.65237427	-0.40577698	
1465359284489465	0.056488037	-0.5469055	-0.42495728	
1465359294468714	0.025604248	-0.4126892	-0.4260254	
1465359304447962	-0.034057617	-0.25395203	-0.40470886	
1465359314457727	-0.13206482	-0.013214111	-0.38661194	
1465359324467493	-0.25881958	0.24778748	-0.39512634	
1465359334477258	-0.3781433	0.43206787	-0.45051575	
1465359344456506	-0.46548462	0.4608307	-0.52189636	
1465359354466272	-0.50917053	0.27867126	-0.5932617	
1465359364445520	-0.4804077	-0.0398407	-0.65185547	
1465359374455286	-0.36428833	-0.41374207	-0.661438	
1465359394444299	-0.0031585693	-0.7684784	-0.54745483	
1465359394444299	-0.0031585693	-0.7684784	-0.54745483	
1465359404454065	0.15556335	-0.62680054	-0.49206543	
1465359424443079	0.30256653	0.013427734	-0.4675598	
1465359424443079	0.30256653	0.013427734	-0.4675598	
1465359434452844	0.28552246	0.27973938	-0.48034668	
1465359454441858	0.15342712	0.3330078	-0.49526978	
1465359454441858	0.15342712	0.3330078	-0.49526978	
1465359464451624	0.042648315	0.16468811	-0.49526978	
1465359474430872	-0.08944702	-0.0025634766	-0.51231384	
1465359484440637	-0.18745422	-0.09736633	-0.5336151	
1465359494419885	-0.22686768	-0.13677979	-0.5336151	
1465359504429651	-0.21089172	-0.1421051	-0.5005951	
1465359514439417	-0.14164734	-0.1421051	-0.44625854	
1465359524418665	-0.043640137	-0.15489197	-0.3876648	
1465359534428430	0.06074524	-0.15596008	-0.34080505	
1465359554417444	0.2546234	-0.0952301	-0.3056488	
1465359554417444	0.2546234	-0.0952301	-0.3056488	
1465359564427210	0.35690308	-0.059020996	-0.32269287	
1465359574406458	0.4421234	-0.029190063	-0.35038757	
1465359584416223	0.48258972	0.01449585	-0.36849976	
1465359594425989	0.46875	0.083724976	-0.356781	
1465359604405237	0.40696716	0.15190125	-0.31843567	
1465359614384485	0.30577087	0.19984436	-0.2577057	
1465359624394251	0.1747284	0.23500061	-0.19166565	
1465359634404016	0.046905518	0.25416565	-0.15437317	
1465359644383264	-0.043640137	0.19665527	-0.14585876	
1465359654393030	-0.103302	0.041122437	-0.15332031	
1465359664372278	-0.14483643	-0.16873169	-0.17781067	
1465359674382044	-0.14804077	-0.33065796	-0.21617126	
1465359684391809	-0.09690857	-0.3881836	-0.23747253	
1465359694371057	-0.002105713	-0.34877014	-0.22361755	
1465359704380823	0.12573242	-0.25076294	-0.18101501	
1465359714360071	0.28445435	-0.14743042	-0.122421265	
1465359724369837	0.46235657	-0.070739746	-0.06808472	
1465359734349085	0.6253357	-0.028121948	-0.028671265	
1465359744358850	0.76275635	-0.011077881	-0.013763428	
1465359754368616	0.8916626	-0.025985718	-0.00630188	
1465359764347864	1.0045776	-0.05369568	0.008605957	
1465359784367395	1.059967	-0.056884766	0.030975342	
1465359784367395	1.059967	-0.056884766	0.030975342	
1465359794346643	0.9886017	-0.010009766	0.060806274	
1465359814335657	0.6647644	0.23179626	0.13005066	
1465359814335657	0.6647644	0.23179626	0.13005066	
1465359824345422	0.42401123	0.37986755	0.12579346	
1465359834355188	0.16514587	0.466156	0.08956909	
1465359844334436	-0.07133484	0.47575378	0.05015564	
1465359864323450	-0.36642456	0.42141724	-0.060638428	
1465359864323450	-0.36642456	0.42141724	-0.060638428	
1465359874333215	-0.40795898	0.40118408	-0.11177063	
1465359884312464	-0.37600708	0.38839722	-0.1330719	
1465359894322229	-0.2886505	0.41822815	-0.13839722	
1465359904331995	-0.16827393	0.47787476	-0.15864563	
1465359914311243	-0.05961609	0.5449829	-0.21083069	
1465359924290491	-0.0042266846	0.61317444	-0.28967285	
1465359934300256	0.009613037	0.66430664	-0.38980103	
1465359944310022	0.005355835	0.6792145	-0.49845886	
1465359954319788	0.010681152	0.6611023	-0.741333	
1465359964329553	0.05329895	0.6611023	-0.741333	
1465359974308801	0.14703369	0.69200134	-0.87449646	
1465359984288049	0.2684784	0.76976013	-1.010849	
1465359994297815	0.38671875	0.9039917	-1.1333618	
1465360004307581	0.48258972	1.0616455	-1.2324219	
1465360014286829	0.56036377	1.2480621	-1.3165894	
1465360024296594	0.63812256	1.4355469	-1.3986053	
1465360034306360	0.7180176	1.6091919	-1.4710388	
1465360044316126	0.8234863	1.7774963	-1.5211182	
1465360054295374	0.98753357	1.914917	-1.5488129	
1465360064305139	1.2091064	1.9799042	-1.5349579	
1465360084294153	1.6426697	1.852066	-1.4817047	
1465360084294153	1.6426697	1.852066	-1.4817047	
1465360094273401	1.7055206	1.6933441	-1.4635925	
1465360104283167	1.6234894	1.5527344	-1.4635925	
1465360114262415	1.4306793	1.4589844	-1.4358978	
1465360124272180	1.183548	1.3748322	-1.3176422	
1465360134281946	0.92575073	1.3002625	-1.1418762	
1465360144261194	0.6668854	1.244873	-0.97143555	
1465360164250208	0.1672821	0.99346924	-0.8063202	
1465360164250208	0.1672821	0.99346924	-0.8063202	
1465360174259973	-0.100097656	0.77189636	-0.8286896	
1465360184269739	-0.3813324	0.5140991	-0.89686584	
1465360194248987	-0.6582947	0.24458313	-0.9820862	
1465360214268518	-1.125946	-0.05795288	-1.0769043	
1465360214268518	-1.125946	-0.05795288	-1.0769043	
1465360224247766	-1.2814789	-0.02279663	-1.008728	
1465360234257532	-1.3869476	0.11248779	-0.86598206	
1465360244236780	-1.472168	0.24671936	-0.69340515	
1465360264225794	-1.7320862	0.45231628	-0.32055664	
1465360264225794	-1.7320862	0.45231628	-0.32055664	
1465360274235559	-1.6564484	0.52049255	-0.17141724	
1465360284214807	-1.5115814	0.40544128	-0.13200378	
1465360294224573	-1.3613739	0.29997253	-0.15437317	
1465360304203821	-1.2069092	0.22753906	-0.2076416	
1465360314213587	-1.0630951	0.121017456	-0.23214722	
1465360324223352	-0.9672241	0.011291504	-0.19378662	
1465360334233118	-0.9246216	-0.06539917	-0.12135315	
1465360344212366	-0.89372253	-0.10801697	-0.047851562	
1465360354191614	-0.81489563	-0.021728516	0.008605957	
1465360364201380	-0.677475	-0.021728516	0.008605957	
1465360374211145	-0.51342773	-0.010009766	-0.027618408	
1465360384220911	-0.3493805	-0.024932861	-0.07661438	
1465360394200159	-0.19598389	-0.07925415	-0.13520813	
1465360404209924	-0.07772827	-0.13996887	-0.2076416	
1465360414219690	-0.029800415	-0.15808105	-0.27900696	
1465360424198938	-0.064941406	-0.080322266	-0.33015442	
1465360434178186	-0.15655518	0.11248779	-0.3525238	
1465360444187952	-0.25349426	0.38414	-0.3514557	
1465360454197717	-0.3110199	0.66856384	-0.3141632	
1465360464207483	-0.30036926	0.8698883	-0.23214722	
1465360474186731	-0.2290039	0.9455261	-0.12774658	
1465360484165979	-0.12246704	0.9263611	-0.013763428	
1465360494175745	-0.0042266846	0.8379364	0.10021973	
1465360504154993	0.10443115	0.70477295	0.22059631	
1465360524144006	0.26741028	0.40330505	0.43258667	
1465360524144006	0.26741028	0.40330505	0.43258667	
1465360534153772	0.30577087	0.30210876	0.50927734	
1465360544163538	0.29830933	0.27441406	0.55722046	
1465360554173303	0.24291992	0.32554626	0.5774536	
1465360564152551	0.15663147	0.42141724	0.57533264	
1465360584141565	-0.010620117	0.60357666	0.5252533	
1465360584141565	-0.010620117	0.60357666	0.5252533	
1465360594151331	-0.06175232	0.641922	0.503952	
1465360604161096	-0.09477234	0.62701416	0.49543762	
1465360614170862	-0.095840454	0.559906	0.4890442	
1465360624150110	-0.053237915	0.43099976	0.47625732	
1465360634129358	0.026657104	0.26908875	0.44430542	
1465360644108606	0.12573242	0.105041504	0.38464355	
1465360664097620	0.30682373	-0.111206055	0.23017883	
1465360664097620	0.30682373	-0.111206055	0.23017883	
1465360674107385	0.35902405	-0.12719727	0.168396	
1465360684117151	0.38565063	-0.08778381	0.12898254	
1465360694096399	0.3984375	-4.272461E-4	0.11300659	
1465360704106165	0.39950562	0.10823059	0.11193848	
1465360714115930	0.3952484	0.22007751	0.11193848	
1465360724095178	0.38246155	0.3127594	0.107681274	
1465360734104944	0.36009216	0.37135315	0.109802246	
1465360744084192	0.33132935	0.38839722	0.11833191	
1465360764073206	0.26315308	0.32128906	0.12791443	
1465360764073206	0.26315308	0.32128906	0.12791443	
1465360774082971	0.21948242	0.2808075	0.12791443	
1465360784062219	0.16835022	0.26802063	0.11833191	
1465360794071985	0.11933899	0.27334595	0.10661316	
1465360804081751	0.07246399	0.28292847	0.09489441	
1465360814060999	0.037322998	0.30636597	0.084243774	
1465360824070764	0.013885498	0.33406067	0.06826782	
1465360834050012	-0.009552002	0.36495972	0.044830322	
1465360844059778	-0.03831482	0.4139557	0.012863159	
1465360854069544	-0.072402954	0.48320007	-0.028671265	
1465360874058557	-0.18319702	0.686676	-0.12348938	
1465360874058557	-0.18319702	0.686676	-0.12348938	
1465360884068323	-0.265213	0.8091736	-0.16397095	
1465360894047571	-0.36003113	0.9316864	-0.19273376	
1465360904057337	-0.47827148	1.038208	-0.2076416	
1465360914067102	-0.62420654	1.1063843	-0.19592285	
1465360924046350	-0.79145813	1.1330109	-0.15757751	
1465360934025598	-0.9555054	1.1159668	-0.10324097	
1465360944035364	-1.0726929	1.0286255	-0.06703186	
1465360964024378	-1.1323395	0.69200134	-0.15437317	
1465360964024378	-1.1323395	0.69200134	-0.15437317	
1465360974034143	-1.125946	0.50556946	-0.24598694	
1465360984013391	-1.1025238	0.33087158	-0.34080505	
1465360994023157	-1.0652313	0.20942688	-0.42282104	
1465361004032922	-1.0417938	0.1561737	-0.45690918	
1465361014012171	-1.0556488	0.13059998	-0.41430664	
1465361024021936	-1.0886688	0.08267212	-0.29711914	
1465361044010950	-1.0577698	-0.07925415	0.12045288	
1465361044010950	-1.0577698	-0.07925415	0.12045288	
1465361054020715	-0.9437866	-0.15063477	0.35694885	
1465361064030481	-0.7765503	-0.17832947	0.5455017	
1465361074009729	-0.57839966	-0.1655426	0.65415955	
1465361084019495	-0.3781433	-0.14103699	0.69036865	
1465361094029260	-0.18959045	-0.10801697	0.67759705	
1465361104008508	-0.021270752	-0.06434631	0.6285858	
1465361123997522	0.21520996	0.056030273	0.48371887	
1465361123997522	0.21520996	0.056030273	0.48371887	
1465361134007288	0.2972412	0.11143494	0.40489197	
1465361144017053	0.37394714	0.128479	0.33883667	
1465361153996301	0.44744873	0.116760254	0.2930298	
1465361164006067	0.51242065	0.083724976	0.26426697	
1465361173985315	0.55929565	0.036865234	0.25575256	
1465361183995081	0.58380127	-0.027053833	0.2706604	
1465361194004846	0.5944519	-0.10482788	0.29942322	
1465361203984094	0.6136322	-0.20388794	0.33457947	
1465361213963342	0.63812256	-0.32107544	0.37399292	
1465361223973108	0.6626282	-0.44677734	0.42726135	
1465361233982874	0.6903229	-0.570343	0.46879578	
1465361243992639	0.7095032	-0.6683502	0.48797607	
1465361254002405	0.72654724	-0.7407837	0.4890442	
1465361263981653	0.73612976	-0.8014984	0.4901123	
1465361273960901	0.7137604	-0.8451843	0.4975586	
1465361283970667	0.6466522	-0.85583496	0.50502014	
1465361293980432	0.5390625	-0.8238678	0.5124817	
1465361303959680	0.41122437	-0.7471771	0.5231323	
1465361313969446	0.28126526	-0.63638306	0.5316467	
1465361323948694	0.15130615	-0.49258423	0.5305939	
1465361333958460	0.025604248	-0.36260986	0.49543762	
1465361343968225	-0.08732605	-0.27420044	0.4229889	
1465361353947473	-0.18319702	-0.21560669	0.32818604	
1465361373967005	-0.3078308	-0.19856262	0.13005066	
1465361373967005	-0.3078308	-0.19856262	0.13005066	
1465361383946253	-0.35043335	-0.21560669	0.051223755	
1465361393956018	-0.38772583	-0.22306824	-0.015899658	
1465361403935266	-0.42288208	-0.20602417	-0.07875061	
1465361423924280	-0.5315399	-0.08457947	-0.15118408	
1465361423924280	-0.5315399	-0.08457947	-0.15118408	
1465361433934046	-0.6071625	0.015548706	-0.16716003	
1465361443943811	-0.6796112	0.12420654	-0.19059753	
1465361453953577	-0.7328644	0.22647095	-0.23426819	
1465361473912073	-0.78826904	0.45550537	-0.39086914	
1465361473912073	-0.78826904	0.45550537	-0.39086914	
1465361483921839	-0.79039	0.5780182	-0.48780823	
1465361493931604	-0.7765503	0.6653595	-0.56663513	
1465361503910852	-0.7669525	0.70477295	-0.6166992	
1465361513920618	-0.7893219	0.6909332	-0.659317	
1465361523899866	-0.85112	0.65470886	-0.70191956	
1465361533909631	-0.92355347	0.6057129	-0.7733002	
1465361543888880	-0.9587097	0.52368164	-0.87875366	
1465361553898645	-0.933136	0.43206787	-1.008728	
1465361573918176	-0.57414246	0.19345093	-1.247345	
1465361573918176	-0.57414246	0.19345093	-1.247345	
1465361583927942	-0.19917297	0.0070343018	-1.3059235	
1465361593907190	0.24717712	-0.21348572	-1.313385	
1465361603886438	0.68392944	-0.4126892	-1.2569275	
1465361613896204	1.0493164	-0.5405121	-1.1386871	
1465361623875452	1.2953949	-0.55648804	-0.9799652	
1465361633885217	1.4274902	-0.47554016	-0.8159027	
1465361643864465	1.4775543	-0.33384705	-0.6678314	
1465361653874231	1.458374	-0.13891602	-0.55384827	
1465361663883997	1.3891296	0.07627869	-0.49206543	
1465361673863245	1.2719574	0.27227783	-0.4675598	
1465361683873010	1.1419983	0.39691162	-0.47502136	
1465361693882776	1.0109711	0.43206787	-0.48355103	
1465361703862024	0.88101196	0.40118408	-0.4675598	
1465361713871790	0.7691498	0.31808472	-0.42495728	
1465361723851038	0.6871338	0.19345093	-0.35357666	
1465361733860803	0.6391907	0.044311523	-0.24705505	
1465361743840051	0.6210785	-0.09416199	-0.11709595	
1465361753849817	0.6274719	-0.20709229	0.009674072	
1465361773838831	0.70417786	-0.3327942	0.17372131	
1465361773838831	0.70417786	-0.3327942	0.17372131	
1465361783848596	0.75531006	-0.37646484	0.23017883	
1465361793858362	0.80963135	-0.39990234	0.2695923	
1465361803837610	0.8682251	-0.42333984	0.30262756	
1465361813816858	0.91189575	-0.43717957	0.33137512	
1465361823826624	0.9278717	-0.4116211	0.3484192	
1465361833836389	0.91082764	-0.34024048	0.35481262	
1465361843815637	0.867157	-0.23797607	0.36120605	
1465361853794885	0.8021698	-0.1186676	0.3686676	
1465361863804651	0.7233429	-0.0057525635	0.38571167	
1465361873814417	0.6402588	0.083724976	0.40808105	
1465361883824182	0.55822754	0.14445496	0.4283142	
1465361893833948	0.4772644	0.1796112	0.45602417	
1465361903813196	0.40057373	0.18598938	0.4890442	
1465361923802210	0.23332214	0.1870575	0.50927734	
1465361923802210	0.23332214	0.1870575	0.50927734	
1465361933811975	0.13105774	0.20942688	0.4975586	
1465361943821741	0.0181427	0.24032593	0.49116516	
1465361953800989	-0.10223389	0.27760315	0.48690796	
1465361963780237	-0.22473145	0.31915283	0.48371887	
1465361973790003	-0.3493805	0.37242126	0.48583984	
1465361983799768	-0.48999023	0.43634033	0.49223328	
1465361993809534	-0.64338684	0.49812317	0.48797607	
1465362003788782	-0.80210876	0.5322113	0.45814514	
1465362013798547	-0.96510315	0.5322113	0.40168762	
1465362023777796	-1.1355438	0.52049255	0.33776855	
1465362033787561	-1.3123779	0.5098419	0.2695923	
1465362043766809	-1.4849396	0.51516724	0.17797852	
1465362053776575	-1.6447296	0.5108948	0.04055786	
1465362063786340	-1.8109131	0.47575378	-0.11816406	
1465362083775354	-2.2412872	0.24884033	-0.31204224	
1465362083775354	-2.2412872	0.24884033	-0.31204224	
1465362093785120	-2.4596558	0.07946777	-0.28860474	
1465362103764368	-2.6460876	-0.10269165	-0.15544128	
1465362113774133	-2.7366333	-0.2955017	0.051223755	
1465362123753381	-2.653534	-0.51600647	0.45814514	
1465362133763147	-2.398941	-0.7642212	0.45814514	
1465362143772913	-2.0356903	-0.9975128	0.5902405	
1465362153782678	-1.6266327	-1.1477203	0.6477661	
1465362163761926	-1.2037201	-1.2009735	0.62965393	
1465362173741174	-0.8138275	-1.1679535	0.5700073	
1465362183750940	-0.4825287	-1.0742188	0.503952	
1465362193730188	-0.20663452	-0.9367981	0.470932	
1465362203739954	0.013885498	-0.7706146	0.44963074	
1465362213749719	0.18218994	-0.6140137	0.43045044	
1465362233738733	0.41122437	-0.36793518	0.3921051	
1465362233738733	0.41122437	-0.36793518	0.3921051	
1465362243717981	0.47407532	-0.25289917	0.35801697	
1465362253727747	0.50497437	-0.15489197	0.3207245	
1465362263737512	0.50816345	-0.10055542	0.30049133	
1465362273716760	0.48898315	-0.10694885	0.30155945	
1465362283696008	0.45703125	-0.15701294	0.32818604	
1465362293705774	0.43040466	-0.24543762	0.36120605	
1465362313694788	0.4421234	-0.46487427	0.4197998	
1465362313694788	0.4421234	-0.46487427	0.4197998	
1465362323704553	0.4644928	-0.56288147	0.45069885	
1465362333714319	0.48898315	-0.6257324	0.46879578	
1465362343693567	0.50390625	-0.6353302	0.47200012	
1465362353703333	0.50709534	-0.617218	0.4698639	
1465362363682581	0.50390625	-0.58099365	0.46879578	
1465362373692346	0.48046875	-0.5223999	0.47839355	
1465362393681360	0.4026947	-0.3508911	0.58277893	
1465362393681360	0.4026947	-0.3508911	0.58277893	
1465362403691126	0.41015625	-0.2912445	0.71061707	
1465362413670374	0.45489502	-0.28271484	0.90556335	
1465362423680139	0.49751282	-0.3104248	1.187851	
1465362433659387	0.5252075	-0.32107544	1.490387	
1465362443669153	0.55397034	-0.30189514	1.7098389	
1465362453678919	0.5933838	-0.31680298	1.7833405	
1465362463658167	0.6391907	-0.39030457	1.7375336	
1465362473667932	0.6818085	-0.5085602	1.603302	
1465362483677698	0.68925476	-0.63319397	1.427536	
1465362493656946	0.65304565	-0.7418518	1.28479	
1465362503666712	0.5710144	-0.8718109	1.2091675	
1465362513676477	0.47833252	-1.0294647	1.1516418	
1465362533665491	0.2961731	-1.2489166	1.0131531	
1465362533665491	0.2961731	-1.2489166	1.0131531	
1465362543675256	0.20776367	-1.2510529	0.9396515	
1465362553654505	0.122543335	-1.1935272	0.8608246	
1465362563664270	0.0692749	-1.0720825	0.75535583	
1465362573674036	0.06820679	-0.95384216	0.63604736	
1465362593663049	0.18218994	-0.8238678	0.43151855	
1465362593663049	0.18218994	-0.8238678	0.43151855	
1465362603642297	0.22799683	-0.7738037	0.35269165	
1465362613621546	0.2184143	-0.6949768	0.25361633	
1465362623631311	0.14491272	-0.60124207	0.13537598	
1465362633641077	0.008560181	-0.48191833	0.01713562	
1465362643650842	-0.17254639	-0.3508911	-0.09365845	
1465362653630090	-0.36428833	-0.25502014	-0.19059753	
1465362663609339	-0.5155487	-0.21453857	-0.26623535	
1465362673619104	-0.5911865	-0.24118042	-0.309906	
1465362693608118	-0.4825287	-0.5223999	-0.3280182	
1465362693608118	-0.4825287	-0.5223999	-0.3280182	
1465362703617883	-0.34510803	-0.71095276	-0.3290863	
1465362713601105	-0.2013092	-0.8387909	-0.3322754	
1465362723610871	-0.09370422	-0.8473053	-0.34292603	
1465362743599885	-0.025527954	-0.58418274	-0.39512634	
1465362743599885	-0.025527954	-0.58418274	-0.39512634	
1465362753609650	-0.045776367	-0.40309143	-0.45158386	
1465362763619416	-0.09051514	-0.25502014	-0.51976013	
1465362773598664	-0.15762329	-0.15382385	-0.5932617	
1465362783577912	-0.23539734	-0.092041016	-0.6550598	
1465362793587678	-0.30462646	-0.054748535	-0.6870117	
1465362803597443	-0.33338928	-0.10055542	-0.67315674	
1465362823586457	-0.2886505	-0.4073639	-0.57302856	
1465362823586457	-0.2886505	-0.4073639	-0.57302856	
1465362833596223	-0.22154236	-0.5181427	-0.51657104	
1465362843575471	-0.13632202	-0.6608887	-0.43667603	
1465362853585236	-0.045776367	-0.6608887	-0.43667603	
1465362863564484	0.02772522	-0.63319397	-0.42175293	
1465362873574250	0.07141113	-0.53944397	-0.40045166	
1465362883584016	0.0884552	-0.3924408	-0.37594604	
1465362903573029	0.036254883	-0.09416199	-0.3525238	
1465362903573029	0.036254883	-0.09416199	-0.3525238	
1465362913552277	-0.027664185	0.038986206	-0.3322754	
1465362933541291	-0.16827393	0.22860718	-0.29818726	
1465362933541291	-0.16827393	0.22860718	-0.29818726	
1465362943551057	-0.2290039	0.2850647	-0.27156067	
1465362953530305	-0.2748108	0.3361969	-0.24066162	
1465362963540070	-0.3035736	0.40330505	-0.21617126	
1465362973549836	-0.29504395	0.5108948	-0.2118988	
1465362983529084	-0.2087555	0.5833435	-0.23747253	
1465362993538850	-0.027664185	0.57588196	-0.29179382	
1465363003548615	0.21308899	0.5332794	-0.34931946	
1465363013527863	0.46128845	0.5119629	-0.4068451	
1465363023537629	0.6626282	0.5332794	-0.4313507	
1465363033516877	0.7979126	0.5907898	-0.39512634	
1465363053536408	0.90870667	0.76976013	-0.24066162	
1465363053536408	0.90870667	0.76976013	-0.24066162	
1465363063546174	0.8458557	0.8187561	-0.15544128	
1465363073525422	0.6871338	0.84858704	-0.096847534	
1465363083504670	0.45384216	0.8421936	-0.08407593	
1465363093514436	0.1907196	0.72502136	-0.1138916	
1465363103493684	-0.09051514	0.51623535	-0.17674255	
1465363113503449	-0.40795898	0.3170166	-0.2534485	
1465363123482697	-0.7403259	0.18173218	-0.30776978	
1465363133492463	-1.046051	0.07839966	-0.31629944	
1465363143502229	-1.3187714	-0.013214111	-0.2864685	
1465363153511994	-1.5573883	-0.061141968	-0.23426819	
1465363163491242	-1.744873	-0.04197693	-0.15969849	
1465363173501008	-1.8620453	-0.0057525635	-0.09472656	
1465363183480256	-1.8929443	-0.025985718	-0.06915283	
1465363203499787	-1.680954	-0.30615234	-0.07661438	
1465363203499787	-1.680954	-0.30615234	-0.07661438	
1465363213509553	-1.4636383	-0.60975647	-0.065963745	
1465363223488801	-1.219696	-0.9719391	-0.07342529	
1465363233498566	-0.99172974	-1.285141	-0.12135315	
1465363243508332	-0.8180847	-1.4790192	-0.19592285	
1465363253487580	-0.69984436	-1.5365295	-0.2587738	
1465363263466828	-0.62420654	-1.460907	-0.3045807	
1465363273476594	-0.57839966	-1.2723541	-0.33973694	
1465363283455842	-0.5400543	-1.0379944	-0.34825134	
1465363303444855	-0.39198303	-0.6417084	-0.21510315	
1465363303444855	-0.39198303	-0.6417084	-0.21510315	
1465363313454621	-0.23007202	-0.4670105	-0.07022095	
1465363323464387	0.0042877197	-0.35409546	0.11087036	
1465363333443635	0.26634216	-0.33491516	0.2940979	
1465363343453400	0.4879303	-0.34024048	0.44856262	
1465363353463166	0.6178894	-0.3455658	0.55296326	
1465363363442414	0.6668854	-0.35195923	0.5859833	
1465363373421662	0.6636963	-0.41374207	0.5359192	
1465363383431428	0.6200104	-0.57673645	0.424057	
1465363393441193	0.55929565	-0.7919159	0.2909088	
1465363403420441	0.50177	-1.0070953	0.16520691	
1465363413430207	0.45384216	-1.2233429	0.070388794	
1465363423439973	0.39736938	-1.4577026	0.0107421875	
1465363433449738	0.31214905	-1.6249542	-0.02973938	
1465363443428986	0.2141571	-1.6750183	-0.061706543	
1465363453438752	0.120407104	-1.5514526	-0.09152222	
1465363463418000	0.05116272	-1.2670288	-0.120285034	
1465363473427766	0.0181427	-0.9165497	-0.13627625	
1465363483407014	0.002166748	-0.5500946	-0.12135315	
1465363503426545	0.038375854	0.1796112	0.041625977	
1465363503426545	0.038375854	0.1796112	0.041625977	
1465363513405793	0.10017395	0.47468567	0.17372131	
1465363523415559	0.1747284	0.6792145	0.30474854	
1465363533425324	0.27166748	0.7857361	0.4155426	
1465363553414338	0.4964447	0.65364075	0.5721283	
1465363553414338	0.4964447	0.65364075	0.5721283	
1465363563393586	0.5518341	0.433136	0.6008911	
1465363583382600	0.37713623	-0.062210083	0.4336548	
1465363583382600	0.37713623	-0.062210083	0.4336548	
1465363593392365	0.18432617	-0.24969482	0.28024292	
1465363603402131	0.0032348633	-0.42866516	0.13323975	
1465363613381379	-0.14697266	-0.5937805	0.020324707	
1465363623391145	-0.25349426	-0.65023804	-0.057434082	
1465363633370393	-0.3067627	-0.5639496	-0.11177063	
1465363643380158	-0.3078308	-0.35942078	-0.11923218	
1465363653389924	-0.25349426	-0.16661072	-0.08087158	
1465363663369172	-0.1544342	-0.0632782	-0.01802063	
1465363673378938	-0.06175232	-0.037704468	0.05227661	
1465363693367951	-0.15229797	-0.040908813	0.13963318	
1465363693367951	-0.15229797	-0.040908813	0.13963318	
1465363703377717	-0.35575867	0.02407837	0.13323975	
1465363723336213	-0.7328644	0.2339325	0.00541687	
1465363723336213	-0.7328644	0.2339325	0.00541687	
1465363733345979	-0.74565125	0.31063843	-0.09365845	
1465363753334992	-0.3344574	0.15829468	-0.29179382	
1465363753334992	-0.3344574	0.15829468	-0.29179382	
1465363763314240	-0.01914978	-0.061141968	-0.3876648	
1465363773324006	0.26634216	-0.281662	-0.48460388	
1465363783333771	0.47621155	-0.42866516	-0.56877136	
1465363803322785	0.6264038	-0.43185425	-0.7072449	
1465363803322785	0.6264038	-0.43185425	-0.7072449	
1465363813332551	0.5933838	-0.3381195	-0.77116394	
1465363823311799	0.5166931	-0.21774292	-0.8297577	
1465363833321564	0.41015625	-0.08778381	-0.8830261	
1465363843331330	0.29937744	0.038986206	-0.91178894	
1465363853310578	0.20243835	0.15829468	-0.9128418	
1465363863320344	0.12998962	0.210495	-0.9224396	
1465363873330109	0.08950806	0.22753906	-0.95225525	
1465363883309357	0.09378052	0.25097656	-0.9820862	
1465363893319123	0.14598083	0.2584381	-0.9970093	
1465363903298371	0.24078369	0.2339325	-1.0119171	
1465363913308137	0.36860657	0.18919373	-1.0289612	
1465363923317902	0.51242065	0.12313843	-1.0257721	
1465363933297150	0.644516	0.02619934	-0.99380493	
1465363943306916	0.7137604	-0.06539917	-0.9277649	
1465363963295930	0.5688782	-0.09629822	-0.73921204	
1465363963295930	0.5688782	-0.09629822	-0.73921204	
1465363973305695	0.4261322	-0.08778381	-0.64759827	
1465363983284943	0.3004303	-0.07711792	-0.5698242	
1465363993294709	0.2642212	-0.12399292	-0.51657104	
1465364003304475	0.38139343	-0.3178711	-0.48355103	
1465364013283723	0.5944519	-0.52027893	-0.5272217	
1465364023262971	0.7979126	-0.5650177	-0.659317	
1465364033272736	0.914032	-0.52667236	-0.81910706	
1465364043282502	0.9225464	-0.45315552	-0.9405365	
1465364053261750	0.8501129	-0.3423767	-0.97462463	
1465364063271516	0.73399353	-0.3189392	-0.8990021	
1465364073281281	0.597641	-0.3423767	-0.7733002	
1465364093270295	0.3664856	-0.1144104	-0.63694763	
1465364093270295	0.3664856	-0.1144104	-0.63694763	
1465364103280061	0.31002808	-0.018539429	-0.59539795	
1465364113259309	0.28019714	0.010223389	-0.5421295	
1465364123238557	0.2418518	-0.011077881	-0.46543884	
1465364143258088	-0.006362915	-0.24118042	-0.31948853	
1465364143258088	-0.006362915	-0.24118042	-0.31948853	
1465364153267854	-0.24604797	-0.2859192	-0.2577057	
1465364163247102	-0.48999023	-0.24862671	-0.19805908	
1465364173226350	-0.67108154	-0.18577576	-0.10218811	
1465364193245881	-0.86177063	-0.33598328	0.19290161	
1465364193245881	-0.86177063	-0.33598328	0.19290161	
1465364203225129	-0.9065094	-0.36688232	0.31539917	
1465364213234895	-0.9480591	-0.35621643	0.38464355	
1465364223244660	-1.0407257	-0.3413086	0.40489197	
1465364243233674	-1.3358154	-0.33917236	0.39422607	
1465364243233674	-1.3358154	-0.33917236	0.39422607	
1465364253212922	-1.4828186	-0.35195923	0.3995514	
1465364263222688	-1.647934	-0.281662	0.43045044	
1465364273232453	-1.8300934	-0.13038635	0.5167389	
1465364283211701	-1.9376831	-0.045166016	0.6658783	
1465364293190949	-1.9664459	-0.06967163	0.88212585	
1465364303200715	-1.9238281	-0.20709229	1.1164856	
1465364313210480	-1.8162384	-0.4989624	1.2688141	
1465364323220246	-1.6628418	-0.9676819	1.265625	
1465364343178742	-1.4146423	-1.6015167	0.8150177	
1465364343178742	-1.4146423	-1.6015167	0.8150177	
1465364353188508	-1.3208923	-1.6047211	0.5135498	
1465364363198273	-1.1856079	-1.4715576	0.26107788	
1465364373177521	-0.99172974	-1.2212219	0.039505005	
1465364383187287	-0.7520447	-0.9091034	-0.15757751	
1465364393197053	-0.49957275	-0.5596924	-0.31097412	
1465364403176301	-0.24284363	-0.13038635	-0.40898132	
1465364413155549	0.035186768	0.2808075	-0.43667603	
1465364423165314	0.28871155	0.5140991	-0.42495728	
1465364443184846	0.58273315	0.8432617	-0.36849976	
1465364443184846	0.58273315	0.8432617	-0.36849976	
1465364453164094	0.6349335	0.89759827	-0.32055664	
1465364463173859	0.6391907	0.829422	-0.28860474	
1465364473183625	0.60084534	0.688797	-0.24705505	
1465364483162873	0.5252075	0.52156067	-0.1991272	
1465364493172639	0.41975403	0.3170166	-0.1522522	
1465364503151887	0.3014984	0.105041504	-0.13414001	
1465364513161652	0.1747284	-0.05795288	-0.15544128	
1465364523171418	0.038375854	-0.19110107	-0.19592285	
1465364543160432	-0.22473145	-0.38604736	-0.27049255	
1465364543160432	-0.22473145	-0.38604736	-0.27049255	
1465364553139680	-0.32380676	-0.3881836	-0.27368164	
1465364563149445	-0.37280273	-0.3231964	-0.2587738	
1465364573159211	-0.38026428	-0.20495605	-0.21829224	
1465364593117707	-0.34191895	0.0017089844	-0.030807495	
1465364593117707	-0.34191895	0.0017089844	-0.030807495	
1465364603127473	-0.30996704	0.09011841	0.08317566	
1465364613137238	-0.27160645	0.095443726	0.15988159	
1465364623116486	-0.29292297	-0.07711792	0.16093445	
1465364643105500	-0.6923828	-0.6108246	0.03843689	
1465364643105500	-0.6923828	-0.6108246	0.03843689	
1465364653115266	-0.94166565	-0.6385193	0.032043457	
1465364663125031	-1.122757	-0.50216675	0.09703064	
1465364673134797	-1.1834717	-0.2166748	0.22911072	
1465364683114045	-1.1483154	0.060287476	0.36227417	
1465364693123811	-1.073761	0.11248779	0.4613495	
1465364703103059	-0.97254944	-0.035583496	0.470932	
1465364713082307	-0.87561035	-0.30403137	0.36546326	
1465364723092072	-0.80104065	-0.23478699	0.2110138	
1465364733101838	-0.6870575	-0.20921326	0.049087524	
1465364753090852	-0.5155487	-0.55223083	-0.22254944	
1465364753090852	-0.5155487	-0.55223083	-0.22254944	
1465364763100617	-0.4825287	-0.6374512	-0.33015442	
1465364773110383	-0.48999023	-0.7695465	-0.39405823	
1465364783120148	-0.5283356	-0.91548157	-0.4079132	
1465364793099396	-0.59225464	-0.9463806	-0.39405823	
1465364803078645	-0.69984436	-0.8707428	-0.3791504	
1465364813088410	-0.81596375	-0.7972412	-0.36424255	
1465364823067658	-0.9256897	-0.7003021	-0.34931946	
1465364843056672	-1.0375366	-0.42546082	-0.28434753	
1465364843056672	-1.0375366	-0.42546082	-0.28434753	
1465364853066438	-0.95018005	-0.30828857	-0.26730347	
1465364863076203	-0.74671936	-0.22518921	-0.27900696	
1465364873055451	-0.45269775	-0.15489197	-0.30671692	
1465364883065217	-0.08732605	-0.10269165	-0.3418579	
1465364893044465	0.31321716	-0.09310913	-0.3802185	
1465364903054230	0.7052307	-0.07392883	-0.41749573	
1465364913063996	1.0322723	-0.030258179	-0.44413757	
1465364923043244	1.265564	0.012359619	-0.4590454	
1465364933053010	1.3870087	0.09225464	-0.4590454	
1465364943032258	1.3997955	0.21688843	-0.4590454	
1465364963051789	1.2506561	0.4096985	-0.36636353	
1465364963051789	1.2506561	0.4096985	-0.36636353	
1465364973031037	1.1451874	0.47148132	-0.28860474	
1465364983040803	1.0322723	0.51623535	-0.1884613	
1465364993050568	0.92681885	0.49598694	-0.06808472	
1465365003060334	0.87887573	0.34365845	0.058670044	
1465365013039582	0.92149353	0.10397339	0.17478943	
1465365023018830	1.0290833	-0.048355103	0.262146	
1465365033028596	1.1377411	-0.0206604	0.29942322	
1465365043007844	1.2101746	0.05177307	0.28237915	
1465365052987092	1.2389374	0.0539093	0.23338318	
1465365073006623	1.1888733	-0.021728516	0.18650818	
1465365073006623	1.1888733	-0.021728516	0.18650818	
1465365083016389	1.1153717	-0.03665161	0.22485352	
1465365092995637	1.0173645	-0.0398407	0.30474854	
1465365103005402	0.89378357	-0.011077881	0.40914917	
1465365112984650	0.73399353	0.116760254	0.5028839	
1465365122994416	0.54971313	0.23286438	0.55722046	
1465365133004182	0.36860657	0.23925781	0.5731964	
1465365152993195	0.096969604	0.128479	0.4975586	
1465365152993195	0.096969604	0.128479	0.4975586	
1465365162972443	0.013885498	0.08479309	0.43577576	
1465365172982209	-0.043640137	0.06455994	0.3878479	
1465365182991975	-0.09265137	0.10076904	0.38145447	
1465365192971223	-0.13845825	0.17854309	0.4155426	
1465365202980988	-0.1778717	0.24565125	0.47306824	
1465365212990754	-0.20982361	0.27120972	0.517807	
1465365222970002	-0.25881958	0.21902466	0.519928	
1465365232979768	-0.33233643	0.072006226	0.48583984	
1465365242959016	-0.43460083	-0.1612854	0.42726135	
1465365252968781	-0.54644775	-0.50109863	0.3633423	
1465365262978547	-0.6593628	-0.83132935	0.27172852	
1465365272957795	-0.73713684	-0.8909912	0.18437195	
1465365282967561	-0.7477875	-0.77700806	0.16946411	
1465365292946809	-0.69558716	-0.6481018	0.25575256	
1465365302956574	-0.61994934	-0.54904175	0.424057	
1465365312966340	-0.5389862	-0.49363708	0.63072205	
1465365322945588	-0.47613525	-0.4393158	0.81074524	
1465365332955354	-0.44950867	-0.3508911	0.9194031	
1465365342934602	-0.46229553	-0.21560669	0.96095276	
1465365352944367	-0.49957275	-0.070739746	0.96095276	
1465365362954133	-0.5528412	0.05923462	0.949234	
1465365372963898	-0.5997162	0.14871216	0.9545593	
1465365382943146	-0.6263428	0.18386841	0.98439026	
1465365402932160	-0.56562805	-0.023864746	1.0078278	
1465365402932160	-0.56562805	-0.023864746	1.0078278	
1465365412941926	-0.487854	-0.15914917	0.92793274	
1465365422951691	-0.38346863	-0.21028137	0.81074524	
1465365432930939	-0.25456238	-0.32426453	0.6690674	
1465365442940705	-0.103302	-0.37220764	0.517807	
1465365452919953	0.063949585	-0.35302734	0.3644104	
1465365462899201	0.25143433	-0.2944336	0.22485352	
1465365472908967	0.45384216	-0.22413635	0.117263794	
1465365482918732	0.65623474	-0.1421051	0.049087524	
1465365492897980	0.8415985	-0.03665161	0.0107421875	
1465365502907746	0.98753357	0.10609436	-0.016952515	
1465365512917512	1.0748901	0.29464722	-0.03933716	
1465365522896760	1.103653	0.51623535	-0.05531311	
1465365532876008	1.106842	0.702652	-0.07022095	
1465365542885773	1.0972595	0.81770325	-0.063827515	
1465365552895539	1.0727539	0.8656311	-0.02015686	
1465365562874787	1.0312042	0.84432983	0.055480957	
1465365582863801	0.94065857	0.5364685	0.2387085	
1465365582863801	0.94065857	0.5364685	0.2387085	
1465365592873566	0.90444946	0.3404541	0.31221008	
1465365602883332	0.8767395	0.14125061	0.38464355	
1465365612862580	0.8543701	-0.048355103	0.46028137	
1465365622872346	0.8394623	-0.19537354	0.5220642	
1465365632882111	0.83306885	-0.29763794	0.5944977	
1465365642861359	0.8234863	-0.3647461	0.707428	
1465365662850373	0.7190857	-0.49363708	1.0472412	
1465365662850373	0.7190857	-0.49363708	1.0472412	
1465365672860139	0.6189575	-0.7418518	1.2496338	
1465365682839387	0.564621	-1.1360016	1.4211426	
1465365692849152	0.5465088	-1.177536	1.4871979	
1465365702828400	0.51135254	-0.9431915	1.458435	
1465365762825959	-0.103302	-1.0379944	1.0664215	
1465365762825959	-0.103302	-1.0379944	1.0664215	
1465365762825959	-0.103302	-1.0379944	1.0664215	
1465365762825959	-0.103302	-1.0379944	1.0664215	
1465365762825959	-0.103302	-1.0379944	1.0664215	
1465365762825959	-0.103302	-1.0379944	1.0664215	
1465365782814973	-0.053237915	-1.031601	0.9705353	
1465365782814973	-0.053237915	-1.031601	0.9705353	
1465365792794221	0.0042877197	-0.9975128	0.9449768	
1465365802803986	0.023468018	-0.93359375	0.9119568	
1465365812813752	0.0042877197	-0.8664856	0.85868835	
1465365822793000	-0.022338867	-0.8100281	0.7766571	
1465365832802766	-0.045776367	-0.78552246	0.660553	
1465365842782014	-0.06388855	-0.7865906	0.51460266	
1465365852791779	-0.06921387	-0.7727356	0.36653137	
1465365862771027	-0.055358887	-0.69711304	0.2429657	
1465365872780793	-0.018081665	-0.5596924	0.17053223	
1465365882790559	0.057556152	-0.39457703	0.1492157	
1465365892769807	0.15875244	-0.22946167	0.15560913	
1465365902779572	0.23652649	-0.049423218	0.17053223	
1465365912789338	0.24610901	0.21369934	0.17158508	
1465365922768586	0.16407776	0.43527222	0.15454102	
1465365932778352	0.0415802	0.49812317	0.13005066	
1465365942757600	-0.062820435	0.62275696	0.095962524	
1465365952767365	-0.0990448	0.7878723	0.05760193	
1465365962746613	-0.08093262	0.87416077	0.032043457	
1465365982766145	0.03199768	0.526886	0.016067505	
1465365982766145	0.03199768	0.526886	0.016067505	
1465365992745393	0.13851929	0.21688843	-0.014831543	
1465366012764924	0.3675537	-0.14849854	-0.1330719	
1465366012764924	0.3675537	-0.14849854	-0.1330719	
1465366022744172	0.4453125	-0.13677979	-0.18101501	
1465366042763703	0.50923157	0.30104065	-0.26091003	
1465366042763703	0.50923157	0.30104065	-0.26091003	
1465366052773469	0.4996338	0.69944763	-0.30351257	
1465366062752717	0.47514343	1.0744324	-0.31523132	
1465366072762482	0.43998718	1.4217072	-0.27368164	
1465366092751496	0.23225403	1.7956085	-0.122421265	
1465366092751496	0.23225403	1.7956085	-0.122421265	
1465366102761262	0.07034302	1.3886719	-0.101119995	
1465366112771027	-0.10223389	1.2331543	-0.18740845	
1465366122750275	-0.21514893	0.9306183	-0.32269287	
1465366132729523	-0.2801361	0.6909332	-0.40898132	
1465366142739289	-0.29611206	0.5492554	-0.44093323	
1465366152749055	-0.26948547	0.44059753	-0.4398651	
1465366162728303	-0.21621704	0.42567444	-0.40898132	
1465366172738068	-0.17041016	0.4885254	-0.34506226	
1465366182717316	-0.14057922	0.58013916	-0.24705505	
1465366192727082	-0.13632202	0.67601013	-0.13839722	
1465366202706330	-0.1618805	0.7548523	-0.05317688	
1465366212716096	-0.20024109	0.79319763	-0.02015686	
1465366222725861	-0.24284363	0.8123779	-0.04359436	
1465366232705109	-0.27693176	0.8070526	-0.09365845	
1465366242714875	-0.29504395	0.7580414	-0.14797974	
1465366252694123	-0.28652954	0.641922	-0.19273376	
1465366262703889	-0.27267456	0.5034485	-0.21403503	
1465366272713654	-0.2513733	0.37774658	-0.2076416	
1465366282692902	-0.20768738	0.31808472	-0.17141724	
1465366292702668	-0.14271545	0.39691162	-0.096847534	
1465366302712434	-0.06921387	0.6195526	0.020324707	
1465366312722199	0.022399902	0.85284424	0.16307068	
1465366322701447	0.11401367	1.0403442	0.32499695	
1465366332680695	0.15663147	1.4078522	0.53697205	
1465366342690461	0.3387909	1.4430084	0.613678	
1465366352669709	0.5337372	0.97428894	0.52845764	
1465366362679475	0.42826843	0.8240967	0.4187317	
1465366372689240	0.13212585	0.84539795	0.28556824	
1465366382668488	-0.13313293	0.862442	0.2237854	
1465366392678254	-0.32913208	0.85072327	0.28451538	
1465366402657502	-0.44631958	0.7644348	0.3878479	
1465366412667268	-0.4867859	0.6206207	0.4613495	
1465366422677033	-0.487854	0.5045166	0.46774292	
1465366432656281	-0.47720337	0.49279785	0.41233826	
1465366442666047	-0.46122742	0.5854645	0.32818604	
1465366452675813	-0.44099426	0.6930542	0.26000977	
1465366462655061	-0.41648865	0.72395325	0.2387085	
1465366472664826	-0.3898468	0.72395325	0.26000977	
1465366482644074	-0.34617615	0.735672	0.297287	
1465366492653840	-0.26202393	0.7186279	0.32711792	
1465366502633088	-0.14590454	0.61743164	0.3367157	
1465366512642854	0.0032348633	0.4810791	0.3217926	
1465366522652619	0.20030212	0.33406067	0.27172852	
1465366532631867	0.42401123	0.1561737	0.20355225	
1465366542641633	0.6434479	-0.0046844482	0.13537598	
1465366552651398	0.83200073	-0.13571167	0.072525024	
1465366562661164	0.96302795	-0.21134949	0.023513794	
1465366572640412	1.026947	-0.19856262	-0.010574341	
1465366592629426	0.9715576	-0.003616333	-0.047851562	
1465366592629426	0.9715576	-0.003616333	-0.047851562	
1465366602608674	0.87994385	0.08905029	-0.059570312	
1465366622628205	0.6413269	0.07839966	-0.075546265	
1465366622628205	0.6413269	0.07839966	-0.075546265	
1465366632607453	0.50709534	-0.007888794	-0.077682495	
1465366652626984	0.26315308	-0.1974945	-0.05317688	
1465366652626984	0.26315308	-0.1974945	-0.05317688	
1465366662636750	0.18325806	-0.27420044	-0.01802063	
1465366672615998	0.13638306	-0.3423767	0.032043457	
1465366682625764	0.12573242	-0.39457703	0.08743286	
1465366692605012	0.13531494	-0.4393158	0.13749695	
1465366702614777	0.1438446	-0.4670105	0.15881348	
1465366712624543	0.14064026	-0.45103455	0.14389038	
1465366722603791	0.13212585	-0.39457703	0.121520996	
1465366732613557	0.13745117	-0.3221283	0.1449585	
1465366742592805	0.13319397	-0.25076294	0.21633911	
1465366752572053	0.10122681	-0.14849854	0.2909088	
1465366762581818	0.054367065	-0.03451538	0.33776855	
1465366772591584	0.017074585	0.062423706	0.36120605	
1465366782570832	0.00642395	0.07627869	0.3675995	
1465366792580598	0.0032348633	0.0059661865	0.3367157	
1465366802559846	0.00642395	-0.1101532	0.27386475	
1465366812569611	0.019210815	-0.25289917	0.2003479	
1465366822548859	0.030929565	-0.37539673	0.13537598	
1465366832558625	0.025604248	-0.44677734	0.08317566	
1465366842568391	0.0181427	-0.5383911	0.033111572	
1465366852578156	0.02986145	-0.67900085	-0.021224976	
1465366862587922	0.06074524	-0.8110962	-0.06915283	
1465366872567170	0.106552124	-0.8718109	-0.09365845	
1465366882546418	0.15235901	-0.8569031	-0.10218811	
1465366892556184	0.18858337	-0.80044556	-0.10644531	
1465366902535432	0.1907196	-0.70562744	-0.11495972	
1465366912545197	0.13638306	-0.5469055	-0.124557495	
1465366922554963	0.026657104	-0.32746887	-0.1288147	
1465366932564729	-0.11395264	-0.089904785	-0.11709595	
1465366942543977	-0.24923706	0.109298706	-0.09365845	
1465366952553742	-0.3578949	0.25630188	-0.06489563	
1465366962532990	-0.4601593	0.39691162	-0.036132812	
1465366972512238	-0.57095337	0.5396576	-0.02229309	
1465366982522004	-0.6796112	0.6429901	-0.010574341	
1465366992531770	-0.77867126	0.6802826	0.01713562	
1465367002541535	-0.84365845	0.6355438	0.03843689	
1465367012520783	-0.81489563	0.46403503	0.02885437	
1465367032540314	-0.41435242	-0.12931824	-0.09791565	
1465367032540314	-0.41435242	-0.12931824	-0.09791565	
1465367042519563	-0.09690857	-0.38179016	-0.18952942	
1465367052498811	0.21520996	-0.50749207	-0.28967285	
1465367062508576	0.4644928	-0.48086548	-0.38980103	
1465367072518342	0.6178894	-0.33598328	-0.4782257	
1465367082528107	0.6711426	-0.12719727	-0.54533386	
1465367092507355	0.64237976	0.11036682	-0.5868683	
1465367102517121	0.54971313	0.35005188	-0.6060486	
1465367112496369	0.41654968	0.53860474	-0.59858704	
1465367122506135	0.28126526	0.6355438	-0.57621765	
1465367132485383	0.17047119	0.6344757	-0.5517273	
1465367152474396	0.07992554	0.4075775	-0.51657104	
1465367152474396	0.07992554	0.4075775	-0.51657104	
1465367162484162	0.1118927	0.24139404	-0.49739075	
1465367172493928	0.1907196	0.07946777	-0.47608948	
1465367182503693	0.29084778	-0.061141968	-0.46437073	
1465367192482941	0.39950562	-0.14956665	-0.46862793	
1465367202462189	0.5007019	-0.18684387	-0.49313354	
1465367212471955	0.5795288	-0.18791199	-0.5240326	
1465367222481721	0.6136322	-0.1655426	-0.5591736	
1465367232460969	0.597641	-0.11973572	-0.5879364	
1465367252480500	0.4730072	-0.068603516	-0.5101776	
1465367252480500	0.4730072	-0.068603516	-0.5101776	
1465367262490266	0.32919312	-0.06539917	-0.4121704	
1465367282448762	-0.056427002	0.107162476	-0.23640442	
1465367282448762	-0.056427002	0.107162476	-0.23640442	
1465367302437775	-0.2566986	0.30104065	-0.1330719	
1465367302437775	-0.2566986	0.30104065	-0.1330719	
1465367312447541	-0.2524414	0.3596344	-0.124557495	
1465367332467072	-0.10437012	0.3276825	-0.1884613	
1465367332467072	-0.10437012	0.3276825	-0.1884613	
1465367342446320	0.010681152	0.20942688	-0.23426819	
1465367362435334	0.1715393	-4.272461E-4	-0.2577057	
1465367362435334	0.1715393	-4.272461E-4	-0.2577057	
1465367372414582	0.20883179	-0.07392883	-0.1991272	
1465367382424348	0.2141571	-0.1421051	-0.10644531	
1465367392434113	0.16195679	-0.15275574	0.0011444092	
1465367402443879	0.052230835	-0.078186035	0.11833191	
1465367412423127	-0.109695435	0.06774902	0.24082947	
1465367422432893	-0.30036926	0.2381897	0.35055542	
1465367442391389	-0.661499	0.42674255	0.45495605	
1465367442391389	-0.661499	0.42674255	0.45495605	
1465367452401154	-0.7839966	0.43206787	0.4741211	
1465367462380402	-0.85324097	0.39265442	0.51460266	
1465367472390168	-0.8926544	0.3628235	0.5636139	
1465367482399934	-0.9288788	0.40437317	0.6179352	
1465367492409699	-0.97468567	0.5396576	0.68292236	
1465367502388947	-1.0311432	0.72502136	0.7478943	
1465367512398713	-1.090805	0.9167633	0.7926483	
1465367522377961	-1.1291504	1.0584412	0.7915802	
1465367542397492	-0.9853363	0.84965515	0.6381836	
1465367542397492	-0.9853363	0.84965515	0.6381836	
1465367552376740	-0.75737	0.49279785	0.5188751	
1465367562386506	-0.46868896	0.12953186	0.39743042	
1465367572365754	-0.16082764	-0.14956665	0.28237915	
1465367582375520	0.1438446	-0.33172607	0.15454102	
1465367592385285	0.4261322	-0.40309143	0.01713562	
1465367602364533	0.6679535	-0.35621643	-0.12988281	
1465367612343781	0.8234863	-0.23158264	-0.29393005	
1465367622353547	0.8735504	-0.061141968	-0.45265198	
1465367642373078	0.78300476	0.29145813	-0.7008667	
1465367642373078	0.78300476	0.29145813	-0.7008667	
1465367652352326	0.68392944	0.43952942	-0.79460144	
1465367662362092	0.5763397	0.54286194	-0.87768555	
1465367672341340	0.48472595	0.5780182	-0.9405365	
1465367692330354	0.36009216	0.45124817	-0.9373474	
1465367692330354	0.36009216	0.45124817	-0.9373474	
1465367702340119	0.35050964	0.2893219	-0.84147644	
1465367712349885	0.3718109	0.09118652	-0.67529297	
1465367722359650	0.39736938	-0.10801697	-0.47183228	
1465367732369416	0.40376282	-0.2869873	-0.2779541	
1465367742348664	0.39736938	-0.42652893	-0.14160156	
1465367752327912	0.375	-0.5096283	-0.075546265	
1465367762337678	0.33026123	-0.52879333	-0.07128906	
1465367772347443	0.2684784	-0.49577332	-0.12135315	
1465367792305939	0.12147522	-0.3136139	-0.3141632	
1465367792305939	0.12147522	-0.3136139	-0.3141632	
1465367802315705	0.054367065	-0.20495605	-0.39193726	
1465367812325471	0.010681152	-0.115478516	-0.42495728	
1465367822335236	-0.010620117	-0.04197693	-0.39726257	
1465367842324250	-0.022338867	0.08267212	-0.22468567	
1465367842324250	-0.022338867	0.08267212	-0.22468567	
1465367852303498	-0.025527954	0.10609436	-0.16290283	
1465367862313264	-0.0074310303	0.07307434	-0.14160156	
1465367872292512	0.044769287	-0.017471313	-0.15864563	
1465367882302277	0.09164429	-0.13252258	-0.21083069	
1465367902291291	0.11721802	-0.18791199	-0.3471985	
1465367902291291	0.11721802	-0.18791199	-0.3471985	
1465367912301057	0.09803772	-0.1101532	-0.40151978	
1465367922280305	0.06288147	-0.066467285	-0.43774414	
1465367932290070	0.033050537	-0.14743042	-0.46862793	
1465367942299836	0.02772522	-0.31575012	-0.4909973	
1465367952279084	0.021331787	-0.50216675	-0.4867401	
1465367962288850	-0.008483887	-0.63105774	-0.46118164	
1465367972268098	-0.055358887	-0.6864624	-0.42388916	
1465367982277863	-0.12246704	-0.6417084	-0.3876648	
1465367992287629	-0.2513733	-0.35302734	-0.3514557	
1465368002266877	-0.45483398	0.24032593	-0.31523132	
1465368012276643	-0.6465759	0.8986511	-0.29393005	
1465368022255891	-0.6828003	1.3450012	-0.276886	
1465368032265656	-0.5166168	1.4568634	-0.24919128	
1465368042244904	-0.1778717	1.1745605	-0.21510315	
1465368052254670	0.27912903	0.5780182	-0.1991272	
1465368062264436	0.74998474	-0.13252258	-0.20657349	
1465368072243684	1.1121674	-0.7503662	-0.21510315	
1465368082253449	1.2740936	-1.1083069	-0.20018005	
1465368092263215	1.218689	-1.2020416	-0.17462158	
1465368102272980	0.9949951	-1.1178894	-0.15757751	
1465368112252229	0.6818085	-0.94744873	-0.14053345	
1465368122261994	0.3387909	-0.7546387	-0.12561035	
1465368132241242	0.005355835	-0.4158783	-0.13093567	
1465368142220490	-0.28120422	-0.4158783	-0.13093567	
1465368152230256	-0.4867859	-0.29231262	-0.14585876	
1465368162240021	-0.5911865	-0.17726135	-0.1373291	
1465368172219270	-0.5954437	-0.068603516	-0.10430908	
1465368182229035	-0.52407837	0.04219055	-0.06915283	
1465368192208283	-0.405838	0.13059998	-0.046783447	
1465368202218049	-0.26948547	0.18812561	-0.032943726	
1465368212227814	-0.14697266	0.22114563	-0.035064697	
1465368222207063	-0.06388855	0.23606873	-0.06915283	
1465368232216828	-0.0287323	0.21795654	-0.14160156	
1465368242196076	-0.032989502	0.16256714	-0.23321533	
1465368252175324	-0.06707764	0.07307434	-0.31843567	
1465368262185090	-0.119277954	-0.03237915	-0.3652954	
1465368272194855	-0.17680359	-0.1335907	-0.35357666	
1465368282204621	-0.23112488	-0.2124176	-0.2864685	
1465368292214387	-0.27374268	-0.27420044	-0.17355347	
1465368302224152	-0.30036926	-0.32107544	-0.02973938	
1465368312203400	-0.32913208	-0.33384705	0.11619568	
1465368322182648	-0.36642456	-0.30828857	0.22592163	
1465368332192414	-0.3813324	-0.25502014	0.28663635	
1465368342202180	-0.36109924	-0.22200012	0.29196167	
1465368352181428	-0.29292297	-0.20921326	0.25254822	
1465368362191193	-0.185318	-0.19856262	0.19929504	
1465368372200959	-0.07028198	-0.20709229	0.1407013	
1465368392189973	0.08206177	-0.25502014	0.07145691	
1465368392189973	0.08206177	-0.25502014	0.07145691	
1465368402169221	0.13105774	-0.27952576	0.070388794	
1465368412178986	0.19390869	-0.2997589	0.08531189	
1465368422188752	0.24078369	-0.31575012	0.107681274	
1465368432168000	0.24610901	-0.30828857	0.14176941	
1465368442147248	0.22692871	-0.2912445	0.17797852	
1465368452157014	0.19923401	-0.27952576	0.22166443	
1465368462166779	0.12680054	-0.2624817	0.2695923	
1465368472176545	0.0010986328	-0.220932	0.31860352	
1465368482155793	-0.15122986	-0.16873169	0.36653137	
1465368492135041	-0.29504395	-0.15914917	0.41340637	
1465368502144807	-0.405838	-0.19963074	0.45602417	
1465368512154572	-0.4804077	-0.24969482	0.50502014	
1465368522133820	-0.54537964	-0.27313232	0.55934143	
1465368532143586	-0.62420654	-0.2166748	0.60409546	
1465368542153352	-0.7094269	-0.08564758	0.6509552	
1465368552132600	-0.7893219	0.038986206	0.7393799	
1465368562142365	-0.86816406	0.12741089	0.8501587	
1465368572152131	-0.933136	0.22114563	0.9460449	
1465368582131379	-0.89585876	0.2584381	1.0088959	
1465368592110627	-0.71795654	0.12634277	1.0195465	
1465368612099641	-0.07133484	-0.4478302	0.8277893	
1465368612099641	-0.07133484	-0.4478302	0.8277893	
1465368622109406	0.22799683	-0.70669556	0.6435089	
1465368632119172	0.43572998	-0.8718109	0.44430542	
1465368642098420	0.55397034	-0.93252563	0.28451538	
1465368652108186	0.58699036	-0.8941803	0.17478943	
1465368662117951	0.53160095	-0.7674103	0.10128784	
1465368672097199	0.42401123	-0.5937805	0.060806274	
1465368682106965	0.30789185	-0.38604736	0.05973816	
1465368692086213	0.18644714	-0.17300415	0.10128784	
1465368702095979	0.066085815	0.0059661865	0.17053223	
1465368712075227	-0.036193848	0.1561737	0.25894165	
1465368722084992	-0.13206482	0.25204468	0.34629822	
1465368732094758	-0.20663452	0.24565125	0.40914917	
1465368742074006	-0.22367859	0.14231873	0.43470764	
1465368752083771	-0.18745422	-0.033447266	0.41340637	
1465368762063020	-0.13418579	-0.21453857	0.35055542	
1465368772072785	-0.08944702	-0.3690033	0.2749176	
1465368782082551	-0.044708252	-0.48512268	0.2195282	
1465368792092316	-0.0042266846	-0.57141113	0.19502258	
1465368802102082	0.02986145	-0.5937805	0.1918335	
1465368812081330	0.058624268	-0.55223083	0.19822693	
1465368822060578	0.08950806	-0.47766113	0.21206665	
1465368832070344	0.1161499	-0.3924408	0.22059631	
1465368842049592	0.12573242	-0.29656982	0.22805786	
1465368852059357	0.10443115	-0.19856262	0.24829102	
1465368862069123	0.054367065	-0.07499695	0.28344727	
1465368872048371	-0.006362915	0.07307434	0.344162	
1465368882027619	-0.045776367	0.15190125	0.424057	
1465368892037385	-0.03831482	0.109298706	0.49223328	
1465368902016633	0.011749268	-0.047302246	0.5135498	
1465368912026398	0.07141113	-0.28271484	0.46879578	
1465368922036164	0.108688354	-0.5500946	0.3484192	
1465368932045930	0.13638306	-0.7865906	0.17692566	
1465368942025178	0.18325806	-0.92401123	0.025650024	
1465368952034943	0.2418518	-0.8920593	-0.056381226	
1465368962014191	0.34518433	-0.67900085	-0.02015686	
1465368972023957	0.5422516	-0.490448	0.105545044	
1465368982033723	0.6487732	-0.4915161	0.105545044	
1465368992012971	0.6168213	-0.43292236	-0.058502197	
1465369002022736	0.55078125	-0.4126892	-0.276886	
1465369012032502	0.49751282	-0.4350586	-0.4547882	
1465369022011750	0.42933655	-0.42440796	-0.5613098	
1465369032021516	0.3206787	-0.3839264	-0.62734985	
1465369042000764	0.1630249	-0.26461792	-0.708313	
1465369052010529	-0.030853271	-0.017471313	-0.80418396	
1465369061989777	-0.2609558	0.31169128	-0.86491394	
1465369071999543	-0.49638367	0.6845398	-0.8255005	
1465369082009309	-0.7094269	1.0648346	-0.6582489	
1465369092019074	-0.89372253	1.3769684	-0.41856384	
1465369101998322	-1.0034485	1.4888153	-0.18740845	
1465369112008088	-0.9299469	1.3151703	-0.016952515	
1465369121987336	-0.6061096	0.9103699	0.058670044	
1465369131997102	-0.06707764	0.38093567	0.019256592	
1465369141976350	0.5795288	-0.19963074	-0.12135315	
1465369161995881	1.757721	-0.8238678	-0.5048523	
1465369161995881	1.757721	-0.8238678	-0.5048523	
1465369171975129	2.110321	-0.63638306	-0.6635742	
1465369181984895	2.249878	-0.22413635	-0.79034424	
1465369191964143	2.190216	0.2861328	-0.884079	
1465369201973908	2.000595	0.8368683	-0.9107208	
1465369211953156	1.7268219	1.2789612	-0.8446655	
1465369221962922	1.4083099	1.51651	-0.7328186	
1465369231972688	1.1057739	1.5761719	-0.61457825	
1465369241951936	0.85543823	1.4941406	-0.50164795	
1465369251961701	0.68074036	1.2501984	-0.4025879	
1465369261940949	0.597641	0.8560486	-0.3088379	
1465369271950715	0.58380127	0.42462158	-0.21510315	
1465369291970246	0.5411835	-0.14317322	-0.063827515	
1465369291970246	0.5411835	-0.14317322	-0.063827515	
1465369301949494	0.4176178	-0.24543762	-0.065963745	
1465369321938508	0.047973633	-0.08351135	-0.15969849	
1465369321938508	0.047973633	-0.08351135	-0.15969849	
1465369331948273	-0.109695435	0.044311523	-0.15864563	
1465369351937287	-0.20768738	0.118881226	-0.0627594	
1465369351937287	-0.20768738	0.118881226	-0.0627594	
1465369361916535	-0.14271545	0.036865234	-0.0819397	
1465369371926301	-0.037246704	-0.047302246	-0.1565094	
1465369381905549	0.0415802	-0.12612915	-0.22894287	
1465369391915314	0.01600647	-0.21348572	-0.30244446	
1465369411904328	-0.29930115	-0.3327942	-0.3652954	
1465369411904328	-0.29930115	-0.3327942	-0.3652954	
1465369421914094	-0.487854	-0.25608826	-0.3088379	
1465369431923859	-0.64019775	-0.059020996	-0.1884613	
1465369451912873	-0.7051697	0.2808075	0.10661316	
1465369451912873	-0.7051697	0.2808075	0.10661316	
1465369461892121	-0.6092987	0.25950623	0.17585754	
1465369471901887	-0.4867859	0.074142456	0.15988159	
1465369481911652	-0.39944458	-0.19856262	0.07678223	
1465369491890900	-0.37280273	-0.4446411	-0.035064697	
1465369501900666	-0.39091492	-0.61294556	-0.11816406	
1465369511910432	-0.41542053	-0.7003021	-0.16716003	
1465369521889680	-0.4324646	-0.7173462	-0.19485474	
1465369531868928	-0.43460083	-0.68325806	-0.20124817	
1465369541878693	-0.405838	-0.6161499	-0.1991272	
1465369551857941	-0.3536377	-0.51068115	-0.20977783	
1465369561867707	-0.29504395	-0.40629578	-0.24172974	
1465369571877473	-0.23539734	-0.33917236	-0.26516724	
1465369581887238	-0.18106079	-0.32426453	-0.26730347	
1465369591866486	-0.13739014	-0.3935089	-0.27581787	
1465369601876252	-0.103302	-0.5223999	-0.30776978	
1465369611855500	-0.07347107	-0.6630249	-0.34825134	
1465369621865266	-0.046844482	-0.779129	-0.37062073	
1465369631844514	-0.051101685	-0.8014984	-0.36317444	
1465369641854279	-0.08093262	-0.73864746	-0.32695007	
1465369651864045	-0.12779236	-0.58206177	-0.24491882	
1465369661873811	-0.19703674	-0.3658142	-0.108566284	
1465369671883576	-0.2801361	-0.15808105	0.06399536	
1465369681862824	-0.37068176	0.009155273	0.24510193	
1465369691872590	-0.44099426	0.05496216	0.3952942	
1465369701851838	-0.47401428	-0.03237915	0.4751892	
1465369711831086	-0.48573303	-0.18258667	0.47306824	
1465369721840852	-0.47827148	-0.34770203	0.391037	
1465369731820100	-0.42607117	-0.47659302	0.26852417	
1465369741829865	-0.32380676	-0.52453613	0.15135193	
1465369751839631	-0.17999268	-0.46594238	0.07145691	
1465369761818879	-0.01701355	-0.36260986	0.05441284	
1465369781838410	0.23332214	-0.16233826	0.15135193	
1465369781838410	0.23332214	-0.16233826	0.15135193	
1465369791817658	0.26315308	-0.03665161	0.21206665	
1465369801827424	0.22692871	0.08799744	0.27386475	
1465369811806672	0.13531494	0.18386841	0.33244324	
1465369821816438	-0.008483887	0.23179626	0.39743042	
1465369831826203	-0.18852234	0.22541809	0.47306824	
1465369841805451	-0.37174988	0.16362	0.55934143	
1465369851815217	-0.52726746	0.074142456	0.65309143	
1465369861794465	-0.6455231	-0.0014953613	0.72872925	
1465369871804230	-0.71369934	-0.043029785	0.7766571	
1465369881783479	-0.7168884	-0.06539917	0.80329895	
1465369891793244	-0.6657562	-0.07925415	0.7990265	
1465369901803010	-0.581604	-0.0632782	0.75642395	
1465369911812775	-0.48892212	-0.013214111	0.6839905	
1465369921792023	-0.39305115	0.050704956	0.5923767	
1465369931801789	-0.29185486	0.10823059	0.5082092	
1465369941781037	-0.18319702	0.15084839	0.44110107	
1465369951790803	-0.058563232	0.18598938	0.39422607	
1465369961770051	0.07246399	0.22434998	0.36227417	
1465369981789582	0.259964	0.29571533	0.33137512	
1465369981789582	0.259964	0.29571533	0.33137512	
1465369991768830	0.29405212	0.29464722	0.30581665	
1465370001778596	0.29510498	0.21795654	0.27386475	
1465370011757844	0.28445435	0.072006226	0.2387085	
1465370021767609	0.28552246	-0.13677979	0.20141602	
1465370031777375	0.3014984	-0.37965393	0.16307068	
1465370041756623	0.34091187	-0.58418274	0.13644409	
1465370051766389	0.39204407	-0.70669556	0.13323975	
1465370061745637	0.43466187	-0.7216034	0.14389038	
1465370081765168	0.46128845	-0.48191833	0.20355225	
1465370081765168	0.46128845	-0.48191833	0.20355225	
1465370091774934	0.45384216	-0.28485107	0.24935913	
1465370101754182	0.4453125	-0.056884766	0.2909088	
1465370111733430	0.43466187	0.14231873	0.32499695	
1465370121743195	0.41548157	0.21795654	0.33564758	
1465370131722443	0.40376282	0.081604004	0.3260498	
1465370141732209	0.38032532	-0.27420044	0.30262756	
1465370151741975	0.28871155	-0.66407776	0.26852417	
1465370161721223	0.11508179	-0.9314728	0.23231506	
1465370171700471	-0.10542297	-1.0145569	0.19929504	
1465370181710236	-0.32273865	-0.91015625	0.18225098	
1465370191720002	-0.49531555	-0.65875244	0.19502258	
1465370201729768	-0.57307434	-0.33384705	0.21739197	
1465370211709016	-0.53793335	-0.047302246	0.2237854	
1465370221718781	-0.4005127	0.05923462	0.20994568	
1465370231728547	-0.21089172	-0.00894165	0.17692566	
1465370241707795	-0.024475098	-0.13464355	0.11512756	
1465370251687043	0.1438446	-0.23904419	0.030975342	
1465370261696809	0.28659058	-0.25715637	-0.047851562	
1465370281716340	0.44424438	0.081604004	-0.13414001	
1465370281716340	0.44424438	0.081604004	-0.13414001	
1465370291695588	0.46342468	0.3830719	-0.108566284	
1465370301705354	0.46022034	0.65045166	-0.02015686	
1465370311684602	0.4186859	0.84965515	0.12898254	
1465370321694367	0.32600403	0.91889954	0.30900574	
1465370331673615	0.1949768	0.9359436	0.45388794	
1465370341683381	0.052230835	0.8613739	0.517807	
1465370351662629	-0.05003357	0.58013916	0.517807	
1465370371682160	-0.0990448	-0.2624817	0.3686676	
1465370371682160	-0.0990448	-0.2624817	0.3686676	
1465370381661408	-0.07772827	-0.65556335	0.20674133	
1465370391671174	-0.031921387	-0.9591675	0.021392822	
1465370401650422	0.037322998	-1.1083069	-0.15544128	
1465370421669953	0.25143433	-0.95170593	-0.32588196	
1465370421669953	0.25143433	-0.95170593	-0.32588196	
1465370431649201	0.43145752	-0.7407837	-0.2811432	
1465370441658967	0.6455841	-0.49684143	-0.18952942	
1465370451668732	0.7531738	-0.44250488	-0.1096344	
1465370461647980	0.46875	-0.6619568	-0.063827515	
1465370471657746	-0.06600952	-0.6257324	-0.101119995	
1465370481667512	-0.41116333	-0.7216034	-0.12348938	
1465370491646760	-0.35043335	-0.8675537	-0.016952515	
1465370501656525	-0.30996704	-0.7514343	0.022460938	
1465370521645539	-0.22686768	-0.5607605	0.045898438	
1465370521645539	-0.22686768	-0.5607605	0.045898438	
1465370531624787	-0.10542297	-0.41481018	0.15774536	
1465370541634553	0.017074585	-0.24969482	0.29516602	
1465370551613801	0.16940308	-0.103759766	0.4336548	
1465370561623566	0.3664856	-0.029190063	0.48583984	
1465370571633332	0.55397034	-0.10908508	0.41340637	
1465370581612580	0.68392944	-0.24650574	0.30049133	
1465370601601594	0.68074036	-0.50749207	0.23231506	
1465370601601594	0.68074036	-0.50749207	0.23231506	
1465370611611359	0.5411835	-0.5277252	0.29942322	
1465370621590607	0.37820435	-0.33065796	0.42193604	
1465370631600373	0.2652893	0.008102417	0.53804016	
1465370641610139	0.20988464	0.34577942	0.6158142	
1465370651589387	0.17793274	0.6248779	0.6712036	
1465370661599152	0.14598083	0.8379364	0.740448	
1465370681588166	-0.06600952	1.1660461	0.8469696	
1465370681588166	-0.06600952	1.1660461	0.8469696	
1465370701607697	-0.30036926	1.3801575	0.8970337	
1465370701607697	-0.30036926	1.3801575	0.8970337	
1465370711617463	-0.3898468	1.2533875	0.9769287	
1465370721596711	-0.46974182	0.8709564	1.0749359	
1465370731575959	-0.4590912	0.40544128	1.1100922	
1465370741585725	-0.29930115	-0.092041016	1.1335297	
1465370751595490	-0.043640137	-0.3466339	1.1772003	
1465370761574738	0.20562744	-0.30189514	1.1729431	
1465370781563752	0.5443878	-0.14317322	1.0365906	
1465370781563752	0.5443878	-0.14317322	1.0365906	
1465370791573518	0.5614319	0.105041504	0.9300537	
1465370801552766	0.49751282	0.27867126	0.8608246	
1465370811532014	0.35476685	0.26908875	0.80223083	
1465370821541779	0.16835022	0.42141724	0.66799927	
1465370831551545	-0.002105713	0.686676	0.60835266	
1465370841561311	-0.13206482	0.7857361	0.64030457	
1465370851540559	-0.21514893	0.6568451	0.693573	
1465370861519807	-0.22579956	0.42355347	0.73617554	
1465370871529572	-0.16082764	0.16043091	0.76600647	
1465370881508820	-0.07133484	-0.12719727	0.78944397	
1465370891518586	-0.01701355	-0.31147766	0.83631897	
1465370901528352	-0.024475098	-0.21560669	0.9247284	
1465370911507600	-0.0756073	0.052841187	1.0067596	
1465370921517365	-0.13206482	0.30743408	1.0834656	
1465370931527131	-0.18319702	0.5311432	1.2102203	
1465370941506379	-0.2364502	0.7122345	1.3582916	
1465370951516145	-0.2748108	0.8794861	1.474411	
1465370961495393	-0.29504395	1.0371399	1.5809326	
1465370971505158	-0.2875824	1.1085205	1.6651001	
1465370981484406	-0.21302795	0.9860077	1.6938629	
1465370991494172	-0.088378906	0.702652	1.6853333	
1465371001503938	0.036254883	0.3276825	1.6768036	
1465371011483186	0.1672821	-0.04623413	1.6214142	
1465371021492951	0.26634216	-0.21881104	1.5521698	
1465371031472199	0.31854248	-0.2624817	1.4754791	
1465371041481965	0.3515625	-0.24757385	1.4168854	
1465371051491730	0.3622284	-0.15914917	1.4019775	
1465371061470979	0.34197998	-0.013214111	1.4019775	
1465371081459992	0.07673645	0.15829468	1.4786682	
1465371081459992	0.07673645	0.15829468	1.4786682	
1465371091469758	-0.1586914	0.30636597	1.521286	
1465371101449006	-0.43992615	0.6600342	1.5308685	
1465371111458771	-0.7839966	1.1276855	1.5244751	
1465371121468537	-1.1834717	1.565506	1.5298004	
1465371131447785	-1.6255646	1.912796	1.5628204	
1465371141457551	-1.9462128	2.2217102	1.3433838	
1465371151467316	-1.7906799	2.872589	0.22805786	
1465371161446564	-1.4710999	2.8811188	-0.69659424	
1465371171456330	-1.4210358	1.8893585	-0.5155029	
1465371181435578	-1.345398	1.1532593	-0.30776978	
1465371191445344	-0.9853363	0.782547	-0.3887329	
1465371201455109	-0.5869293	0.44166565	-0.4164276	
1465371211434357	-0.22473145	0.029403687	-0.30351257	
1465371221444123	0.09164429	-0.43611145	-0.1607666	
1465371231453889	0.292984	-0.78126526	-0.10430908	
1465371241463654	0.32174683	-0.88778687	-0.1288147	
1465371251473420	0.26101685	-1.03479	-0.15332031	
1465371261452668	0.09378052	-1.0284119	-0.20231628	
1465371271462434	-0.16508484	-0.7674103	-0.24172974	
1465371281441682	-0.4516449	-0.33491516	-0.23214722	
1465371291420930	-0.7019806	0.08053589	-0.21083069	
1465371301430695	-0.91929626	0.3788147	-0.21510315	
1465371311440461	-1.0716248	0.5833435	-0.22042847	
1465371321450227	-1.1121063	0.6930542	-0.2118988	
1465371331429475	-1.0258179	0.7324829	-0.17355347	
1465371341439240	-0.82128906	0.75697327	-0.07875061	
1465371351418488	-0.5570984	0.6387329	0.007537842	
1465371361428254	-0.27160645	0.33940125	0.035232544	
1465371371407502	0.022399902	0.056030273	0.008605957	
1465371381417268	0.27700806	-0.09736633	-0.014831543	
1465371401436799	0.3483734	-0.15382385	-0.09046936	
1465371401436799	0.3483734	-0.15382385	-0.09046936	
1465371411416047	0.27912903	-0.25183105	-0.17462158	
1465371431405061	0.30470276	-0.36260986	-0.18206787	
1465371431405061	0.30470276	-0.36260986	-0.18206787	
1465371441384309	0.2695465	-0.32000732	-0.1330719	
1465371451363557	0.22373962	-0.30189514	-0.06915283	
1465371461373322	0.15768433	-0.23265076	-0.016952515	
1465371471383088	0.099105835	-0.047302246	0.01713562	
1465371481392854	0.075668335	0.15296936	0.04801941	
1465371491402619	0.106552124	0.2765503	0.08531189	
1465371501381867	0.17686462	0.3127594	0.13963318	
1465371511391633	0.26315308	0.27227783	0.1960907	
1465371521370881	0.34518433	0.21263123	0.23977661	
1465371531380646	0.421875	0.17001343	0.26000977	
1465371541390412	0.50709534	0.1359253	0.2472229	
1465371551369660	0.6200104	0.13699341	0.22166443	
1465371561379426	0.7467804	0.14871216	0.20994568	
1465371571389191	0.867157	0.07095337	0.24615479	
1465371581368439	0.9662323	-0.089904785	0.30581665	
1465371601357453	1.009903	-0.33491516	0.3675995	
1465371601357453	1.009903	-0.33491516	0.3675995	
1465371611336701	0.9427948	-0.29870605	0.35375977	
1465371621346467	0.84265137	-0.17300415	0.29942322	
1465371631356232	0.7457123	0.020874023	0.28024292	
1465371651375764	0.60084534	0.46829224	0.3995514	
1465371651375764	0.60084534	0.46829224	0.3995514	
1465371661355012	0.56248474	0.559906	0.53271484	
1465371671334260	0.5294647	0.50556946	0.6669464	
1465371681344025	0.45170593	0.36495972	0.73724365	
1465371691353791	0.3238678	0.26055908	0.7116852	
1465371701333039	0.20137024	0.28292847	0.5955658	
1465371711342805	0.15235901	0.4065094	0.44535828	
1465371721322053	0.20243835	0.52049255	0.33883667	
1465371731331818	0.32919312	0.5503235	0.31967163	
1465371751320832	0.7329407	0.6057129	0.57958984	
1465371751320832	0.7329407	0.6057129	0.57958984	
1465371761330598	0.8778076	0.5098419	0.7638855	
1465371771340363	0.8991089	0.32022095	0.88212585	
1465371781319611	0.7893982	0.116760254	0.8874512	
1465371791329377	0.5614319	0.013427734	0.7713318	
1465371811318391	-0.015945435	0.13380432	0.35481262	
1465371811318391	-0.015945435	0.13380432	0.35481262	
1465371821297639	-0.21302795	0.19665527	0.16946411	
1465371831307404	-0.29504395	0.14338684	0.056549072	
1465371841317170	-0.2833252	-0.029190063	-0.004180908	
1465371861306184	-0.1352539	-0.42759705	-0.016952515	
1465371861306184	-0.1352539	-0.42759705	-0.016952515	
1465371871285432	-0.024475098	-0.55223083	-0.030807495	
1465371881295197	0.07992554	-0.5447693	-0.049987793	
1465371891304963	0.16514587	-0.42440796	-0.048919678	
1465371911263459	0.18644714	-0.29870605	-0.02973938	
1465371911263459	0.18644714	-0.29870605	-0.02973938	
1465371921273225	0.122543335	-0.27845764	-0.048919678	
1465371941262238	0.017074585	-0.19537354	-0.056381226	
1465371941262238	0.017074585	-0.19537354	-0.056381226	
1465371951272004	0.013885498	-0.16661072	-0.047851562	
1465371971261018	0.038375854	-0.21028137	-0.05317688	
1465371971261018	0.038375854	-0.21028137	-0.05317688	
1465371981270783	0.02772522	-0.22413635	-0.08300781	
1465371991280549	0.009613037	-0.15168762	-0.124557495	
1465372001290314	0.00642395	0.011291504	-0.13200378	
1465372011269563	0.024536133	0.11143494	-0.110702515	
1465372021279328	0.057556152	0.12313843	-0.0861969	
1465372031258576	0.09590149	0.17001343	-0.054244995	
1465372051247590	0.20883179	0.29571533	0.05015564	
1465372051247590	0.20883179	0.29571533	0.05015564	
1465372061257355	0.26101685	0.24884033	0.12472534	
1465372071267121	0.30789185	0.19026184	0.20780945	
1465372081246369	0.33026123	0.13059998	0.27279663	
1465372091225617	0.32600403	0.11355591	0.30688477	
1465372111214631	0.22267151	0.05496216	0.30368042	
1465372111214631	0.22267151	0.05496216	0.30368042	
1465372121224396	0.120407104	-0.030258179	0.2472229	
1465372131234162	0.0074920654	-0.11227417	0.15881348	
1465372141243928	-0.121414185	-0.15596008	0.06719971	
1465372161202424	-0.28225708	-0.08244324	-0.05317688	
1465372161202424	-0.28225708	-0.08244324	-0.05317688	
1465372171181672	-0.2982483	-0.019607544	-0.089401245	
1465372181191438	-0.26416016	-0.0025634766	-0.12348938	
1465372191201203	-0.19064331	0.012359619	-0.16397095	
1465372201180451	-0.062820435	-0.0057525635	-0.19485474	
1465372211190217	0.10122681	-0.10908508	-0.21936035	
1465372221169465	0.24824524	-0.20388794	-0.24279785	
1465372231179230	0.33239746	-0.1974945	-0.2619629	
1465372241188996	0.34197998	-0.101623535	-0.27368164	
1465372251168244	0.30256653	0.09118652	-0.27262878	
1465372261178010	0.24291992	0.36495972	-0.27262878	
1465372271157258	0.21520996	0.6163635	-0.22254944	
1465372281167023	0.2503662	0.782547	-0.12561035	
1465372291176789	0.32174683	0.702652	-0.0126953125	
1465372311165803	0.3153534	-0.19004822	0.004348755	
1465372311165803	0.3153534	-0.19004822	0.004348755	
1465372321175568	0.20988464	-0.52453613	-0.13200378	
1465372331154816	0.07141113	-0.60975647	-0.30776978	
1465372341164582	-0.041519165	-0.5085602	-0.4633026	
1465372361153596	-0.08944702	-0.20281982	-0.5879364	
1465372361153596	-0.08944702	-0.20281982	-0.5879364	
1465372371163361	-0.023406982	-0.1889801	-0.5559845	
1465372381173127	0.066085815	-0.19856262	-0.4899292	
1465372391182893	0.16514587	-0.15275574	-0.43241882	
1465372401162141	0.2695465	-0.05369568	-0.39619446	
1465372411141389	0.3664856	0.031539917	-0.3802185	
1465372421151154	0.45277405	0.034729004	-0.37701416	
1465372431160920	0.5102997	-0.048355103	-0.37275696	
1465372441170686	0.5230713	-0.20281982	-0.37062073	
1465372451149934	0.4953766	-0.37646484	-0.37275696	
1465372461129182	0.43572998	-0.52027893	-0.38980103	
1465372471138947	0.339859	-0.60017395	-0.4345398	
1465372481148713	0.22480774	-0.5959015	-0.5005951	
1465372491127961	0.10443115	-0.55436707	-0.5783539	
1465372501137727	-0.0010375977	-0.51174927	-0.64334106	
1465372511116975	-0.08305359	-0.4680786	-0.6838074	
1465372521126740	-0.13418579	-0.396698	-0.6997986	
1465372531136506	-0.13951111	-0.2901764	-0.6806183	
1465372541146271	-0.097976685	-0.19856262	-0.6316223	
1465372561104768	0.07246399	-0.078186035	-0.49420166	
1465372561104768	0.07246399	-0.078186035	-0.49420166	
1465372571114533	0.17686462	-0.050491333	-0.42070007	
1465372581124299	0.2727356	-0.050491333	-0.3525238	
1465372591103547	0.33772278	-0.070739746	-0.28860474	
1465372611123078	0.33239746	-0.17832947	-0.19699097	
1465372611123078	0.33239746	-0.17832947	-0.19699097	
1465372621102326	0.27912903	-0.19963074	-0.1756897	
1465372631112092	0.20883179	-0.15701294	-0.15864563	
1465372641121857	0.13851929	-0.0867157	-0.1373291	
1465372661110871	0.045837402	0.11569214	-0.054244995	
1465372661110871	0.045837402	0.11569214	-0.054244995	
1465372671090119	0.019210815	0.2339325	0.01499939	
1465372681099885	0.0074920654	0.32661438	0.10447693	
1465372691109650	0.009613037	0.39053345	0.20674133	
1465372711119761	-0.018081665	0.49705505	0.36013794	
1465372711119761	-0.018081665	0.49705505	0.36013794	
1465372721099009	-0.060684204	0.57588196	0.40489197	
1465372731078257	-0.1309967	0.66963196	0.42086792	
1465372741088023	-0.20663452	0.8070526	0.40914917	
1465372761107554	-0.31422424	1.1841431	0.43151855	
1465372761107554	-0.31422424	1.1841431	0.43151855	
1465372771086802	-0.31422424	1.3055878	0.5135498	
1465372781096568	-0.26416016	1.3631134	0.6381836	
1465372791075816	-0.17999268	1.35672	0.77560425	
1465372811064829	-0.08093262	1.0009308	0.9396515	
1465372811064829	-0.08093262	1.0009308	0.9396515	
1465372821074595	-0.14164734	0.67601013	0.8959656	
1465372831084361	-0.24604797	0.34577942	0.7415161	
1465372841063609	-0.34617615	0.06455994	0.5359192	
1465372861083140	-0.47720337	-0.2443695	0.16307068	
1465372861083140	-0.47720337	-0.2443695	0.16307068	
1465372871092906	-0.4559021	-0.33491516	0.021392822	
1465372881072154	-0.3898468	-0.44250488	-0.06915283	
1465372891081919	-0.29611206	-0.52134705	-0.12348938	
1465372911040415	-0.046844482	-0.48937988	-0.1799469	
1465372911040415	-0.046844482	-0.48937988	-0.1799469	
1465372921019663	0.08312988	-0.45635986	-0.19592285	
1465372931029429	0.20988464	-0.45422363	-0.21722412	
1465372941039195	0.3196106	-0.4712677	-0.24491882	
1465372961028208	0.46235657	-0.41481018	-0.32055664	
1465372961028208	0.46235657	-0.41481018	-0.32055664	
1465372971037974	0.46768188	-0.34451294	-0.3557129	
1465372981047740	0.41975403	-0.2997589	-0.36424255	
1465372991057505	0.32919312	-0.32107544	-0.3418579	
1465373001036753	0.20349121	-0.37220764	-0.30776978	
1465373011046519	0.054367065	-0.3743286	-0.28007507	
1465373021025767	-0.10862732	-0.2955017	-0.26942444	
1465373031005015	-0.2609558	-0.13145447	-0.2864685	
1465373041014781	-0.36109924	0.093322754	-0.3141632	
1465373061003794	-0.32806396	0.3873291	-0.34292603	
1465373061003794	-0.32806396	0.3873291	-0.34292603	
1465373071013560	-0.22686768	0.3607025	-0.3290863	
1465373081023326	-0.088378906	0.2893219	-0.31311035	
1465373091002574	0.07034302	0.19665527	-0.31097412	
1465373110991587	0.38246155	0.03791809	-0.3322754	
1465373110991587	0.38246155	0.03791809	-0.3322754	
1465373121001353	0.4921875	0.029403687	-0.3280182	
1465373131011118	0.5465088	0.04219055	-0.31097412	
1465373140990367	0.548645	0.06455994	-0.28753662	
1465373151000132	0.5241394	0.097579956	-0.25131226	
1465373160979380	0.47088623	0.14978027	-0.19166565	
1465373170989146	0.36860657	0.22753906	-0.11923218	
1465373180998911	0.22053528	0.2861328	-0.047851562	
1465373190978160	0.042648315	0.29571533	-0.010574341	
1465373210967173	-0.3025055	0.21263123	-0.058502197	
1465373210967173	-0.3025055	0.21263123	-0.058502197	
1465373220976939	-0.42713928	0.1561737	-0.120285034	
1465373230986704	-0.5070343	0.11781311	-0.17248535	
1465373240965952	-0.5443115	0.105041504	-0.19805908	
1465373260985484	-0.52301025	0.046447754	-0.20657349	
1465373260985484	-0.52301025	0.046447754	-0.20657349	
1465373270964732	-0.48999023	-0.00894165	-0.19592285	
1465373280974497	-0.45269775	-0.038772583	-0.18952942	
1465373290984263	-0.40263367	-0.017471313	-0.18634033	
1465373310942759	-0.27160645	-0.017471313	-0.22149658	
1465373310942759	-0.27160645	-0.017471313	-0.22149658	
1465373320952525	-0.20982361	-0.035583496	-0.2502594	
1465373330931773	-0.15550232	-0.0046844482	-0.2395935	
1465373340941538	-0.119277954	0.010223389	-0.19485474	
1465373350951304	-0.11395264	-0.0632782	-0.108566284	
1465373360930552	-0.14483643	-0.24862671	-0.010574341	
1465373370909800	-0.22154236	-0.49577332	0.034179688	
1465373380919566	-0.3387146	-0.6907196	0.016067505	
1465373390929331	-0.48466492	-0.779129	-0.036132812	
1465373400939097	-0.6412506	-0.75782776	-0.1096344	
1465373410918345	-0.7669525	-0.62361145	-0.21296692	
1465373420928111	-0.8361969	-0.37220764	-0.30776978	
1465373430937876	-0.8287506	-0.08351135	-0.37808228	
1465373440917124	-0.7328644	0.12208557	-0.42921448	
1465373450926890	-0.5634918	0.18173218	-0.44839478	
1465373460936656	-0.34405518	0.11355591	-0.44732666	
1465373470946421	-0.10649109	-0.0398407	-0.438797	
1465373480925669	0.11401367	-0.20921326	-0.4398651	
1465373490904917	0.28977966	-0.32640076	-0.44839478	
1465373500914683	0.41229248	-0.38072205	-0.45265198	
1465373510924449	0.46022034	-0.42759705	-0.44519043	
1465373520934214	0.42826843	-0.48191833	-0.4537201	
1465373530913462	0.33772278	-0.5277252	-0.4867401	
1465373540892710	0.22587585	-0.537323	-0.5346832	
1465373550902476	0.10443115	-0.4915161	-0.5847473	
1465373560881724	-0.012756348	-0.43824768	-0.62734985	
1465373570891490	-0.119277954	-0.3935089	-0.66038513	
1465373580901255	-0.21514893	-0.33491516	-0.67315674	
1465373590880503	-0.2886505	-0.25395203	-0.6625061	
1465373600890269	-0.325943	-0.1612854	-0.626297	
1465373610869517	-0.3270111	-0.060073853	-0.5751648	
1465373620879283	-0.27799988	0.04005432	-0.5240326	
1465373630858531	-0.1778717	0.121017456	-0.46650696	
1465373640868296	-0.034057617	0.14978027	-0.40898132	
1465373650878062	0.14064026	0.10290527	-0.34825134	
1465373660887827	0.3238678	-0.00894165	-0.27581787	
1465373670867076	0.48046875	-0.15168762	-0.20231628	
1465373680876841	0.58166504	-0.28271484	-0.13627625	
1465373690886607	0.6200104	-0.3839264	-0.0819397	
1465373700865855	0.59552	-0.4393158	-0.045715332	
1465373710845103	0.5209503	-0.44677734	-0.02229309	
1465373720854868	0.41975403	-0.41801453	-0.0020446777	
1465373730864634	0.30256653	-0.37646484	0.02671814	
1465373740843882	0.18432617	-0.3136139	0.072525024	
1465373750853648	0.063949585	-0.23052979	0.13963318	
1465373760832896	-0.062820435	-0.12825012	0.22273254	
1465373770842661	-0.17999268	-0.025985718	0.31221008	
1465373790831675	-0.3163452	0.14764404	0.45921326	
1465373790831675	-0.3163452	0.14764404	0.45921326	
1465373800841441	-0.3035736	0.23925781	0.5082092	
1465373810851206	-0.23326111	0.28825378	0.55722046	
1465373820830454	-0.13418579	0.2658844	0.63604736	
1465373830840220	-0.04789734	0.18066406	0.72872925	
1465373840849986	-0.002105713	0.09971619	0.7958374	
1465373850829234	-0.002105713	0.10183716	0.83525085	
1465373860808482	-0.04257202	0.13166809	0.85443115	
1465373870818247	-0.111816406	0.08905029	0.85549927	
1465373880797495	-0.19810486	-0.0398407	0.83099365	
1465373890807261	-0.29292297	-0.19216919	0.7915802	
1465373900817027	-0.39624023	-0.3423767	0.740448	
1465373910796275	-0.487854	-0.43292236	0.69143677	
1465373930785288	-0.56562805	-0.3658142	0.6285858	
1465373930785288	-0.56562805	-0.3658142	0.6285858	
1465373940795054	-0.5539093	-0.32746887	0.6328583	
1465373950804820	-0.52726746	-0.34770203	0.6562805	
1465373960784068	-0.49317932	-0.32533264	0.6743927	
1465373970793833	-0.41860962	-0.07286072	0.68504333	
1465373980773081	-0.24284363	0.44166565	0.7308502	
1465373990782847	0.07992554	1.0648346	0.90130615	
1465374000762095	0.46981812	1.5271606	1.1995697	
1465374010741343	0.8075104	1.645401	1.5266113	
1465374020751109	1.0056458	1.3716278	1.7684174	
1465374030760874	1.0141602	0.90078735	1.8227539	
1465374040770640	0.8224182	0.51516724	1.6512451	
1465374050749888	0.49858093	0.3330078	1.3071594	
1465374060759654	0.14064026	0.30317688	0.8746643	
1465374070769419	-0.1821289	0.33512878	0.45602417	
1465374080779185	-0.42607117	0.36177063	0.11833191	
1465374090758433	-0.5517731	0.33833313	-0.101119995	
1465374100737681	-0.56455994	0.23286438	-0.20550537	
1465374110747447	-0.48999023	0.07521057	-0.23854065	
1465374120757212	-0.3621521	-0.062210083	-0.2545166	
1465374130736460	-0.20663452	-0.1101532	-0.27049255	
1465374140746226	-0.043640137	-0.038772583	-0.28434753	
1465374150755992	0.13105774	0.11355591	-0.27900696	
1465374160765757	0.30789185	0.25097656	-0.23640442	
1465374180724253	0.60935974	0.2147522	-0.05531311	
1465374180724253	0.60935974	0.2147522	-0.05531311	
1465374190734019	0.66581726	0.12208557	0.056549072	
1465374200743785	0.6264038	0.050704956	0.14283752	
1465374210723033	0.49858093	0.02619934	0.17692566	
1465374230742564	0.10975647	0.116760254	0.12579346	
1465374230742564	0.10975647	0.116760254	0.12579346	
1465374240721812	-0.08305359	0.12313843	0.062942505	
1465374250731577	-0.23858643	0.08267212	0.0022125244	
1465374260710826	-0.34191895	0.023010254	-0.052108765	
1465374280730357	-0.3781433	-0.08351135	-0.1288147	
1465374280730357	-0.3781433	-0.08351135	-0.1288147	
1465374290709605	-0.3163452	-0.19856262	-0.16822815	
1465374300719370	-0.21621704	-0.3604889	-0.22894287	
1465374310698618	-0.08944702	-0.52879333	-0.3056488	
1465374320708384	0.042648315	-0.6811218	-0.35890198	
1465374330718150	0.14598083	-0.8249359	-0.37808228	
1465374340697398	0.1949768	-0.93573	-0.38233948	
1465374350676646	0.19604492	-0.95809937	-0.3802185	
1465374360686411	0.15235901	-0.90270996	-0.3802185	
1465374380675425	-0.05429077	-0.6928406	-0.34399414	
1465374380675425	-0.05429077	-0.6928406	-0.34399414	
1465374400694956	-0.2609558	-0.17619324	-0.2545166	
1465374400694956	-0.2609558	-0.17619324	-0.2545166	
1465374410674204	-0.2875824	0.12208557	-0.14372253	
1465374420683970	-0.25456238	0.32341003	0.0011444092	
1465374430663218	-0.17573547	0.42887878	0.15560913	
1465374440672984	-0.0798645	0.43527222	0.28556824	
1465374450682749	0.0010986328	0.31808472	0.3644104	
1465374470671763	0.02772522	-0.08883667	0.31114197	
1465374470671763	0.02772522	-0.08883667	0.31114197	
1465374480651011	-0.024475098	-0.1378479	0.20674133	
1465374490660777	-0.12460327	0.12420654	0.02671814	
1465374500670542	-0.12460327	0.12420654	0.02671814	
1465374520659556	-0.076660156	0.32980347	-0.004180908	
1465374520659556	-0.076660156	0.32980347	-0.004180908	
1465374530638804	-0.0042266846	0.35324097	0.033111572	
1465374550658335	0.1161499	0.24032593	0.117263794	
1465374550658335	0.1161499	0.24032593	0.117263794	
1465374560637583	0.12573242	0.12208557	0.11512756	
1465374570647349	0.10336304	-0.014266968	0.06399536	
1465374580657115	0.057556152	-0.14956665	-0.025482178	
1465374590636363	0.010681152	-0.31147766	-0.19378662	
1465374600646128	-0.036193848	-0.31147766	-0.19378662	
1465374610625376	-0.07879639	-0.33491516	-0.23001099	
1465374620635142	-0.11502075	-0.31254578	-0.23321533	
1465374630644908	-0.14483643	-0.24757385	-0.1991272	
1465374650603404	-0.1618805	-0.048355103	-0.07235718	
1465374650603404	-0.1618805	-0.048355103	-0.07235718	
1465374670622935	-0.10223389	0.12420654	0.027786255	
1465374670622935	-0.10223389	0.12420654	0.027786255	
1465374680602183	-0.027664185	0.20303345	0.05760193	
1465374690611949	0.075668335	0.29359436	0.11300659	
1465374700621714	0.18644714	0.29359436	0.11300659	
1465374710631480	0.30470276	0.29678345	0.15028381	
1465374720610728	0.4367981	0.25416565	0.19396973	
1465374730620493	0.5678253	0.11781311	0.23550415	
1465374750609507	0.6743469	-0.36260986	0.26852417	
1465374750609507	0.6743469	-0.36260986	0.26852417	
1465374760619273	0.6317291	-0.48512268	0.25787354	
1465374770598521	0.53585815	-0.4680786	0.24829102	
1465374780577769	0.40057373	-0.3892517	0.26000977	
1465374800566783	0.096969604	-0.19216919	0.37825012	
1465374800566783	0.096969604	-0.19216919	0.37825012	
1465374810576548	-0.02659607	-0.08778381	0.44430542	
1465374820586314	-0.10223389	0.0017089844	0.4986267	
1465374830565562	-0.12246704	0.0539093	0.5305939	
1465374840575327	-0.09690857	0.07946777	0.5401764	
1465374850585093	-0.030853271	0.09118652	0.55722046	
1465374860564341	0.052230835	0.05496216	0.5913086	
1465374870574107	0.11401367	-0.038772583	0.6253967	
1465374880583872	0.1395874	-0.101623535	0.6520233	
1465374900572886	0.13105774	0.07839966	0.6722717	
1465374900572886	0.13105774	0.07839966	0.6722717	
1465374910582652	0.12466431	0.23500061	0.6893158	
1465374920561900	0.13426208	0.3553772	0.71913147	
1465374930541148	0.17686462	0.47254944	0.7702637	
1465374950530161	0.292984	0.79319763	0.9907837	
1465374950530161	0.292984	0.79319763	0.9907837	
1465374960539927	0.292984	0.8336792	1.1271362	
1465374970549693	0.22692871	0.72288513	1.2070312	
1465374980528941	0.10549927	0.5503235	1.18573	
1465374990538706	-0.041519165	0.30743408	0.84910583	
1465375000517954	-0.17254639	0.30743408	0.84910583	
1465375010527720	-0.26628113	0.20942688	0.62965393	
1465375020506968	-0.31741333	0.08905029	0.4474945	
1465375030516734	-0.32913208	6.4086914E-4	0.33351135	
1465375050536265	-0.26948547	0.020874023	0.2664032	
1465375050536265	-0.26948547	0.020874023	0.2664032	
1465375070494761	-0.18745422	0.12741089	0.23657227	
1465375070494761	-0.18745422	0.12741089	0.23657227	
1465375080504527	-0.1352539	0.18493652	0.19502258	
1465375100493540	0.034118652	0.23925781	0.08103943	
1465375100493540	0.034118652	0.23925781	0.08103943	
1465375110503306	0.12998962	0.18386841	0.032043457	
1465375120513072	0.21308899	0.081604004	0.0011444092	
1465375130492320	0.2780609	-0.040908813	0.0022125244	
1465375150481333	0.2972412	-0.17512512	0.10340881	
1465375150481333	0.2972412	-0.17512512	0.10340881	
1465375160491099	0.25143433	-0.20281982	0.16093445	
1465375170470347	0.17793274	-0.19216919	0.20780945	
1465375180480113	0.08950806	-0.13677979	0.24829102	
1465375190489878	0.005355835	-0.03451538	0.28556824	
1465375200469126	-0.055358887	0.06774902	0.32286072	
1465375210478892	-0.0798645	0.10609436	0.35375977	
1465375220458140	-0.06921387	0.10397339	0.38571167	
1465375230467906	-0.01914978	0.11781311	0.43045044	
1465375240477671	0.056488037	0.12741089	0.49223328	
1465375250487437	0.12893677	0.08053589	0.55189514	
1465375260497202	0.18432617	-0.028121948	0.599823	
1465375270476451	0.20562744	-0.18577576	0.62646484	
1465375280455699	0.16621399	-0.3423767	0.6158142	
1465375300444712	-0.0798645	-0.43824768	0.4890442	
1465375300444712	-0.0798645	-0.43824768	0.4890442	
1465375310454478	-0.2290039	-0.31147766	0.4229889	
1465375320464243	-0.34617615	-0.10269165	0.38145447	
1465375330443492	-0.39944458	0.07733154	0.3867798	
1465375350432505	-0.31422424	0.15510559	0.44963074	
1465375350432505	-0.31422424	0.15510559	0.44963074	
1465375360442271	-0.20343018	0.034729004	0.4517517	
1465375370452036	-0.107559204	-0.14424133	0.4006195	
1465375380431285	-0.05003357	-0.2955017	0.2983551	
1465375400450816	-0.08093262	-0.4212036	0.060806274	
1465375400450816	-0.08093262	-0.4212036	0.060806274	
1465375410430064	-0.17147827	-0.43611145	-0.027618408	
1465375420439829	-0.28546143	-0.39564514	-0.0819397	
1465375430449595	-0.39305115	-0.2582245	-0.09152222	
1465375440428843	-0.46655273	-0.050491333	-0.046783447	
1465375450438609	-0.49850464	0.1359253	0.020324707	
1465375460417857	-0.48466492	0.30210876	0.06826782	
1465375470397105	-0.4132843	0.433136	0.08850098	
1465375480406870	-0.2982483	0.45231628	0.07359314	
1465375500395884	-0.009552002	0.2626953	-0.049987793	
1465375500395884	-0.009552002	0.2626953	-0.049987793	
1465375510405650	0.14491272	0.12953186	-0.12561035	
1465375530394663	0.37606812	-0.101623535	-0.27581787	
1465375530394663	0.37606812	-0.101623535	-0.27581787	
1465375540404429	0.42080688	-0.14743042	-0.33015442	
1465375550383677	0.4133606	-0.12931824	-0.3514557	
1465375560393443	0.37713623	-0.09310913	-0.35464478	
1465375570403208	0.33665466	-0.037704468	-0.34931946	
1465375590392222	0.25782776	0.24565125	-0.3290863	
1465375590392222	0.25782776	0.24565125	-0.3290863	
1465375600401988	0.23439026	0.35110474	-0.30244446	
1465375610381236	0.22480774	0.35110474	-0.26623535	
1465375620391001	0.21948242	0.27867126	-0.23426819	
1465375630400767	0.19604492	0.16256714	-0.21936035	
1465375650359263	0.07673645	-0.0867157	-0.25131226	
1465375650359263	0.07673645	-0.0867157	-0.25131226	
1465375660369029	-0.014877319	-0.17086792	-0.28327942	
1465375670348277	-0.107559204	-0.18791199	-0.30244446	
1465375680358042	-0.1821289	-0.17938232	-0.30671692	
1465375690367808	-0.24072266	-0.18791199	-0.29925537	
1465375700377574	-0.27586365	-0.19216919	-0.2811432	
1465375710356822	-0.28546143	-0.1932373	-0.2577057	
1465375730345835	-0.2609558	-0.174057	-0.19592285	
1465375730345835	-0.2609558	-0.174057	-0.19592285	
1465375740325083	-0.21514893	-0.122924805	-0.16397095	
1465375750334849	-0.14697266	-0.060073853	-0.12348938	
1465375760344615	-0.062820435	-0.049423218	-0.07661438	
1465375770323863	0.036254883	-0.0952301	-0.025482178	
1465375780333628	0.13638306	-0.174057	0.022460938	
1465375790343394	0.2216034	-0.26887512	0.053344727	
1465375810332408	0.29510498	-0.48405457	0.020324707	
1465375810332408	0.29510498	-0.48405457	0.020324707	
1465375820311656	0.28126526	-0.5596924	-0.032943726	
1465375830321421	0.23652649	-0.5927124	-0.08087158	
1465375840300669	0.17579651	-0.5916443	-0.10218811	
1465375850310435	0.10762024	-0.52453613	-0.09472656	
1465375860320201	0.044769287	-0.40097046	-0.056381226	
1465375870299449	0.0042877197	-0.24862671	0.009674072	
1465375880309214	0.0042877197	-0.040908813	0.10235596	
1465375890318980	0.037322998	0.13912964	0.20248413	
1465375900298228	0.07885742	0.2296753	0.28024292	
1465375910307993	0.1161499	0.2850647	0.32711792	
1465375920287242	0.13851929	0.29997253	0.34204102	
1465375930266490	0.14277649	0.28399658	0.33244324	
1465375940276255	0.12359619	0.27867126	0.30368042	
1465375950286021	0.08312988	0.30104065	0.2706604	
1465375970275035	0.011749268	0.52049255	0.26000977	
1465375970275035	0.011749268	0.52049255	0.26000977	
1465375980284800	-0.01914978	0.559906	0.29516602	
1465375990294566	-0.05429077	0.51942444	0.33137512	
1465376000304331	-0.11502075	0.44485474	0.35055542	
1465376010283579	-0.20236206	0.34791565	0.33883667	
1465376030272593	-0.3632202	0.2861328	0.22698975	
1465376030272593	-0.3632202	0.2861328	0.22698975	
1465376040282359	-0.37387085	0.30636597	0.15348816	
1465376050261607	-0.3302002	0.2850647	0.08850098	
1465376060271372	-0.25881958	0.19238281	0.037368774	
1465376070281138	-0.16934204	0.081604004	0.00541687	
1465376080260386	-0.08732605	-0.011077881	-0.016952515	
1465376090239634	-0.036193848	-0.0440979	-0.058502197	
1465376100249400	-0.0074310303	-0.03237915	-0.11709595	
1465376110259165	0.0032348633	0.015548706	-0.18527222	
1465376120268931	0.010681152	0.081604004	-0.23854065	
1465376130248179	0.035186768	0.13699341	-0.27368164	
1465376140227427	0.08099365	0.15510559	-0.2811432	
1465376150237193	0.14598083	0.128479	-0.26623535	
1465376160246958	0.21308899	0.072006226	-0.2353363	
1465376170226206	0.2652893	-0.025985718	-0.20445251	
1465376180235972	0.28019714	-0.16233826	-0.19166565	
1465376190215220	0.25782776	-0.2955017	-0.20550537	
1465376200224986	0.21202087	-0.38711548	-0.24491882	
1465376210204234	0.15556335	-0.4116211	-0.28753662	
1465376220213999	0.08312988	-0.39564514	-0.31629944	
1465376230223765	-0.0010375977	-0.37113953	-0.31523132	
1465376240233531	-0.074539185	-0.32852173	-0.2854004	
1465376250212779	-0.13418579	-0.2624817	-0.21829224	
1465376260192027	-0.16827393	-0.15063477	-0.12667847	
1465376270201792	-0.15975952	-0.018539429	-0.02973938	
1465376280181040	-0.11395264	0.083724976	0.062942505	
1465376290190806	-0.05003357	0.15084839	0.1449585	
1465376300170054	0.00642395	0.1561737	0.20248413	
1465376310179820	0.038375854	0.09651184	0.2195282	
1465376320189585	0.042648315	0.021942139	0.20248413	
1465376330168833	0.019210815	-0.061141968	0.16520691	
1465376340178599	-0.0287323	-0.174057	0.105545044	
1465376350157847	-0.10649109	-0.27738953	0.034179688	
1465376360167613	-0.2013092	-0.281662	-0.025482178	
1465376370177378	-0.29078674	-0.220932	-0.0627594	
1465376380156626	-0.34405518	-0.15701294	-0.0861969	
1465376390166392	-0.35682678	-0.10482788	-0.10005188	
1465376400145640	-0.33338928	-0.0952301	-0.11495972	
1465376410155406	-0.29718018	-0.13571167	-0.14797974	
1465376420165171	-0.2598877	-0.18045044	-0.19592285	
1465376430144419	-0.21940613	-0.23052979	-0.24598694	
1465376440154185	-0.19064331	-0.3136139	-0.30776978	
1465376450133433	-0.19810486	-0.37860107	-0.37701416	
1465376460143199	-0.23432922	-0.39457703	-0.438797	
1465376480162730	-0.3035736	-0.23904419	-0.47076416	
1465376480162730	-0.3035736	-0.23904419	-0.47076416	
1465376490141978	-0.34085083	-0.14103699	-0.4313507	
1465376500151743	-0.36642456	0.0059661865	-0.37275696	
1465376510161509	-0.3632202	0.06668091	-0.33441162	
1465376520171275	-0.33659363	-0.028121948	-0.35357666	
1465376530150523	-0.3025055	-0.15382385	-0.42282104	
1465376540160288	-0.25776672	-0.26034546	-0.5155029	
1465376550139536	-0.17892456	-0.3732605	-0.59114075	
1465376560118785	-0.06921387	-0.47979736	-0.6326752	
1465376580107798	0.14170837	-0.58418274	-0.6294861	
1465376580107798	0.14170837	-0.58418274	-0.6294861	
1465376590117564	0.22587585	-0.50216675	-0.58154297	
1465376600127329	0.3014984	-0.3743286	-0.5037842	
1465376610137095	0.37394714	-0.2443695	-0.403656	
1465376620146861	0.4176178	-0.16873169	-0.29286194	
1465376630126109	0.4026947	-0.1463623	-0.19805908	
1465376640105357	0.33665466	-0.13891602	-0.13200378	
1465376650115122	0.23545837	-0.16661072	-0.101119995	
1465376660094370	0.1161499	-0.22839355	-0.101119995	
1465376680113902	-0.12034607	-0.4169464	-0.15757751	
1465376680113902	-0.12034607	-0.4169464	-0.15757751	
1465376690123667	-0.20449829	-0.43717957	-0.19166565	
1465376700102915	-0.26309204	-0.4126892	-0.20977783	
1465376710112681	-0.27799988	-0.43824768	-0.1991272	
1465376720091929	-0.23751831	-0.48086548	-0.1650238	
1465376730101695	-0.1618805	-0.5128174	-0.13520813	
1465376740111460	-0.09690857	-0.5096283	-0.13093567	
1465376750090708	-0.053237915	-0.4670105	-0.14372253	
1465376760100474	-0.0010375977	-0.37860107	-0.15544128	
1465376770110240	0.07034302	-0.26994324	-0.13839722	
1465376780089488	0.15342712	-0.20495605	-0.10218811	
1465376790068736	0.27593994	-0.16233826	-0.024414062	
1465376800078501	0.38778687	-0.13891602	0.09169006	
1465376810057749	0.4730072	-0.13038635	0.20462036	
1465376820067515	0.5390625	-0.15168762	0.29623413	
1465376830046763	0.55822754	-0.20814514	0.31967163	
1465376840056529	0.53585815	-0.2720642	0.27172852	
1465376850066294	0.47514343	-0.28910828	0.2110138	
1465376860076060	0.3707428	-0.3231964	0.15774536	
1465376870085826	0.1715393	-0.3892517	0.07998657	
1465376880065074	-0.015945435	-0.3892517	0.045898438	
1465376890044322	-0.05429077	-0.31147766	0.11512756	
1465376900054087	-0.027664185	-0.2859192	0.2472229	
1465376910033335	-0.014877319	-0.26034546	0.38145447	
1465376920043101	-0.018081665	-0.13996887	0.503952	
1465376930022349	-0.015945435	6.4086914E-4	0.6243286	
1465376940032115	-0.022338867	0.09864807	0.7308502	
1465376950041880	-0.053237915	0.16894531	0.80862427	
1465376970030894	-0.2055664	0.24884033	0.8427124	
1465376970030894	-0.2055664	0.24884033	0.8427124	
1465376980040660	-0.2566986	0.41609192	0.822464	
1465376990050425	-0.25881958	0.5108948	0.8139496	
1465377000029673	-0.23858643	0.48320007	0.81607056	
1465377030028452	-0.13951111	0.4895935	0.99290466	
1465377030028452	-0.13951111	0.4895935	0.99290466	
1465377030028452	-0.13951111	0.4895935	0.99290466	
1465377040007701	-0.2013092	0.39797974	0.9684143	
1465377050017466	-0.265213	0.37667847	0.87786865	
1465377059996714	-0.29397583	0.37348938	0.7415161	
1465377070006480	-0.31529236	0.3553772	0.5742645	
1465377080016245	-0.29930115	0.32661438	0.41766357	
1465377090026011	-0.232193	0.26483154	0.30049133	
1465377100005259	-0.1544342	0.1870575	0.19396973	
1465377109984507	-0.0756073	0.1327362	0.06506348	
1465377119994273	-0.0074310303	0.15403748	-0.040390015	
1465377130004038	0.02986145	0.2658844	-0.11602783	
1465377139983286	0.11401367	0.4565735	-0.14692688	
1465377149993052	0.26315308	0.5140991	-0.1330719	
1465377159972300	0.40696716	0.39691162	-0.112838745	
1465377169982066	0.5209503	0.29039	-0.085128784	
1465377179991831	0.597641	0.18812561	-0.060638428	
1465377190001597	0.60617065	0.060287476	-0.056381226	
1465377199980845	0.5241394	-0.030258179	-0.07661438	
1465377209960093	0.40164185	-0.080322266	-0.10430908	
1465377219939341	0.2876587	-0.09629822	-0.110702515	
1465377229949107	0.1672821	-0.08244324	-0.096847534	
1465377239958872	0.047973633	-0.09629822	-0.075546265	
1465377249938120	-0.086257935	-0.10694885	-0.052108765	
1465377259947886	-0.21302795	-0.0206604	-0.014831543	
1465377269927134	-0.29397583	0.11355591	0.046951294	
1465377279936900	-0.34191895	0.1828003	0.11193848	
1465377289946665	-0.3632202	0.16256714	0.15988159	
1465377299925913	-0.31529236	0.16894531	0.19929504	
1465377309935679	-0.21302795	0.20091248	0.24615479	
1465377319914927	-0.0756073	0.2062378	0.29942322	
1465377329924693	0.056488037	0.14445496	0.34204102	
1465377339934458	0.15982056	0.02619934	0.35908508	
1465377349913706	0.21734619	-0.10269165	0.3484192	
1465377359923472	0.2216034	-0.21986389	0.30368042	
1465377369902720	0.16514587	-0.3189392	0.215271	
1465377379912486	0.052230835	-0.3508911	0.10447693	
1465377389891734	-0.08198547	-0.30403137	0.00541687	
1465377399901499	-0.19917297	-0.22946167	-0.0627594	
1465377409911265	-0.29185486	-0.15808105	-0.09152222	
1465377419890513	-0.34724426	-0.09416199	-0.07980347	
1465377429900279	-0.3621521	-0.06434631	-0.065963745	
1465377439910044	-0.30143738	-0.14103699	-0.108566284	
1465377449919810	-0.30143738	-0.14103699	-0.108566284	
1465377459929576	-0.25881958	-0.22946167	-0.17462158	
1465377469908824	-0.23112488	-0.32426453	-0.24491882	
1465377479918589	-0.22367859	-0.35302734	-0.3045807	
1465377489897837	-0.23326111	-0.27845764	-0.34613037	
1465377499907603	-0.26202393	-0.08244324	-0.34613037	
1465377509886851	-0.3067627	0.19770813	-0.29499817	
1465377519896617	-0.30889893	0.48213196	-0.18952942	
