# OpenSignals Text File Format
# {"internal sensors":{"sensor":["xGrav","yGrav","zGrav"],"device name":"internal sensors","column":["nSeq","xGrav","yGrav","zGrav"],"sync interval":2,"time":"19:01:34","comments":"","keywords":"","device connection":"UNKNOWNinternal sensors","channels":[0,1,2],"date":"2020-07-28","mode":0,"digital IO":[],"firmware version":0,"device":"android","position":0,"sampling rate":100,"label":["xGrav","yGrav","zGrav"],"resolution":[1,1,1],"special":[{},{},{}],"sleeve color":["UNKNOWN","UNKNOWN","UNKNOWN"]}}
# EndOfHeader
1465354455790085	1.9183323	5.606157	7.8141785	
1465354475804163	1.5393847	5.3536487	8.070881	
1465354485813928	1.393918	5.122595	8.245387	
1465354505772424	1.2329187	4.508815	8.620956	
1465354515782190	1.1845427	4.2060204	8.77933	
1465354535771204	1.0571659	3.8275728	8.9667425	
1465354565769983	0.6799529	3.8267825	9.003543	
1465354595768762	0.32731652	4.039819	8.9299	
1465354625767542	0.117517516	4.0052886	8.950656	
1465354655735803	-0.044330638	3.7639873	9.055431	
1465354685734583	-0.0468537	3.7367032	9.06671	
1465354715733362	0.044899568	3.8393369	9.023739	
1465354745732141	0.1082829	3.9662275	8.968149	
1465354785710169	0.1825511	4.1722007	8.872982	
1465354825718714	0.33908796	4.2895327	8.812225	
1465354845677210	0.42332697	4.365547	8.771156	
1465354895665003	0.56012547	4.6388135	8.621952	
1465354925694299	0.6356625	4.726671	8.568832	
1465354965672327	0.75135696	4.7830586	8.528084	
1465355005650354	0.96976256	4.7408304	8.529623	
1465355045628381	0.8349434	4.500979	8.672626	
1465355075627161	0.71636647	4.505197	8.681037	
1465355075627161	0.71636647	4.505197	8.681037	
1465355075627161	0.71636647	4.505197	8.681037	
1465355075627161	0.71636647	4.505197	8.681037	
1465355075627161	0.71636647	4.505197	8.681037	
1465355075627161	0.71636647	4.505197	8.681037	
1465355075627161	0.71636647	4.505197	8.681037	
1465355075627161	0.71636647	4.505197	8.681037	
1465355075627161	0.71636647	4.505197	8.681037	
1465355075627161	0.71636647	4.505197	8.681037	
1465355075627161	0.71636647	4.505197	8.681037	
1465355075627161	0.71636647	4.505197	8.681037	
1465355075627161	0.71636647	4.505197	8.681037	
1465355075627161	0.71636647	4.505197	8.681037	
1465355075627161	0.71636647	4.505197	8.681037	
1465355075627161	0.71636647	4.505197	8.681037	
1465355075627161	0.71636647	4.505197	8.681037	
1465355075627161	0.71636647	4.505197	8.681037	
1465355075627161	0.71636647	4.505197	8.681037	
1465355075627161	0.71636647	4.505197	8.681037	
1465355075627161	0.71636647	4.505197	8.681037	
1465355075627161	0.71636647	4.505197	8.681037	
1465355075627161	0.71636647	4.505197	8.681037	
1465355075627161	0.71636647	4.505197	8.681037	
1465355075627161	0.71636647	4.505197	8.681037	
1465355075627161	0.71636647	4.505197	8.681037	
1465355075627161	0.71636647	4.505197	8.681037	
1465355075627161	0.71636647	4.505197	8.681037	
1465355075627161	0.71636647	4.505197	8.681037	
1465355075627161	0.71636647	4.505197	8.681037	
1465355075627161	0.71636647	4.505197	8.681037	
1465355075627161	0.71636647	4.505197	8.681037	
1465355075627161	0.71636647	4.505197	8.681037	
1465355075627161	0.71636647	4.505197	8.681037	
1465355075627161	0.71636647	4.505197	8.681037	
1465355075627161	0.71636647	4.505197	8.681037	
1465355075627161	0.71636647	4.505197	8.681037	
1465355075627161	0.71636647	4.505197	8.681037	
1465355075627161	0.71636647	4.505197	8.681037	
1465355075627161	0.71636647	4.505197	8.681037	
1465355075627161	0.71636647	4.505197	8.681037	
1465355075627161	0.71636647	4.505197	8.681037	
1465355095616174	0.69238514	4.590201	8.638347	
1465355135594202	0.5920244	4.672143	8.6018	
1465355145603967	0.55855376	4.6650305	8.607897	
1465355145603967	0.55855376	4.6650305	8.607897	
1465355145603967	0.55855376	4.6650305	8.607897	
1465355145603967	0.55855376	4.6650305	8.607897	
1465355145603967	0.55855376	4.6650305	8.607897	
1465355165592981	0.52564025	4.6221356	8.633073	
1465355175602747	0.53573	4.58564	8.6518955	
1465355175602747	0.53573	4.58564	8.6518955	
1465355185581995	0.56411606	4.536767	8.675823	
1465355215580774	0.7467747	4.3626876	8.750981	
1465355215580774	0.7467747	4.3626876	8.750981	
1465355215580774	0.7467747	4.3626876	8.750981	
1465355225590540	0.82410926	4.323943	8.763262	
1465355235569788	0.9096025	4.298384	8.767377	
1465355245549036	1.0033662	4.282637	8.764854	
1465355255558801	1.0980899	4.2696495	8.759833	
1465355265538049	1.181677	4.251226	8.757916	
1465355275547815	1.2468647	4.222372	8.7628355	
1465355285527063	1.284631	4.185743	8.774946	
1465355295536829	1.2907939	4.146896	8.792468	
1465355305516077	1.270215	4.109966	8.812782	
1465355315495325	1.2373232	4.076473	8.832994	
1465355325505090	1.2312366	4.0486393	8.846637	
1465355335514856	1.3065186	4.050976	8.834761	
1465355345494104	1.4191148	4.087411	8.800545	
1465355355503870	1.515145	4.155336	8.752595	
1465355365483118	1.5969555	4.2555723	8.689662	
1465355375492883	1.6624098	4.3822947	8.614074	
1465355385502649	1.6505803	4.5247	8.542427	
1465355395481897	1.5882814	4.653579	8.484807	
1465355405491663	1.5458938	4.757425	8.434898	
1465355415501428	1.5245867	4.8326063	8.395948	
1465355425480676	1.5079075	4.881058	8.370894	
1465355435490442	1.4947758	4.9040947	8.359777	
1465355445469690	1.4853945	4.907971	8.359176	
1465355455479456	1.5022677	4.900397	8.360603	
1465355465458704	1.5505544	4.887303	8.359452	
1465355475468469	1.6275638	4.8733644	8.352948	
1465355485478235	1.7213261	4.860812	8.341458	
1465355495457483	1.8148972	4.8497567	8.328049	
1465355505467249	1.8887383	4.840494	8.317012	
1465355515446497	1.930985	4.839983	8.307602	
1465355525456262	1.9390665	4.8518157	8.298814	
1465355535435510	1.9126204	4.8638144	8.297927	
1465355545445276	1.8458767	4.854772	8.318313	
1465355555455042	1.7598706	4.818625	8.357876	
1465355565464807	1.7070199	4.775684	8.393409	
1465355575444055	1.7027069	4.74729	8.410376	
1465355585453821	1.7281736	4.7439327	8.407075	
1465355595433069	1.7621799	4.766123	8.387442	
1465355615452600	1.8039889	4.86244	8.323021	
1465355615452600	1.8039889	4.86244	8.323021	
1465355655430628	1.8177258	4.9858193	8.246688	
1465355675419641	1.840876	4.9033356	8.290891	
1465355715428186	1.9915718	4.4495535	8.509142	
1465355715428186	1.9915718	4.4495535	8.509142	
1465355735417200	2.1248765	4.239901	8.58362	
1465355735417200	2.1248765	4.239901	8.58362	
1465355735417200	2.1248765	4.239901	8.58362	
1465355735417200	2.1248765	4.239901	8.58362	
1465355735417200	2.1248765	4.239901	8.58362	
1465355735417200	2.1248765	4.239901	8.58362	
1465355735417200	2.1248765	4.239901	8.58362	
1465355745426965	2.193863	4.151779	8.6093025	
1465355745426965	2.193863	4.151779	8.6093025	
1465355755406214	2.2708673	4.071036	8.627874	
1465355765415979	2.3577948	3.997208	8.63907	
1465355775395227	2.4467082	3.9316287	8.644437	
1465355785374475	2.5342581	3.8711178	8.646523	
1465355795384241	2.6246686	3.8104143	8.646517	
1465355805394006	2.7164528	3.7479107	8.645486	
1465355815373255	2.7939973	3.6821394	8.6490345	
1465355825383020	2.859748	3.6095533	8.658137	
1465355835362268	2.926871	3.5289655	8.668922	
1465355845372034	2.9983613	3.4383829	8.680883	
1465355855351282	3.0642867	3.3416831	8.695613	
1465355865361047	3.111113	3.2412293	8.716983	
1465355875370813	3.1512842	3.1416683	8.7389765	
1465355885350061	3.1942527	3.0521047	8.755101	
1465355895359827	3.2305288	2.9845173	8.765085	
1465355905339075	3.253308	2.9494007	8.768546	
1465355915348840	3.2640603	2.9483578	8.764901	
1465355925358606	3.269084	2.980757	8.75206	
1465355935337854	3.2690625	3.035671	8.733173	
1465355945347620	3.269325	3.0989625	8.710817	
1465355965336633	3.278126	3.204594	8.669189	
1465355965336633	3.278126	3.204594	8.669189	
1465355975346399	3.2876494	3.2393622	8.652646	
1465355985325647	3.2977142	3.2636275	8.6396885	
1465355995335413	3.2973433	3.2819347	8.632892	
1465356005314661	3.2902586	3.303755	8.62727	
1465356015324426	3.2931066	3.3351016	8.614112	
1465356025334192	3.3084755	3.375634	8.592408	
1465356035343958	3.3272684	3.4202583	8.567469	
1465356045323206	3.3391294	3.4571404	8.548028	
1465356055332971	3.3388274	3.4761631	8.540428	
1465356065342737	3.3288043	3.4742785	8.545106	
1465356075352503	3.3148808	3.4525383	8.559319	
1465356085331751	3.3019528	3.4187238	8.577868	
1465356095310999	3.2955544	3.3812325	8.595172	
1465356125309778	3.3296247	3.3004594	8.613418	
1465356125309778	3.3296247	3.3004594	8.613418	
1465356125309778	3.3296247	3.3004594	8.613418	
1465356135319544	3.344179	3.2935	8.610441	
1465356145329309	3.3505173	3.293272	8.608065	
1465356155308557	3.3439274	3.2966502	8.609334	
1465356165287805	3.3220596	3.3023903	8.615599	
1465356175297571	3.2868495	3.307755	8.627037	
1465356185307337	3.2405066	3.3106742	8.643433	
1465356195286585	3.1869972	3.308226	8.664241	
1465356205296350	3.1309557	3.2988882	8.688201	
1465356215275598	3.0745258	3.282188	8.714638	
1465356225285364	3.0181525	3.2577565	8.743464	
1465356235295130	2.9647794	3.2269456	8.7731	
1465356255284143	2.863429	3.1576643	8.831779	
1465356255284143	2.863429	3.1576643	8.831779	
1465356265263391	2.7984767	3.1229715	8.864873	
1465356285282922	2.6538222	3.0812473	8.923762	
1465356285282922	2.6538222	3.0812473	8.923762	
1465356295262171	2.5638318	3.0859766	8.948402	
1465356305271936	2.492528	3.101334	8.963225	
1465356315281702	2.4544742	3.1136417	8.969458	
1465356325260950	2.4179811	3.1200287	8.977147	
1465356335270715	2.3802593	3.122957	8.986206	
1465356355259729	2.3000696	3.1181128	9.008742	
1465356355259729	2.3000696	3.1181128	9.008742	
1465356365269495	2.2588289	3.1181762	9.01915	
1465356375248743	2.2202506	3.1311753	9.024224	
1465356385258508	2.1815782	3.1616533	9.023029	
1465356395237756	2.135742	3.2123008	9.016104	
1465356405247522	2.0826263	3.2834957	9.002872	
1465356415226770	2.0219157	3.3744802	8.983047	
1465356425206018	1.9463985	3.4863558	8.956966	
1465356435215784	1.8628983	3.6198287	8.921706	
1465356455204797	1.713443	3.9296265	8.820007	
1465356455204797	1.713443	3.9296265	8.820007	
1465356465214563	1.6411667	4.0883546	8.761411	
1465356475224329	1.5660245	4.238686	8.703533	
1465356485203577	1.4873074	4.374311	8.65007	
1465356495182825	1.4026766	4.488328	8.605684	
1465356505192590	1.303222	4.5773277	8.574385	
1465356525181604	1.0271405	4.6879306	8.552115	
1465356525181604	1.0271405	4.6879306	8.552115	
1465356535191370	0.85971284	4.7235546	8.550982	
1465356545201135	0.6859043	4.75985	8.546563	
1465356555180383	0.51672465	4.8057637	8.532762	
1465356565190149	0.35926518	4.865649	8.506866	
1465356575169397	0.21149954	4.9371676	8.470539	
1465356585179163	0.06214305	5.0146966	8.427297	
1465356615177942	-0.52396286	5.2100244	8.291653	
1465356615177942	-0.52396286	5.2100244	8.291653	
1465356615177942	-0.52396286	5.2100244	8.291653	
1465356625187708	-0.77712804	5.2543163	8.243702	
1465356635197473	-1.0348421	5.2890954	8.192983	
1465356645207239	-1.2788863	5.313611	8.142504	
1465356655186487	-1.4984729	5.328023	8.0955	
1465356675206018	-1.8524833	5.336128	8.016509	
1465356675206018	-1.8524833	5.336128	8.016509	
1465356695164514	-2.0768535	5.3364162	7.9611387	
1465356695164514	-2.0768535	5.3364162	7.9611387	
1465356705143762	-2.1420264	5.335488	7.944474	
1465356715153528	-2.1873739	5.3306446	7.9353642	
1465356725132776	-2.2232504	5.3175445	7.934183	
1465356735142542	-2.2629642	5.2957983	7.9374995	
1465356745152307	-2.310828	5.267494	7.942542	
1465356755131555	-2.3645673	5.2359776	7.9475617	
1465356775120569	-2.465459	5.184706	7.9505177	
1465356775120569	-2.465459	5.184706	7.9505177	
1465356785130335	-2.5004506	5.1730433	7.947185	
1465356805119348	-2.546047	5.183224	7.926047	
1465356805119348	-2.546047	5.183224	7.926047	
1465356815129114	-2.565418	5.2325444	7.88059	
1465356825138880	-2.5859563	5.2325444	7.88059	
1465356845127893	-2.6418512	5.319606	7.8033843	
1465356845127893	-2.6418512	5.319606	7.8033843	
1465356855137659	-2.6808136	5.375252	7.7517934	
1465356865147424	-2.7251303	5.4380937	7.6922812	
1465356875126672	-2.7735155	5.505407	7.6268277	
1465356895115686	-2.8867311	5.6392355	7.485733	
1465356895115686	-2.8867311	5.6392355	7.485733	
1465356905094934	-2.9533122	5.6996465	7.41366	
1465356915104700	-3.0262747	5.755568	7.340673	
1465356925114465	-3.1044343	5.806121	7.2678633	
1465356935093714	-3.1828623	5.8479266	7.2001066	
1465356945103479	-3.2587762	5.8764424	7.1427026	
1465356955113245	-3.3310223	5.8917794	7.0965924	
1465356965123010	-3.3984	5.8974853	7.059811	
1465356975102258	-3.4634461	5.8963633	7.0290694	
1465356985081506	-3.5251412	5.8910413	7.002814	
1465356995091272	-3.5774682	5.884468	6.9817724	
1465357015080286	-3.6463768	5.8778796	6.9516087	
1465357015080286	-3.6463768	5.8778796	6.9516087	
1465357025090051	-3.662163	5.885882	6.9365225	
1465357035069299	-3.6705816	5.907138	6.913966	
1465357045079065	-3.674317	5.9402957	6.8835063	
1465357055058313	-3.6768854	5.97869	6.848808	
1465357065068079	-3.68221	6.0113935	6.8172474	
1465357075047327	-3.6921854	6.030574	6.7948747	
1465357095066858	-3.7168052	6.016172	6.79422	
1465357095066858	-3.7168052	6.016172	6.79422	
1465357105076624	-3.7255394	5.9769864	6.8239555	
1465357115055872	-3.7276995	5.9178243	6.8741546	
1465357125065637	-3.722549	5.8416324	6.9417834	
1465357145054651	-3.7032237	5.64667	7.111374	
1465357145054651	-3.7032237	5.64667	7.111374	
1465357155064417	-3.695337	5.5246243	7.210645	
1465357175053430	-3.6965582	5.233787	7.423835	
1465357175053430	-3.6965582	5.233787	7.423835	
1465357195042444	-3.6711547	4.946224	7.630719	
1465357195042444	-3.6711547	4.946224	7.630719	
1465357205052210	-3.6225476	4.8314357	7.726886	
1465357215031458	-3.5511637	4.7421627	7.814827	
1465357225010706	-3.4646606	4.671563	7.895759	
1465357245030237	-3.2825065	4.546864	8.044971	
1465357245030237	-3.2825065	4.546864	8.044971	
1465357255009485	-3.198702	4.4813895	8.115161	
1465357265019251	-3.1285982	4.4131927	8.179607	
1465357274998499	-3.080591	4.3472633	8.232961	
1465357285008264	-3.057123	4.2869353	8.273244	
1465357295018030	-3.0552456	4.236452	8.2999	
1465357304997278	-3.06982	4.1994243	8.313328	
1465357315007044	-3.0956857	4.17754	8.314762	
1465357325016809	-3.1271589	4.172163	8.305679	
1465357335026575	-3.160962	4.1827455	8.287541	
1465357345005823	-3.1960683	4.2072124	8.261652	
1465357354985071	-3.232273	4.242918	8.229242	
1465357374943567	-3.311701	4.335792	8.148861	
1465357374943567	-3.311701	4.335792	8.148861	
1465357384953333	-3.3540897	4.3884196	8.103225	
1465357394963098	-3.393592	4.4451585	8.055712	
1465357404972864	-3.4267552	4.506541	8.007423	
1465357414982630	-3.4507167	4.5731297	7.959235	
1465357424961878	-3.4632015	4.6443634	7.9124274	
1465357444950891	-3.4537418	4.795505	7.82593	
1465357444950891	-3.4537418	4.795505	7.82593	
1465357454960657	-3.435979	4.8716435	7.786625	
1465357474949671	-3.3903396	5.0152617	7.715123	
1465357474949671	-3.3903396	5.0152617	7.715123	
1465357484959436	-3.3670256	5.0797243	7.683093	
1465357494938684	-3.34831	5.1372776	7.6529455	
1465357504948450	-3.3385246	5.186398	7.624035	
1465357514958215	-3.3410008	5.225878	7.59594	
1465357524937464	-3.356271	5.255921	7.5684295	
1465357534947229	-3.3839293	5.2776885	7.5409155	
1465357544956995	-3.4204953	5.2942014	7.5127916	
1465357554936243	-3.461713	5.3089337	7.4834576	
1465357564946008	-3.5053766	5.3246403	7.451908	
1465357574925256	-3.547518	5.3429556	7.418782	
1465357584935022	-3.584763	5.3633957	7.386058	
1465357594914270	-3.6136649	5.383461	7.357321	
1465357604924036	-3.6304216	5.3999043	7.3369927	
1465357624913049	-3.6187773	5.4086394	7.336311	
1465357624913049	-3.6187773	5.4086394	7.336311	
1465357634922815	-3.594341	5.39521	7.3581796	
1465357644932581	-3.561984	5.3670254	7.394437	
1465357654911829	-3.5247004	5.322651	7.444209	
1465357674900842	-3.4425042	5.1798816	7.582109	
1465357674900842	-3.4425042	5.1798816	7.582109	
1465357684910608	-3.3891869	5.0855684	7.6694717	
1465357694889856	-3.322939	4.9819303	7.7658753	
1465357704899622	-3.2478356	4.870269	7.8678093	
1465357714878870	-3.169703	4.752061	7.97128	
1465357724888635	-3.0920877	4.628476	8.073821	
1465357734898401	-3.0173686	4.5025845	8.172674	
1465357744877649	-2.9512455	4.377084	8.2644825	
1465357754887415	-2.8979468	4.254218	8.347091	
1465357764866663	-2.8554227	4.1380587	8.419823	
1465357784886194	-2.768192	3.945027	8.540741	
1465357784886194	-2.768192	3.945027	8.540741	
1465357794895960	-2.7073853	3.878499	8.590559	
1465357804905725	-2.629522	3.8344052	8.634427	
1465357814884973	-2.5329523	3.8122375	8.673026	
1465357824864221	-2.415339	3.8103867	8.707323	
1465357834843469	-2.2764187	3.8272889	8.737287	
1465357844853235	-2.120852	3.8602827	8.761883	
1465357854863001	-1.9587102	3.904854	8.7798605	
1465357864872766	-1.8004259	3.9563124	8.790703	
1465357874852014	-1.6552407	4.0105777	8.794647	
1465357884861780	-1.5301334	4.0649796	8.792327	
1465357894841028	-1.4314475	4.117181	8.784656	
1465357914830042	-1.3119426	4.22177	8.75362	
1465357914830042	-1.3119426	4.22177	8.75362	
1465357924809290	-1.2780524	4.28041	8.730124	
1465357934819055	-1.2529074	4.347396	8.700618	
1465357944828821	-1.2357773	4.4237504	8.664507	
1465357954808069	-1.2275167	4.50934	8.621453	
1465357964817835	-1.2293214	4.6025157	8.571815	
1465357984806848	-1.2641456	4.7924905	8.461936	
1465357984806848	-1.2641456	4.7924905	8.461936	
1465357994786096	-1.2952578	4.8819666	8.405897	
1465358004795862	-1.3331817	4.9662843	8.35039	
1465358014805628	-1.373407	5.043953	8.297149	
1465358024784876	-1.4107057	5.1136994	8.248054	
1465358034794641	-1.4380804	5.174437	8.205334	
1465358044804407	-1.4474154	5.2241135	8.172148	
1465358054783655	-1.4325725	5.261232	8.150924	
1465358064793421	-1.3906916	5.2853427	8.142573	
1465358074772669	-1.3235185	5.2964354	8.146561	
1465358084782434	-1.2384956	5.2944903	8.161181	
1465358094761682	-1.1461477	5.2799854	8.184038	
1465358104771448	-1.0530387	5.254712	8.212765	
1465358114781214	-0.9629076	5.221893	8.244697	
1465358124790979	-0.8746084	5.184163	8.278278	
1465358134770227	-0.7849165	5.1433797	8.312638	
1465358144779993	-0.68765754	5.0997357	8.348066	
1465358154759241	-0.581632	5.0513988	8.385431	
1465358164769006	-0.47147217	4.9957695	8.425579	
1465358184758020	-0.26367423	4.85893	8.514204	
1465358194767786	-0.17670248	4.7814445	8.560197	
1465358194767786	-0.17670248	4.7814445	8.560197	
1465358204777551	-0.105990075	4.703004	8.604702	
1465358214756799	-0.054063056	4.6281223	8.645689	
1465358224766565	-0.024318576	4.5593004	8.682314	
1465358234745813	-0.019559069	4.4983654	8.714052	
1465358254765344	-0.09291646	4.391121	8.768113	
1465358254765344	-0.09291646	4.391121	8.768113	
1465358264744592	-0.17207773	4.340729	8.791976	
1465358274754358	-0.2742393	4.2886214	8.814924	
1465358284733606	-0.39757237	4.230551	8.838256	
1465358294743372	-0.5270997	4.1656747	8.862264	
1465358304753137	-0.6329933	4.1001396	8.885863	
1465358314762903	-0.69079584	4.0406637	8.908772	
1465358334721399	-0.6527392	3.9555469	8.949747	
1465358334721399	-0.6527392	3.9555469	8.949747	
1465358344731165	-0.59473675	3.9288802	8.965522	
1465358354710413	-0.5375875	3.9090116	8.977807	
1465358364720178	-0.49099785	3.8949473	8.986585	
1465358374729944	-0.46308517	3.8858097	8.992021	
1465358384739710	-0.45866454	3.881281	8.994202	
1465358394718958	-0.4714786	3.8795905	8.994268	
1465358404728723	-0.4922394	3.87799	8.993848	
1465358414738489	-0.5135632	3.8753333	8.9938	
1465358424717737	-0.5274399	3.8700347	8.995277	
1465358434696985	-0.53129035	3.8604193	8.999183	
1465358444706751	-0.5256276	3.8469145	9.005295	
1465358454685999	-0.5124601	3.8311758	9.012761	
1465358464695764	-0.49391463	3.8149405	9.020679	
1465358474705530	-0.47333458	3.7998106	9.028167	
1465358484684778	-0.4534797	3.7866766	9.0347	
1465358494694544	-0.43572357	3.7757354	9.040153	
1465358504673792	-0.42205557	3.766486	9.044659	
1465358514683557	-0.41014642	3.758265	9.048624	
1465358524693323	-0.3956277	3.7502666	9.0525875	
1465358534703089	-0.37856472	3.7429826	9.056333	
1465358544682337	-0.36150226	3.7386713	9.058811	
1465358554661585	-0.34773454	3.7386477	9.059359	
1465358564671350	-0.3387937	3.7414002	9.05856	
1465358574650598	-0.33282116	3.7444966	9.057504	
1465358584629846	-0.32595465	3.7471237	9.056666	
1465358594639612	-0.31647903	3.7480168	9.056633	
1465358604649378	-0.30703035	3.7457743	9.057886	
1465358614628626	-0.29848355	3.7422209	9.05964	
1465358634648157	-0.26587608	3.7469223	9.058712	
1465358634648157	-0.26587608	3.7469223	9.058712	
1465358644627405	-0.22786912	3.759045	9.054726	
1465358654637171	-0.17803033	3.777391	9.048205	
1465358664616419	-0.12467396	3.7997205	9.039743	
1465358674626184	-0.0739947	3.823554	9.030246	
1465358684635950	-0.028921481	3.8474433	9.020351	
1465358694615198	0.009692377	3.87017	9.010665	
1465358704624964	0.041557483	3.8901339	9.001973	
1465358714604212	0.06590424	3.9048548	8.995451	
1465358724613977	0.08743119	3.9121497	8.992099	
1465358744602991	0.14456137	3.8957083	8.998498	
1465358744602991	0.14456137	3.8957083	8.998498	
1465358754612756	0.18056075	3.8695333	9.009135	
1465358764592005	0.21482049	3.8324723	9.024212	
1465358774601770	0.23856278	3.784436	9.043866	
1465358784581018	0.24160703	3.7228048	9.06933	
1465358794590784	0.22339974	3.6423528	9.102404	
1465358804600549	0.19300386	3.5409918	9.143003	
1465358824589563	0.1514404	3.2973173	9.234454	
1465358824589563	0.1514404	3.2973173	9.234454	
1465358834599329	0.16556019	3.1773634	9.276171	
1465358844609094	0.20572555	3.074254	9.31005	
1465358854588342	0.26216012	2.9966278	9.333911	
1465358874577356	0.37636513	2.9328706	9.350241	
1465358874577356	0.37636513	2.9328706	9.350241	
1465358884587122	0.41758028	2.947058	9.3440275	
1465358894596887	0.44478232	2.9860985	9.330368	
1465358904576135	0.4617507	3.0414999	9.31163	
1465358914585901	0.47097126	3.1028497	9.290903	
1465358924565149	0.47191995	3.1597488	9.271659	
1465358934574915	0.46191213	3.205369	9.256491	
1465358944584680	0.4385922	3.2348948	9.24735	
1465358954594446	0.4023604	3.2443676	9.245678	
1465358964573694	0.36135596	3.23274	9.251443	
1465358974552942	0.32660004	3.201907	9.263451	
1465358984562708	0.30551755	3.155805	9.279975	
1465358994572473	0.30650306	3.1019394	9.298087	
1465359004582239	0.33628508	3.0481393	9.314836	
1465359014561487	0.39178386	3.0003211	9.328181	
1465359024540735	0.46562633	2.961803	9.337093	
1465359034550501	0.55068916	2.9349952	9.340929	
1465359044560266	0.6387746	2.921213	9.33964	
1465359054539514	0.7237492	2.9197304	9.333903	
1465359064549280	0.8024179	2.9286492	9.324673	
1465359074528528	0.87175167	2.9440618	9.313589	
1465359084538294	0.9327635	2.961794	9.302049	
1465359094548059	0.9870885	2.977007	9.291581	
1465359114537073	1.0806577	2.9830058	9.279237	
1465359114537073	1.0806577	2.9830058	9.279237	
1465359124516321	1.1251827	2.9723153	9.277375	
1465359144535852	1.2148553	2.9390366	9.276669	
1465359144535852	1.2148553	2.9390366	9.276669	
1465359164524866	1.3009048	2.9192753	9.271239	
1465359164524866	1.3009048	2.9192753	9.271239	
1465359174504114	1.3391813	2.924047	9.264282	
1465359194493128	1.3903519	2.9697914	9.2421665	
1465359194493128	1.3903519	2.9697914	9.2421665	
1465359204502893	1.3954148	3.0043447	9.230228	
1465359214512659	1.3878956	3.0401766	9.219624	
1465359224491907	1.3771123	3.073504	9.210186	
1465359244511438	1.3922616	3.1231675	9.191181	
1465359244511438	1.3922616	3.1231675	9.191181	
1465359254490686	1.4272739	3.1394832	9.180246	
1465359274510217	1.5231173	3.1677363	9.155105	
1465359274510217	1.5231173	3.1677363	9.155105	
1465359284489465	1.5606897	3.1807444	9.144261	
1465359294468714	1.5861176	3.191272	9.136213	
1465359304447962	1.5977781	3.1963472	9.132407	
1465359314457727	1.5874404	3.1914425	9.135924	
1465359324467493	1.5525528	3.1738265	9.148048	
1465359334477258	1.4981506	3.1448467	9.167109	
1465359344456506	1.4377556	3.1072333	9.189578	
1465359354466272	1.3904804	3.064805	9.211077	
1465359364445520	1.3697513	3.0251231	9.227286	
1465359374455286	1.3833747	2.9963129	9.234651	
1465359384465051	1.4260973	2.9838455	9.232189	
1465359394444299	1.4782784	2.9882724	9.222544	
1465359404454065	1.5204496	3.0073323	9.209482	
1465359424443079	1.5220276	3.0690885	9.188826	
1465359424443079	1.5220276	3.0690885	9.188826	
1465359434452844	1.4817693	3.100405	9.184891	
1465359454441858	1.3835394	3.1450858	9.185022	
1465359454441858	1.3835394	3.1450858	9.185022	
1465359464451624	1.3515784	3.1531878	9.187003	
1465359474430872	1.3345077	3.14906	9.190913	
1465359484440637	1.3251855	3.13628	9.196631	
1465359494419885	1.3189055	3.119854	9.203118	
1465359504429651	1.3139662	3.104571	9.208991	
1465359514439417	1.3111362	3.0951524	9.2125635	
1465359524418665	1.3119822	3.0940545	9.212812	
1465359534428430	1.3153487	3.1020656	9.209638	
1465359554417444	1.3187094	3.1445777	9.194728	
1465359554417444	1.3187094	3.1445777	9.194728	
1465359564427210	1.3157065	3.1803706	9.18284	
1465359574406458	1.309017	3.2246668	9.168337	
1465359584416223	1.2972842	3.273678	9.15262	
1465359594425989	1.2793716	3.3218074	9.13779	
1465359604405237	1.2562783	3.3640065	9.125546	
1465359614384485	1.2307507	3.3962445	9.117081	
1465359624394251	1.2046086	3.4156208	9.113333	
1465359634404016	1.178104	3.4224977	9.114219	
1465359644383264	1.1569723	3.4205136	9.117669	
1465359654393030	1.1496552	3.412745	9.121505	
1465359664372278	1.1606814	3.4012156	9.124414	
1465359674382044	1.1850976	3.3898585	9.125503	
1465359684391809	1.213809	3.3837225	9.124006	
1465359694371057	1.2387892	3.3861902	9.119732	
1465359704380823	1.2558944	3.3999484	9.11227	
1465359714360071	1.2657108	3.427545	9.100566	
1465359724369837	1.2709529	3.4707956	9.083426	
1465359734349085	1.2744948	3.5280762	9.060836	
1465359754368616	1.2827654	3.6789036	8.9994755	
1465359754368616	1.2827654	3.6789036	8.9994755	
1465359764347864	1.291296	3.7698705	8.9605255	
1465359774357630	1.3013625	3.8665123	8.917788	
1465359784367395	1.3111484	3.962362	8.874173	
1465359794346643	1.3175226	4.051305	8.832975	
1465359814335657	1.3054326	4.1877513	8.770916	
1465359814335657	1.3054326	4.1877513	8.770916	
1465359824345422	1.2804506	4.2258406	8.756318	
1465359834355188	1.2463129	4.2414813	8.753681	
1465359844334436	1.2094642	4.2364936	8.761261	
1465359864323450	1.1335557	4.183968	8.796582	
1465359864323450	1.1335557	4.183968	8.796582	
1465359874333215	1.0928628	4.1488137	8.818356	
1465359884312464	1.0518703	4.116314	8.838547	
1465359894322229	1.0076957	4.0912614	8.8553095	
1465359904331995	0.9573043	4.0766454	8.867634	
1465359914311243	0.8989471	4.0718956	8.875919	
1465359924290491	0.8312632	4.0724883	8.882242	
1465359934300256	0.7543314	4.0747137	8.888086	
1465359944310022	0.6714096	4.076627	8.893858	
1465359954319788	0.58489203	4.078691	8.899021	
1465359964329553	0.49413282	4.0841165	8.902034	
1465359974308801	0.39615712	4.097526	8.90077	
1465359984288049	0.28582087	4.1211925	8.89407	
1465359994297815	0.1578957	4.1548123	8.88161	
1465360004307581	0.011421316	4.1956773	8.863777	
1465360014286829	-0.15514053	4.241319	8.840675	
1465360024296594	-0.34276584	4.291437	8.811156	
1465360034306360	-0.5493881	4.345238	8.774251	
1465360044316126	-0.7730581	4.4042883	8.72783	
1465360054295374	-1.0093223	4.472901	8.668611	
1465360064305139	-1.2511506	4.5565147	8.593205	
1465360084294153	-1.7165027	4.7690907	8.395224	
1465360084294153	-1.7165027	4.7690907	8.395224	
1465360094273401	-1.9300196	4.8829956	8.2826185	
1465360104283167	-2.1332421	4.986655	8.170247	
1465360114262415	-2.328151	5.07139	8.064185	
1465360124272180	-2.5111675	5.136223	7.9676623	
1465360134281946	-2.6782792	5.182385	7.8828998	
1465360144261194	-2.8301897	5.2105603	7.81092	
1465360154270960	-3.088611	5.21283	7.710854	
1465360164250208	-3.088611	5.21283	7.710854	
1465360174259973	-3.1922767	5.1826253	7.688962	
1465360184269739	-3.2786877	5.128092	7.6891656	
1465360194248987	-3.3478148	5.048877	7.7117677	
1465360214268518	-3.4543655	4.8258085	7.8070045	
1465360214268518	-3.4543655	4.8258085	7.8070045	
1465360224247766	-3.5031815	4.6948304	7.8649006	
1465360234257532	-3.5555127	4.5589437	7.921158	
1465360244236780	-3.610063	4.422254	7.9738	
1465360254246546	-3.660524	4.2760334	8.030349	
1465360264225794	-3.7127638	4.1276574	8.083824	
1465360274235559	-3.76191	3.9893098	8.130425	
1465360284214807	-3.798329	3.8636324	8.17407	
1465360294224573	-3.8262715	3.7484705	8.2145605	
1465360304203821	-3.849954	3.644217	8.250329	
1465360314213587	-3.8666742	3.550405	8.283348	
1465360334233118	-3.8730168	3.387037	8.348538	
1465360334233118	-3.8730168	3.387037	8.348538	
1465360344212366	-3.8651366	3.3135026	8.381635	
1465360364201380	-3.8536003	3.1939895	8.433183	
1465360364201380	-3.8536003	3.1939895	8.433183	
1465360374211145	-3.8512294	3.1518114	8.450119	
1465360384220911	-3.8490107	3.1216934	8.462301	
1465360394200159	-3.8436553	3.102921	8.471634	
1465360414219690	-3.828345	3.083	8.485828	
1465360414219690	-3.828345	3.083	8.485828	
1465360424198938	-3.8305418	3.069405	8.489764	
1465360444187952	-3.8950477	3.0147753	8.479983	
1465360444187952	-3.8950477	3.0147753	8.479983	
1465360454197717	-3.9635692	2.9776366	8.461335	
1465360464207483	-4.047281	2.942974	8.433789	
1465360474186731	-4.134129	2.9173281	8.400509	
1465360484165979	-4.2157288	2.90444	8.364344	
1465360494175745	-4.286359	2.9055495	8.327983	
1465360504154993	-4.3415494	2.920406	8.294128	
1465360514164758	-4.379841	2.9476342	8.264311	
1465360524144006	-4.402619	2.9848714	8.238803	
1465360534153772	-4.4143214	3.0287488	8.216497	
1465360544163538	-4.421741	3.0742667	8.195577	
1465360554173303	-4.4320493	3.1161945	8.174145	
1465360564152551	-4.4495983	3.1508157	8.151308	
1465360574162317	-4.475741	3.1771202	8.126749	
1465360584141565	-4.508645	3.19589	8.101161	
1465360594151331	-4.5450907	3.2096996	8.075293	
1465360604161096	-4.579987	3.2205803	8.051209	
1465360614170862	-4.608856	3.2311924	8.030456	
1465360624150110	-4.626917	3.2447739	8.014578	
1465360634129358	-4.6323266	3.2634022	8.003884	
1465360644108606	-4.6262083	3.2873995	7.997599	
1465360654118372	-4.6116934	3.3163245	7.9940395	
1465360664097620	-4.593701	3.3484557	7.9910045	
1465360674107385	-4.576931	3.3823872	7.986335	
1465360684117151	-4.565001	3.4169943	7.978428	
1465360694096399	-4.5609574	3.4519413	7.9656863	
1465360704106165	-4.5657616	3.4870772	7.9476094	
1465360714115930	-4.57943	3.5218475	7.92438	
1465360724095178	-4.6005015	3.5552404	7.897217	
1465360734104944	-4.6261744	3.5869708	7.867817	
1465360744084192	-4.6525493	3.6167495	7.8385773	
1465360764073206	-4.6971674	3.6692708	7.7873907	
1465360764073206	-4.6971674	3.6692708	7.7873907	
1465360774082971	-4.714183	3.6910248	7.766802	
1465360784062219	-4.7302914	3.7084332	7.748694	
1465360794071985	-4.7471566	3.7216616	7.73202	
1465360804081751	-4.764973	3.7307901	7.716646	
1465360814060999	-4.7846813	3.736836	7.701511	
1465360824070764	-4.8070917	3.740464	7.6857777	
1465360834050012	-4.8325715	3.7412345	7.669407	
1465360844059778	-4.862873	3.7384565	7.651588	
1465360854069544	-4.8999176	3.731297	7.6314235	
1465360874058557	-5.0017033	3.6986525	7.5811152	
1465360874058557	-5.0017033	3.6986525	7.5811152	
1465360884068323	-5.0687943	3.6705358	7.5501575	
1465360894047571	-5.1461005	3.6338975	7.515505	
1465360904057337	-5.2324014	3.5874186	7.4781537	
1465360914067102	-5.3234324	3.5304708	7.4409156	
1465360924046350	-5.414366	3.4630609	7.4069057	
1465360934025598	-5.501022	3.3863235	7.3784795	
1465360944035364	-5.578606	3.3030617	7.3579435	
1465360964024378	-5.6976614	3.1241295	7.344852	
1465360964024378	-5.6976614	3.1241295	7.344852	
1465360974034143	-5.7410836	3.027512	7.3514977	
1465360984013391	-5.774778	2.9276671	7.365534	
1465360994023157	-5.8025036	2.8260102	7.3834286	
1465361004032922	-5.8279004	2.7244835	7.4015656	
1465361014012171	-5.8507934	2.6249206	7.419461	
1465361024021936	-5.867378	2.529517	7.4394765	
1465361034001184	-5.8732243	2.4441655	7.463356	
1465361044010950	-5.8665414	2.375291	7.4907994	
1465361054020715	-5.848066	2.328185	7.5199776	
1465361064030481	-5.822013	2.3038468	7.5476384	
1465361074009729	-5.7936287	2.2999713	7.570626	
1465361084019495	-5.7656245	2.3124614	7.5881805	
1465361094029260	-5.7398543	2.337912	7.5999093	
1465361104008508	-5.71835	2.372815	7.6053014	
1465361114018274	-5.7023807	2.4139016	7.6043615	
1465361123997522	-5.6934156	2.457793	7.597017	
1465361134007288	-5.6907454	2.5032136	7.5841756	
1465361144017053	-5.6913476	2.550417	7.56798	
1465361153996301	-5.6925206	2.6001914	7.55014	
1465361164006067	-5.6922655	2.6531777	7.531876	
1465361173985315	-5.6888924	2.7088442	7.514589	
1465361183995081	-5.6802745	2.767133	7.4998565	
1465361194004846	-5.664797	2.8275945	7.4890037	
1465361203984094	-5.640685	2.8910913	7.482958	
1465361223973108	-5.560682	3.030697	7.4875946	
1465361223973108	-5.560682	3.030697	7.4875946	
1465361233982874	-5.5036306	3.1072078	7.4983797	
1465361243992639	-5.437998	3.1858706	7.5132422	
1465361254002405	-5.366419	3.2657614	7.530387	
1465361263981653	-5.29012	3.346286	7.548999	
1465361273960901	-5.2097387	3.425751	7.5692296	
1465361283970667	-5.127628	3.5008976	7.590885	
1465361293980432	-5.047351	3.5684488	7.6131997	
1465361303959680	-4.9720483	3.6265728	7.635253	
1465361313969446	-4.9039907	3.6750348	7.6560683	
1465361323948694	-4.846125	3.7131464	7.6745033	
1465361333958460	-4.79856	3.7396731	7.691492	
1465361343968225	-4.7598386	3.7535248	7.7087855	
1465361353947473	-4.7288365	3.7551754	7.72704	
1465361373967005	-4.6807833	3.7286022	7.7690525	
1465361373967005	-4.6807833	3.7286022	7.7690525	
1465361383946253	-4.660123	3.7039056	7.7932487	
1465361393956018	-4.641337	3.673112	7.8189907	
1465361403935266	-4.6265907	3.636771	7.844676	
1465361423924280	-4.6158085	3.5465405	7.892195	
1465361423924280	-4.6158085	3.5465405	7.892195	
1465361433934046	-4.6225576	3.4914007	7.912804	
1465361443943811	-4.6384873	3.429103	7.930705	
1465361453953577	-4.663817	3.3601148	7.945365	
1465361473912073	-4.748214	3.2035851	7.960019	
1465361473912073	-4.748214	3.2035851	7.960019	
1465361483921839	-4.8092613	3.1169171	7.9577775	
1465361493931604	-4.879528	3.0275128	7.949514	
1465361503910852	-4.9536386	2.9368668	7.9376736	
1465361513920618	-5.0277205	2.8417795	7.925699	
1465361523899866	-5.099155	2.739276	7.916146	
1465361533909631	-5.1673803	2.626117	7.910252	
1465361543888880	-5.229662	2.5041769	7.908863	
1465361553898645	-5.2861896	2.375991	7.910832	
1465361573918176	-5.3746657	2.1345463	7.9200425	
1465361573918176	-5.3746657	2.1345463	7.9200425	
1465361583927942	-5.39899	2.0466535	7.926696	
1465361593907190	-5.405929	1.9938821	7.9354115	
1465361603886438	-5.397012	1.9792842	7.945129	
1465361613896204	-5.3771276	2.0011165	7.9531384	
1465361623875452	-5.354272	2.0520196	7.9555874	
1465361633885217	-5.3355193	2.1229997	7.949559	
1465361643864465	-5.325899	2.205848	7.9334373	
1465361653874231	-5.329567	2.2935483	7.9060574	
1465361663883997	-5.349226	2.378486	7.8675904	
1465361673863245	-5.3836546	2.4544108	7.8206463	
1465361683873010	-5.428159	2.5190744	7.7691526	
1465361693882776	-5.475985	2.5720572	7.718063	
1465361703862024	-5.5209603	2.6148283	7.6715097	
1465361723851038	-5.584835	2.683364	7.601287	
1465361723851038	-5.584835	2.683364	7.601287	
1465361733860803	-5.5970592	2.718051	7.579942	
1465361743840051	-5.5949645	2.758306	7.566935	
1465361753849817	-5.580325	2.806114	7.5601635	
1465361773838831	-5.527417	2.9233718	7.554597	
1465361773838831	-5.527417	2.9233718	7.554597	
1465361783848596	-5.4925904	2.9925401	7.552916	
1465361793858362	-5.4543686	3.0680726	7.5503097	
1465361803837610	-5.4132943	3.149411	7.546379	
1465361813816858	-5.3701587	3.2353773	7.5408297	
1465361823826624	-5.3281345	3.3235965	7.5322695	
1465361833836389	-5.2912297	3.410732	7.51932	
1465361843815637	-5.2619066	3.494404	7.501457	
1465361853794885	-5.241129	3.5733016	7.4788003	
1465361863804651	-5.227822	3.647105	7.4524426	
1465361873814417	-5.220051	3.715641	7.423979	
1465361883824182	-5.2157946	3.778782	7.3950443	
1465361903813196	-5.208658	3.891083	7.3416443	
1465361903813196	-5.208658	3.891083	7.3416443	
1465361923802210	-5.19733	3.9830148	7.3002563	
1465361923802210	-5.19733	3.9830148	7.3002563	
1465361933811975	-5.1937523	4.017489	7.2838926	
1465361943821741	-5.192701	4.0432906	7.2703533	
1465361953800989	-5.194558	4.060019	7.259698	
1465361963780237	-5.199668	4.067638	7.2517695	
1465361973790003	-5.20897	4.0662117	7.2458906	
1465361983799768	-5.2229323	4.05481	7.2422295	
1465361993809534	-5.2415915	4.031844	7.24157	
1465362003788782	-5.263825	3.9956694	7.2454915	
1465362013798547	-5.288278	3.9444492	7.255745	
1465362033787561	-5.3420362	3.7940135	7.2964716	
1465362033787561	-5.3420362	3.7940135	7.2964716	
1465362043766809	-5.3732867	3.69291	7.3253393	
1465362053776575	-5.4093246	3.5719938	7.358699	
1465362063786340	-5.4488463	3.4296021	7.397181	
1465362083775354	-5.5180993	3.078162	7.4997263	
1465362083775354	-5.5180993	3.078162	7.4997263	
1465362093785120	-5.5363493	2.8747795	7.5666943	
1465362103764368	-5.536913	2.6631732	7.6433296	
1465362113774133	-5.5156083	2.4533746	7.728481	
1465362123753381	-5.469666	2.2607298	7.8193507	
1465362133763147	-5.39819	2.0955698	7.9144506	
1465362143772913	-5.3042173	1.964114	8.011113	
1465362153782678	-5.1959443	1.8666681	8.10482	
1465362163761926	-5.083352	1.8013675	8.190542	
1465362183750940	-4.873998	1.749676	8.327854	
1465362183750940	-4.873998	1.749676	8.327854	
1465362193730188	-4.78601	1.75663	8.377276	
1465362203739954	-4.712158	1.7809546	8.413926	
1465362213749719	-4.6520176	1.8182865	8.439369	
1465362233738733	-4.5652304	1.9199901	8.4642	
1465362233738733	-4.5652304	1.9199901	8.4642	
1465362243717981	-4.537074	1.9779818	8.465987	
1465362253727747	-4.517854	2.0369074	8.462293	
1465362263737512	-4.5037346	2.0950592	8.455618	
1465362273716760	-4.489177	2.1512053	8.44926	
1465362283696008	-4.469433	2.2055604	8.445713	
1465362293705774	-4.440881	2.2590265	8.446642	
1465362313694788	-4.3530226	2.3696563	8.46205	
1465362313694788	-4.3530226	2.3696563	8.46205	
1465362323704553	-4.294234	2.4291797	8.475201	
1465362333714319	-4.2290955	2.491436	8.489869	
1465362343693567	-4.1628027	2.5548332	8.503781	
1465362353703333	-4.0975423	2.6186273	8.516062	
1465362363682581	-4.035249	2.6821485	8.526032	
1465362373692346	-3.9770885	2.744604	8.533481	
1465362393681360	-3.8786163	2.8642795	8.539474	
1465362393681360	-3.8786163	2.8642795	8.539474	
1465362403691126	-3.834208	2.9290147	8.53757	
1465362413670374	-3.7862875	3.0043216	8.532787	
1465362423680139	-3.7275243	3.093511	8.52679	
1465362433659387	-3.656285	3.1950166	8.520201	
1465362443669153	-3.5752907	3.305698	8.512347	
1465362453678919	-3.4864101	3.420367	8.503907	
1465362463658167	-3.3893912	3.535281	8.49613	
1465362473667932	-3.2838376	3.6483037	8.489799	
1465362483677698	-3.1725123	3.7548795	8.48566	
1465362493656946	-3.0572133	3.852184	8.484368	
1465362503666712	-2.9328156	3.9390862	8.4883795	
1465362513676477	-2.796656	4.0147777	8.498863	
1465362523655725	-2.6505733	4.0788345	8.515161	
1465362533665491	-2.499444	4.132137	8.535139	
1465362543675256	-2.3504717	4.1745167	8.556814	
1465362563664270	-2.0828466	4.229188	8.599192	
1465362563664270	-2.0828466	4.229188	8.599192	
1465362573674036	-1.9707621	4.248686	8.615983	
1465362593663049	-1.7775897	4.293876	8.635576	
1465362593663049	-1.7775897	4.293876	8.635576	
1465362603642297	-1.6929784	4.320731	8.639184	
1465362613621546	-1.6197804	4.3449135	8.641089	
1465362623631311	-1.5602878	4.3608365	8.644015	
1465362633641077	-1.5167524	4.3629994	8.65067	
1465362643650842	-1.4901083	4.347174	8.663258	
1465362653630090	-1.4769377	4.3122745	8.682933	
1465362663609339	-1.4711391	4.262013	8.708695	
1465362673619104	-1.4647924	4.2035694	8.738122	
1465362693608118	-1.4178774	4.0956216	8.796925	
1465362693608118	-1.4178774	4.0956216	8.796925	
1465362703617883	-1.3694263	4.0574746	8.822242	
1465362713601105	-1.3093626	4.032339	8.842862	
1465362723610871	-1.2483324	4.0170593	8.858627	
1465362743599885	-1.1608794	3.998046	8.879098	
1465362743599885	-1.1608794	3.998046	8.879098	
1465362753609650	-1.1428174	3.9868126	8.886489	
1465362763619416	-1.1407416	3.9707806	8.89393	
1465362773598664	-1.1509012	3.9477832	8.902855	
1465362793587678	-1.1933857	3.8789446	8.927485	
1465362793587678	-1.1933857	3.8789446	8.927485	
1465362803597443	-1.212853	3.8382025	8.942459	
1465362823586457	-1.2038592	3.7624311	8.975813	
1465362823586457	-1.2038592	3.7624311	8.975813	
1465362833596223	-1.1785276	3.733631	8.991188	
1465362843575471	-1.1417924	3.7136412	9.004197	
1465362853585236	-1.0986339	3.7028058	9.014023	
1465362863564484	-1.0567839	3.6995413	9.020366	
1465362873574250	-1.0219561	3.701056	9.023756	
1465362883584016	-0.9990991	3.7049148	9.024732	
1465362893563264	-0.9894534	3.7082222	9.024436	
1465362903573029	-0.99288964	3.708044	9.024133	
1465362913552277	-1.0078224	3.7025497	9.024733	
1465362933541291	-1.0630443	3.6728113	9.030547	
1465362933541291	-1.0630443	3.6728113	9.030547	
1465362943551057	-1.0985677	3.649437	9.03577	
1465362953530305	-1.1371558	3.6222248	9.0419445	
1465362963540070	-1.1801995	3.5922058	9.048403	
1465362973549836	-1.2318983	3.5618112	9.053524	
1465362983529084	-1.2905772	3.5377343	9.0547905	
1465362993538850	-1.3510407	3.5284262	9.049602	
1465363003548615	-1.4096403	3.540023	9.036124	
1465363013527863	-1.468694	3.5732405	9.013617	
1465363023537629	-1.5318586	3.62469	8.982506	
1465363033516877	-1.5995522	3.6891491	8.944384	
1465363053536408	-1.7510583	3.8404627	8.851838	
1465363053536408	-1.7510583	3.8404627	8.851838	
1465363063546174	-1.8290485	3.9136605	8.803876	
1465363073525422	-1.9063332	3.9734554	8.76059	
1465363083504670	-1.9818964	4.012687	8.72587	
1465363093514436	-2.0481815	4.0281377	8.703415	
1465363103493684	-2.0986006	4.017742	8.696207	
1465363113503449	-2.1352482	3.9781716	8.705473	
1465363123482697	-2.162478	3.9085798	8.73024	
1465363133492463	-2.1814933	3.8115566	8.768325	
1465363143502229	-2.191499	3.6907227	8.817385	
1465363153511994	-2.1954873	3.5486863	8.874517	
1465363163491242	-2.1980877	3.3904994	8.935508	
1465363173501008	-2.2013226	3.2209141	8.997238	
1465363183480256	-2.2019835	3.0475519	9.057266	
1465363203499787	-2.1706007	2.7195451	9.168585	
1465363203499787	-2.1706007	2.7195451	9.168585	
1465363213509553	-2.1174667	2.5814018	9.220796	
1465363223488801	-2.030576	2.4658124	9.271835	
1465363233498566	-1.9148278	2.3700163	9.321311	
1465363243508332	-1.7823001	2.2889655	9.367733	
1465363253487580	-1.6456656	2.2186198	9.409565	
1465363263466828	-1.5163295	2.1554263	9.445913	
1465363273476594	-1.4048139	2.0965912	9.476349	
1465363283455842	-1.3163522	2.0419376	9.500952	
1465363303444855	-1.196854	1.9532573	9.53534	
1465363303444855	-1.196854	1.9532573	9.53534	
1465363313454621	-1.1597965	1.9304831	9.544553	
1465363323464387	-1.1302395	1.9316338	9.547865	
1465363333443635	-1.0983964	1.9590673	9.545993	
1465363353463166	-1.0210341	2.0710828	9.530923	
1465363353463166	-1.0210341	2.0710828	9.530923	
1465363363442414	-0.97706753	2.1382854	9.520686	
1465363373421662	-0.92648417	2.2045486	9.510624	
1465363383431428	-0.861599	2.2656927	9.502351	
1465363393441193	-0.7787177	2.3200943	9.496376	
1465363403420441	-0.678349	2.3684046	9.492149	
1465363413430207	-0.559399	2.412134	9.488892	
1465363423439973	-0.4195454	2.4504857	9.4862795	
1465363433449738	-0.26464775	2.4813578	9.48384	
1465363443428986	-0.10649104	2.5039644	9.480991	
1465363453438752	0.039827988	2.5187001	9.477602	
1465363463418000	0.15829054	2.5274923	9.474023	
1465363473427766	0.24331702	2.5336058	9.470588	
1465363483407014	0.29316294	2.538716	9.467807	
1465363493416779	0.30849522	2.5441344	9.465865	
1465363503426545	0.29171842	2.5521715	9.464233	
1465363513405793	0.2500929	2.565254	9.461887	
1465363523415559	0.19238664	2.5846548	9.457956	
1465363533425324	0.12788974	2.6127007	9.451341	
1465363543435090	0.066689536	2.6517904	9.441077	
1465363553414338	0.020667465	2.7010345	9.4273205	
1465363563393586	-0.002098871	2.7558389	9.411468	
1465363573403352	-1.4044905E-4	2.807706	9.396125	
1465363583382600	0.021882413	2.8464675	9.38443	
1465363593392365	0.05753338	2.8673174	9.37793	
1465363603402131	0.10518592	2.8713844	9.376272	
1465363613381379	0.16416444	2.8615463	9.378432	
1465363623391145	0.22605258	2.841922	9.383111	
1465363633370393	0.27729085	2.8174288	9.389121	
1465363643380158	0.30797383	2.7925134	9.395606	
1465363663369172	0.3243464	2.760976	9.404372	
1465363663369172	0.3243464	2.760976	9.404372	
1465363673378938	0.3284114	2.7580154	9.405099	
1465363693367951	0.3447664	2.7447565	9.408392	
1465363693367951	0.3447664	2.7447565	9.408392	
1465363703377717	0.3475594	2.7132337	9.417428	
1465363713356965	0.33896536	2.6592553	9.433125	
1465363723336213	0.3180505	2.5890913	9.453351	
1465363733345979	0.28626585	2.5158508	9.474119	
1465363753334992	0.22786698	2.418271	9.501076	
1465363753334992	0.22786698	2.418271	9.501076	
1465363763314240	0.22280338	2.4117153	9.502862	
1465363773324006	0.23706223	2.4330153	9.497085	
1465363783333771	0.2640885	2.4754755	9.485392	
1465363803322785	0.31950825	2.5890207	9.453321	
1465363803322785	0.31950825	2.5890207	9.453321	
1465363813332551	0.33365342	2.6453707	9.437218	
1465363823311799	0.33488193	2.6948304	9.42317	
1465363833321564	0.32200998	2.7346208	9.412149	
1465363843331330	0.29478204	2.7637	9.404544	
1465363853310578	0.25602615	2.782773	9.400053	
1465363863320344	0.21152687	2.793934	9.39785	
1465363873330109	0.1641388	2.8004196	9.396867	
1465363883309357	0.1136893	2.8066986	9.395739	
1465363893319123	0.061932903	2.8173048	9.393048	
1465363913308137	-0.034634043	2.866929	9.378161	
1465363913308137	-0.034634043	2.866929	9.378161	
1465363923317902	-0.076187976	2.9112306	9.364258	
1465363933297150	-0.10830594	2.968172	9.346048	
1465363943306916	-0.13047744	3.0324728	9.325099	
1465363963295930	-0.16002803	3.1463094	9.286845	
1465363963295930	-0.16002803	3.1463094	9.286845	
1465363973305695	-0.17182344	3.1850445	9.273422	
1465363983284943	-0.18170401	3.2115817	9.264076	
1465363993294709	-0.18569745	3.2334821	9.256376	
1465364003304475	-0.17055044	3.2643566	9.245825	
1465364013283723	-0.1372422	3.3134549	9.228898	
1465364023262971	-0.1038076	3.3813748	9.204667	
1465364033272736	-0.07988479	3.4610114	9.175261	
1465364043282502	-0.068362445	3.5422804	9.144286	
1465364053261750	-0.0700197	3.6173182	9.114851	
1465364063271516	-0.07269149	3.6824782	9.088699	
1465364073281281	-0.06947824	3.7358096	9.066934	
1465364093270295	-0.08397621	3.8100839	9.035851	
1465364093270295	-0.08397621	3.8100839	9.035851	
1465364103280061	-0.10393184	3.8369226	9.02428	
1465364113259309	-0.1250424	3.8608267	9.01381	
1465364123238557	-0.14148922	3.881638	9.004623	
1465364133248322	-0.14655231	3.8955393	8.998538	
1465364143258088	-0.13711375	3.8956823	8.998624	
1465364153267854	-0.12127201	3.8750482	9.007756	
1465364163247102	-0.10735175	3.8327186	9.026026	
1465364173226350	-0.09636362	3.7735343	9.051052	
1465364193245881	-0.038666457	3.6258752	9.111636	
1465364193245881	-0.038666457	3.6258752	9.111636	
1465364203225129	0.0051567494	3.5442157	9.14379	
1465364213234895	0.051023655	3.4581876	9.176531	
1465364223244660	0.09634774	3.3631608	9.21142	
1465364243233674	0.18565188	3.1309536	9.291558	
1465364243233674	0.18565188	3.1309536	9.291558	
1465364253212922	0.22970812	2.9925034	9.336088	
1465364263222688	0.26640815	2.8377934	9.383301	
1465364273232453	0.28981355	2.6648495	9.433185	
1465364283211701	0.30655357	2.48028	9.48286	
1465364293190949	0.32830572	2.2900884	9.529854	
1465364303200715	0.36738703	2.1000125	9.572114	
1465364313210480	0.43815836	1.9173422	9.607404	
1465364323220246	0.55467147	1.7473762	9.633763	
1465364343178742	0.87825537	1.4449246	9.659775	
1465364343178742	0.87825537	1.4449246	9.659775	
1465364353188508	1.0425227	1.3093593	9.662769	
1465364363198273	1.1897129	1.1892239	9.6613	
1465364373177521	1.3090059	1.0915067	9.657406	
1465364383187287	1.3957477	1.0201975	9.653054	
1465364393197053	1.4464002	0.97602445	9.650166	
1465364403176301	1.4532628	0.95857906	9.650883	
1465364413155549	1.4196995	0.96858037	9.654879	
1465364423165314	1.3633368	1.0025775	9.659532	
1465364443184846	1.2015654	1.1142153	9.668772	
1465364443184846	1.2015654	1.1142153	9.668772	
1465364453164094	1.1089497	1.1786995	9.672192	
1465364463173859	1.0228542	1.2431564	9.67361	
1465364473183625	0.95071065	1.3033687	9.673043	
1465364483162873	0.89588284	1.3556478	9.67109	
1465364493172639	0.8620214	1.3973742	9.668229	
1465364503151887	0.84983075	1.4274842	9.664909	
1465364513161652	0.85384506	1.4459608	9.661807	
1465364523171418	0.8705269	1.4520942	9.659399	
1465364533150666	0.89764124	1.4457184	9.657874	
1465364543160432	0.9317641	1.4278791	9.657296	
1465364553139680	0.9658111	1.4007812	9.65792	
1465364563149445	0.9937554	1.3690877	9.65963	
1465364573159211	1.010142	1.3367853	9.662455	
1465364593117707	1.013538	1.2752366	9.670414	
1465364593117707	1.013538	1.2752366	9.670414	
1465364603127473	1.0047922	1.2465862	9.675061	
1465364613137238	0.9980329	1.2207509	9.679053	
1465364623116486	1.0093048	1.192942	9.681352	
1465364633126252	1.0506428	1.1508503	9.68205	
1465364643105500	1.1116706	1.0854398	9.682789	
1465364653115266	1.1743859	0.99650574	9.684945	
1465364663125031	1.2233119	0.89027095	9.689237	
1465364673134797	1.2458545	0.7772895	9.696085	
1465364683114045	1.243356	0.6662071	9.70467	
1465364693123811	1.2367992	0.55930954	9.712255	
1465364703103059	1.2455957	0.4609931	9.716293	
1465364713082307	1.2795368	0.37244588	9.715681	
1465364723092072	1.3058324	0.2919535	9.714934	
1465364743111604	1.3701742	0.16818386	9.7090025	
1465364743111604	1.3701742	0.16818386	9.7090025	
1465364753090852	1.4261401	0.12097549	9.701644	
1465364763100617	1.4895519	0.078825176	9.692544	
1465364773110383	1.5644709	0.037383605	9.680983	
1465364783120148	1.6526152	-0.00705205	9.666395	
1465364793099396	1.7435987	-0.057397675	9.650231	
1465364803078645	1.8276865	-0.11791386	9.634108	
1465364813088410	1.9049963	-0.18964858	9.617973	
1465364823067658	1.9725194	-0.27167112	9.602383	
1465364843056672	2.067997	-0.45707712	9.57522	
1465364843056672	2.067997	-0.45707712	9.57522	
1465364853066438	2.0975802	-0.5439182	9.564241	
1465364863076203	2.1192915	-0.6114231	9.555373	
1465364873055451	2.1345494	-0.65020883	9.549414	
1465364883065217	2.1453094	-0.6533829	9.546787	
1465364893044465	2.1554017	-0.61760956	9.546894	
1465364903054230	2.1639197	-0.54369676	9.549462	
1465364913063996	2.1682556	-0.43825713	9.5539	
1465364923043244	2.1684499	-0.31060967	9.558856	
1465364943032258	2.1402512	-0.02914034	9.570207	
1465364943032258	2.1402512	-0.02914034	9.570207	
1465364963051789	2.0681713	0.2324179	9.583268	
1465364963051789	2.0681713	0.2324179	9.583268	
1465364973031037	2.0213943	0.34601286	9.589819	
1465364983040803	1.9697791	0.44680712	9.596391	
1465364993050568	1.9200318	0.5348699	9.601967	
1465365003060334	1.8852583	0.6157597	9.604011	
1465365013039582	1.8742703	0.69796556	9.600538	
1465365023018830	1.879215	0.78854287	9.592557	
1465365033028596	1.8831228	0.8889332	9.572787	
1465365043007844	1.8813396	0.99634296	9.572787	
1465365052987092	1.8796844	1.1076941	9.560867	
1465365062996857	1.881519	1.2195524	9.546883	
1465365073006623	1.8864921	1.3277086	9.531459	
1465365083016389	1.8932283	1.4282666	9.515573	
1465365092995637	1.9014909	1.5178273	9.500049	
1465365103005402	1.909113	1.5939106	9.486049	
1465365112984650	1.9068005	1.6525809	9.47647	
1465365122994416	1.8949656	1.6928712	9.471731	
1465365133004182	1.8831642	1.7157274	9.469971	
1465365142983430	1.8760772	1.7246319	9.469761	
1465365152993195	1.8733543	1.7236012	9.470488	
1465365162972443	1.8733889	1.7160668	9.4718485	
1465365172982209	1.8741328	1.7038722	9.473903	
1465365182991975	1.8709967	1.6871948	9.477507	
1465365192971223	1.8607211	1.6655344	9.483358	
1465365202980988	1.8446245	1.6385608	9.4911995	
1465365212990754	1.8268305	1.6070261	9.50003	
1465365222970002	1.8141288	1.5706719	9.508539	
1465365232979768	1.81458	1.5279422	9.515412	
1465365242959016	1.8351736	1.4768506	9.519528	
1465365252968781	1.8887466	1.416094	9.518283	
1465365262978547	1.9726402	1.3465842	9.511351	
1465365272957795	2.0594745	1.2724036	9.503154	
1465365282967561	2.134081	1.1982392	9.496332	
1465365292946809	2.1959908	1.1276685	9.490858	
1465365302956574	2.2494943	1.0598452	9.486141	
1465365312966340	2.2996001	0.9943329	9.48122	
1465365322945588	2.3468282	0.93026024	9.47615	
1465365332955354	2.3875597	0.86563027	9.472097	
1465365342934602	2.4158509	0.7990183	9.4707775	
1465365352944367	2.429945	0.7288224	9.472834	
1465365362954133	2.4304965	0.6539511	9.478155	
1465365372963898	2.421111	0.57455766	9.485701	
1465365382943146	2.4072108	0.49216455	9.493866	
1465365402932160	2.3999841	0.3313401	9.502666	
1465365402932160	2.3999841	0.3313401	9.502666	
1465365412941926	2.4174318	0.26262787	9.500391	
1465365422951691	2.4395018	0.20615712	9.496142	
1465365432930939	2.471517	0.16530089	9.48866	
1465365442940705	2.5075328	0.14210792	9.479582	
1465365452919953	2.541127	0.13854323	9.470685	
1465365462899201	2.568789	0.15646744	9.46294	
1465365482918732	2.6015465	0.25745323	9.451776	
1465365482918732	2.6015465	0.25745323	9.451776	
1465365492897980	2.6037283	0.33682343	9.448679	
1465365502907746	2.5925002	0.4310357	9.447938	
1465365512917512	2.5633967	0.53425676	9.450606	
1465365522896760	2.513539	0.64058787	9.457386	
1465365532876008	2.4457603	0.74784374	9.4672785	
1465365542885773	2.3664165	0.8546459	9.478398	
1465365552895539	2.282594	0.9582737	9.489038	
1465365562874787	2.2014785	1.0559206	9.497837	
1465365582863801	2.082985	1.232292	9.503316	
1465365582863801	2.082985	1.232292	9.503316	
1465365592873566	2.0530612	1.3124009	9.499103	
1465365602883332	2.0432281	1.3884512	9.490406	
1465365612862580	2.0532176	1.4609056	9.477365	
1465365622872346	2.0787296	1.5314451	9.460653	
1465365632882111	2.115016	1.6000813	9.44123	
1465365642861359	2.1593595	1.6649343	9.419955	
1465365662850373	2.272109	1.7695465	9.374252	
1465365662850373	2.272109	1.7695465	9.374252	
1465365672860139	2.3627515	1.8014152	9.345731	
1465365682839387	2.4952502	1.8210623	9.307407	
1465365692849152	2.6332462	1.8349658	9.266569	
1465365702828400	2.7486806	1.8444225	9.231103	
1465365762825959	3.4489307	1.7104863	9.019396	
1465365762825959	3.4489307	1.7104863	9.019396	
1465365762825959	3.4489307	1.7104863	9.019396	
1465365762825959	3.4489307	1.7104863	9.019396	
1465365762825959	3.4489307	1.7104863	9.019396	
1465365762825959	3.4489307	1.7104863	9.019396	
1465365772805207	3.5604813	1.6668928	8.984143	
1465365782814973	3.6693356	1.627582	8.947476	
1465365792794221	3.7741385	1.5934913	8.909941	
1465365802803986	3.8731995	1.5614696	8.873021	
1465365812813752	3.9652479	1.5290264	8.837945	
1465365822793000	4.050432	1.4968163	8.804767	
1465365832802766	4.131756	1.4667041	8.771986	
1465365842782014	4.21027	1.440814	8.738883	
1465365852791779	4.2851768	1.4202923	8.705769	
1465365862771027	4.3510003	1.4063615	8.675329	
1465365872780793	4.40311	1.3990033	8.650191	
1465365882790559	4.4398055	1.3990004	8.631414	
1465365892769807	4.462033	1.4069867	8.618645	
1465365902779572	4.469	1.4203869	8.612835	
1465365912789338	4.4541063	1.4343007	8.618242	
1465365922768586	4.4211	1.441513	8.63402	
1465365932778352	4.382004	1.4389728	8.654351	
1465365952767365	4.261499	1.4172273	8.717882	
1465365952767365	4.261499	1.4172273	8.717882	
1465365962746613	4.183751	1.4075377	8.757024	
1465365982766145	4.063409	1.4010825	8.814537	
1465365982766145	4.063409	1.4010825	8.814537	
1465365992745393	4.041994	1.4111813	8.822768	
1465366012764924	4.0519557	1.4687347	8.808794	
1465366012764924	4.0519557	1.4687347	8.808794	
1465366022744172	4.0609937	1.5124239	8.797233	
1465366042763703	4.0265746	1.6158897	8.794657	
1465366042763703	4.0265746	1.6158897	8.794657	
1465366052773469	3.960949	1.6702046	8.814289	
1465366062752717	3.8612978	1.7228054	8.848316	
1465366072762482	3.7297478	1.7710148	8.895104	
1465366092751496	3.4037583	1.832748	9.012539	
1465366092751496	3.4037583	1.832748	9.012539	
1465366102761262	3.276438	1.8395265	9.0582285	
1465366112771027	3.1619747	1.8338368	9.099964	
1465366122750275	3.0725467	1.8218361	9.132949	
1465366132729523	3.0027242	1.8065057	9.15918	
1465366142739289	2.9451046	1.7906948	9.180967	
1465366152749055	2.8969638	1.7774231	9.198845	
1465366162728303	2.8504338	1.768275	9.215131	
1465366172738068	2.7989364	1.7615688	9.232184	
1465366182717316	2.7408497	1.7546383	9.250913	
1465366192727082	2.676069	1.744801	9.271715	
1465366202706330	2.6063876	1.7299596	9.294319	
1465366212716096	2.534136	1.7103032	9.317908	
1465366222725861	2.4598517	1.6871914	9.341996	
1465366232705109	2.3852112	1.6621909	9.365804	
1465366242714875	2.3133433	1.6366936	9.388295	
1465366252694123	2.250982	1.6132386	9.407493	
1465366262703889	2.200572	1.5918012	9.4230585	
1465366272713654	2.161761	1.5725937	9.43526	
1465366282692902	2.1289556	1.5574228	9.4452305	
1465366292702668	2.0894153	1.5476551	9.455659	
1465366302712434	2.0302713	1.5429662	9.4693	
1465366312722199	1.9506488	1.5437214	9.485899	
1465366322701447	1.8537135	1.5487103	9.504505	
1465366332680695	1.728982	1.5535815	9.527192	
1465366342690461	1.6041723	1.5755812	9.545395	
1465366352669709	1.5221227	1.6182901	9.551684	
1465366362679475	1.4547594	1.6535068	9.556149	
1465366372689240	1.382471	1.6637752	9.565093	
1465366382668488	1.30471	1.6500417	9.578386	
1465366392678254	1.2272618	1.616223	9.594375	
1465366402657502	1.1595482	1.5697078	9.610507	
1465366412667268	1.1069872	1.518481	9.624925	
1465366422677033	1.066592	1.467277	9.63742	
1465366432656281	1.0271326	1.4181045	9.64906	
1465366442666047	0.97699136	1.3717828	9.660957	
1465366452675813	0.914608	1.3289723	9.67304	
1465366462655061	0.84805095	1.289657	9.68442	
1465366472664826	0.7807359	1.2532668	9.694852	
1465366482644074	0.71247137	1.2212929	9.7041855	
1465366492653840	0.64579624	1.1971558	9.711856	
1465366502633088	0.58900553	1.1840652	9.71707	
1465366512642854	0.54485846	1.1851228	9.719516	
1465366522652619	0.51397157	1.2049204	9.718764	
1465366532631867	0.49899262	1.2460583	9.714357	
1465366542641633	0.49860317	1.3084239	9.706173	
1465366552651398	0.5103247	1.3888416	9.694384	
1465366562661164	0.5291639	1.4818307	9.679594	
1465366572640412	0.5467449	1.5807554	9.662953	
1465366592629426	0.5543953	1.7735195	9.629001	
1465366592629426	0.5543953	1.7735195	9.629001	
1465366602608674	0.54347974	1.8581514	9.613651	
1465366622628205	0.5193148	1.9938723	9.587762	
1465366622628205	0.5193148	1.9938723	9.587762	
1465366632607453	0.5176078	2.042703	9.577569	
1465366652626984	0.5422478	2.1048965	9.562727	
1465366652626984	0.5422478	2.1048965	9.562727	
1465366662636750	0.5670221	2.1231222	9.5572605	
1465366672615998	0.599568	2.1366253	9.552264	
1465366682625764	0.639029	2.148933	9.546943	
1465366692605012	0.6847015	2.1618073	9.540869	
1465366702614777	0.7345051	2.1753612	9.53408	
1465366712624543	0.7828243	2.18898	9.527116	
1465366722603791	0.8247808	2.202369	9.520488	
1465366732613557	0.859974	2.216583	9.514073	
1465366752572053	0.9120947	2.2399855	9.503733	
1465366752572053	0.9120947	2.2399855	9.503733	
1465366762581818	0.9247453	2.244655	9.501409	
1465366772591584	0.92896515	2.2451715	9.5008745	
1465366782570832	0.93240565	2.2442257	9.500761	
1465366792580598	0.94220144	2.2430103	9.500082	
1465366802559846	0.9618266	2.2425642	9.4982195	
1465366812569611	0.9934533	2.2440624	9.49461	
1465366822548859	1.0350024	2.247334	9.489397	
1465366832558625	1.0820496	2.2504852	9.4834	
1465366852578156	1.2022332	2.2576447	9.46721	
1465366852578156	1.2022332	2.2576447	9.46721	
1465366862587922	1.2791456	2.2657533	9.455186	
1465366872567170	1.3608218	2.2786696	9.440669	
1465366882546418	1.4408429	2.2959774	9.424587	
1465366892556184	1.5155387	2.3167667	9.407769	
1465366902535432	1.5807621	2.3378265	9.391812	
1465366912545197	1.6305939	2.3541496	9.379207	
1465366922554963	1.6590906	2.3603601	9.372646	
1465366932564729	1.6647768	2.3533084	9.373412	
1465366942543977	1.6516422	2.333033	9.380801	
1465366952553742	1.6247336	2.3016045	9.393255	
1465366962532990	1.5850548	2.2595923	9.41022	
1465366972512238	1.5320286	2.2063596	9.431609	
1465366982522004	1.4688073	2.1419656	9.456478	
1465366992531770	1.4023944	2.0670388	9.483196	
1465367002541535	1.340879	1.9848452	9.509617	
1465367012520783	1.2958905	1.9050113	9.532155	
1465367032540314	1.2866801	1.7981737	9.5541315	
1465367032540314	1.2866801	1.7981737	9.5541315	
1465367052498811	1.3625954	1.8104873	9.541271	
1465367052498811	1.3625954	1.8104873	9.541271	
1465367062508576	1.402234	1.8575953	9.526462	
1465367072518342	1.4268343	1.9207977	9.510262	
1465367082528107	1.4303439	1.9902155	9.495448	
1465367092507355	1.4100983	2.0573976	9.484151	
1465367102517121	1.365683	2.116162	9.477719	
1465367112496369	1.3025378	2.1616726	9.4763365	
1465367122506135	1.2298342	2.1937828	9.478672	
1465367132485383	1.1574878	2.2145293	9.482956	
1465367152474396	1.042293	2.2392998	9.490498	
1465367152474396	1.042293	2.2392998	9.490498	
1465367162484162	1.0072712	2.2530432	9.491026	
1465367172493928	0.9883065	2.2738192	9.488066	
1465367182503693	0.9833456	2.3039145	9.481318	
1465367192482941	0.98722017	2.3443406	9.471001	
1465367202462189	0.9945442	2.3947563	9.457612	
1465367212471955	1.0014168	2.4533706	9.44185	
1465367222481721	1.0052807	2.5158772	9.424975	
1465367232460969	1.0035367	2.5772905	9.408552	
1465367242470734	0.99661106	2.634831	9.393339	
1465367252480500	0.99056804	2.6846185	9.37987	
1465367262490266	0.98635334	2.720137	9.370077	
1465367272469514	0.97842425	2.7363045	9.3662	
1465367282448762	0.9628756	2.733584	9.368607	
1465367302437775	0.90925914	2.6935673	9.385539	
1465367302437775	0.90925914	2.6935673	9.385539	
1465367312447541	0.8739251	2.6700568	9.395607	
1465367332467072	0.80213726	2.6419628	9.409941	
1465367332467072	0.80213726	2.6419628	9.409941	
1465367342446320	0.7775313	2.6438112	9.411488	
1465367362435334	0.75524354	2.673023	9.405048	
1465367362435334	0.75524354	2.673023	9.405048	
1465367372414582	0.755954	2.694099	9.398975	
1465367382424348	0.7654739	2.715406	9.392071	
1465367392434113	0.7790013	2.7311878	9.386381	
1465367402443879	0.7888112	2.7357337	9.384238	
1465367412423127	0.7884226	2.7240047	9.387681	
1465367422432893	0.77503556	2.6929703	9.397746	
1465367442391389	0.7233534	2.5768776	9.434344	
1465367442391389	0.7233534	2.5768776	9.434344	
1465367452401154	0.6939784	2.4986515	9.457565	
1465367462380402	0.6688895	2.4140637	9.481312	
1465367472390168	0.647147	2.325685	9.504882	
1465367482399934	0.62183154	2.2338006	9.528581	
1465367492409699	0.58429587	2.1373725	9.553042	
1465367502388947	0.5298564	2.0353997	9.578454	
1465367512398713	0.45707065	1.9271798	9.604554	
1465367522377961	0.37058467	1.8157384	9.629961	
1465367532387727	0.28311455	1.7066193	9.652859	
1465367542397492	0.2139026	1.6102548	9.67118	
1465367552376740	0.17688966	1.5369135	9.683853	
1465367562386506	0.1720922	1.4916023	9.691021	
1465367572365754	0.19207558	1.476012	9.693032	
1465367582375520	0.22772801	1.4896694	9.690171	
1465367592385285	0.2681728	1.5305088	9.682769	
1465367602364533	0.30192834	1.5947373	9.671403	
1465367612343781	0.32108197	1.6744735	9.6573	
1465367622353547	0.32060438	1.7598805	9.642117	
1465367642373078	0.25894305	1.9212552	9.613122	
1465367642373078	0.25894305	1.9212552	9.613122	
1465367652352326	0.20148782	1.9886497	9.600785	
1465367662362092	0.13116182	2.0452614	9.590103	
1465367672341340	0.054986972	2.0923228	9.580687	
1465367692330354	-0.08737634	2.1661675	9.564019	
1465367692330354	-0.08737634	2.1661675	9.564019	
1465367702340119	-0.1384359	2.1999	9.555714	
1465367712349885	-0.16748682	2.2358537	9.5469	
1465367722359650	-0.17255758	2.274375	9.537705	
1465367732369416	-0.1547491	2.313667	9.528556	
1465367742348664	-0.11896684	2.3521962	9.519632	
1465367752327912	-0.07249325	2.3883572	9.511092	
1465367762337678	-0.022928974	2.4200733	9.503321	
1465367772347443	0.023076162	2.4459023	9.496705	
1465367792305939	0.08291489	2.4779396	9.488063	
1465367792305939	0.08291489	2.4779396	9.488063	
1465367802315705	0.093417265	2.4850333	9.48611	
1465367812325471	0.09361749	2.4886389	9.485162	
1465367822335236	0.086688176	2.4907148	9.484683	
1465367842324250	0.061103173	2.4928067	9.484333	
1465367842324250	0.061103173	2.4928067	9.484333	
1465367852303498	0.04700238	2.4926848	9.484445	
1465367862313264	0.037258428	2.4936795	9.484227	
1465367872292512	0.03652088	2.4992707	9.4827585	
1465367882302277	0.045913197	2.5091789	9.480101	
1465367902291291	0.07231886	2.5338023	9.473384	
1465367902291291	0.07231886	2.5338023	9.473384	
1465367912301057	0.07474385	2.5445642	9.47048	
1465367932290070	0.07550697	2.5555325	9.467521	
1465367932290070	0.07550697	2.5555325	9.467521	
1465367942299836	0.09450855	2.5593476	9.466319	
1465367952279084	0.13102384	2.5628543	9.464935	
1465367962288850	0.18018918	2.5637147	9.463894	
1465367972268098	0.23531586	2.5604599	9.463565	
1465367982277863	0.28674605	2.5507267	9.464774	
1465367992287629	0.31089166	2.5278466	9.47015	
1465368002266877	0.27936924	2.4844253	9.482614	
1465368012276643	0.18535346	2.421491	9.501179	
1465368022255891	0.04912201	2.353825	9.519847	
1465368032265656	-0.097772084	2.3002555	9.5325575	
1465368042244904	-0.21649903	2.2780359	9.535935	
1465368052254670	-0.2783055	2.2989185	9.529319	
1465368062264436	-0.2727386	2.364525	9.513412	
1465368072243684	-0.20893598	2.464558	9.48961	
1465368082253449	-0.11023458	2.5810037	9.460268	
1465368092263215	-0.0015102471	2.6929834	9.4296465	
1465368102272980	0.10014202	2.784451	9.40251	
1465368112252229	0.18615593	2.8466408	9.382557	
1465368122261994	0.25479585	2.877062	9.371658	
1465368142220490	0.34183395	2.8485482	9.377596	
1465368142220490	0.34183395	2.8485482	9.377596	
1465368152230256	0.36495018	2.8015873	9.390862	
1465368162240021	0.37687492	2.744916	9.407114	
1465368172219270	0.37948498	2.687978	9.423436	
1465368182229035	0.3729002	2.6375613	9.437935	
1465368192208283	0.3589974	2.5984163	9.449325	
1465368202218049	0.34023243	2.5720568	9.457228	
1465368212227814	0.31863067	2.5572925	9.461983	
1465368222207063	0.29551452	2.5505154	9.464561	
1465368242196076	0.252514	2.5447726	9.467352	
1465368242196076	0.252514	2.5447726	9.467352	
1465368252175324	0.23815437	2.5395126	9.469136	
1465368262185090	0.23168549	2.5301208	9.47181	
1465368272194855	0.23442104	2.515958	9.475515	
1465368282204621	0.24596018	2.4971797	9.480189	
1465368292214387	0.26611808	2.474607	9.485562	
1465368302224152	0.29482394	2.4495058	9.491227	
1465368312203400	0.32914865	2.4214048	9.497307	
1465368322182648	0.36451507	2.3889685	9.504228	
1465368332192414	0.39703512	2.3540456	9.511636	
1465368342202180	0.42708832	2.3203845	9.518602	
1465368352181428	0.4552209	2.293145	9.523898	
1465368362191193	0.48164442	2.276254	9.52665	
1465368372200959	0.50755745	2.2706132	9.526651	
1465368392189973	0.56214267	2.2833807	9.520534	
1465368392189973	0.56214267	2.2833807	9.520534	
1465368402169221	0.5923237	2.297344	9.515343	
1465368412178986	0.6247368	2.3173022	9.508428	
1465368422188752	0.6589132	2.341575	9.500172	
1465368432168000	0.6928684	2.3659074	9.491723	
1465368442147248	0.72589886	2.3879538	9.483729	
1465368452157014	0.75866646	2.4068787	9.476378	
1465368462166779	0.7907025	2.418266	9.470859	
1465368472176545	0.8194993	2.416891	9.468761	
1465368482155793	0.84436035	2.4005282	9.470739	
1465368492135041	0.86952496	2.3700182	9.476146	
1465368502144807	0.89932054	2.3284934	9.483655	
1465368512154572	0.9346218	2.2794435	9.492155	
1465368522133820	0.9730723	2.2238348	9.501478	
1465368532143586	1.0065248	2.1600196	9.512708	
1465368542153352	1.0272746	2.0873404	9.526705	
1465368552132600	1.0364952	2.0059934	9.543168	
1465368562142365	1.038123	1.9148287	9.561701	
1465368572152131	1.031419	1.8149879	9.581878	
1465368582131379	1.0211859	1.7168405	9.601043	
1465368592110627	1.0232396	1.6342174	9.615233	
1465368612099641	1.1051247	1.5587472	9.6187	
1465368612099641	1.1051247	1.5587472	9.6187	
1465368622109406	1.1819708	1.5678537	9.608078	
1465368632119172	1.2716675	1.5991883	9.591446	
1465368642098420	1.3643056	1.6440773	9.571106	
1465368652108186	1.4518133	1.6943152	9.549447	
1465368662117951	1.5258374	1.7409445	9.529497	
1465368672097199	1.5819966	1.7784339	9.513403	
1465368682106965	1.6177374	1.8056535	9.50226	
1465368692086213	1.6331244	1.8212861	9.496642	
1465368702095979	1.6321117	1.8249276	9.496117	
1465368712075227	1.6180952	1.8176695	9.499907	
1465368722084992	1.5967264	1.7999513	9.506893	
1465368732094758	1.5777109	1.7740598	9.514932	
1465368742074006	1.5699112	1.7460648	9.521399	
1465368752083771	1.5792722	1.7215909	9.524306	
1465368762063020	1.6053908	1.7032242	9.523242	
1465368772072785	1.6454306	1.6903571	9.5187	
1465368782082551	1.6956103	1.6830183	9.51119	
1465368792092316	1.7537727	1.6804904	9.501085	
1465368802102082	1.8142722	1.681673	9.489509	
1465368812081330	1.8709189	1.6856686	9.477794	
1465368822060578	1.9209837	1.6924987	9.466555	
1465368832070344	1.963524	1.7018925	9.456138	
1465368842049592	1.9970609	1.7123706	9.447218	
1465368852059357	2.0218859	1.7206838	9.440424	
1465368862069123	2.0355473	1.7238836	9.436904	
1465368872048371	2.036287	1.7203681	9.4373865	
1465368882027619	2.0309062	1.7116092	9.440137	
1465368892037385	2.0304847	1.7016612	9.442026	
1465368902016633	2.0451803	1.6953988	9.439981	
1465368912026398	2.0820062	1.6947542	9.432044	
1465368922036164	2.1428697	1.6995635	9.417537	
1465368932045930	2.2231312	1.7104933	9.39693	
1465368942025178	2.3129158	1.7294137	9.371763	
1465368952034943	2.3973267	1.7558576	9.345596	
1465368962014191	2.4601278	1.7897643	9.322816	
1465368972023957	2.509437	1.8402946	9.299808	
1465368982033723	2.5605805	1.9014745	9.273522	
1465368992012971	2.6039984	1.9630483	9.2485695	
1465369002022736	2.6405892	2.0231931	9.225203	
1465369012032502	2.6734345	2.0819407	9.202644	
1465369022011750	2.7014642	2.136443	9.181944	
1465369032021516	2.724239	2.183025	9.164241	
1465369042000764	2.7344334	2.2179773	9.152805	
1465369052010529	2.7196689	2.238548	9.152196	
1465369061989777	2.6720603	2.240309	9.165779	
1465369071999543	2.5876195	2.219831	9.194942	
1465369082009309	2.4681869	2.1749473	9.2384	
1465369092019074	2.3222163	2.1050267	9.292284	
1465369101998322	2.1688561	2.0168216	9.348736	
1465369112008088	2.0330746	1.9285241	9.397755	
1465369121987336	1.9370997	1.8668169	9.43043	
1465369131997102	1.8924644	1.8550766	9.441804	
1465369141976350	1.903195	1.9065746	9.42938	
1465369161995881	2.021349	2.1919017	9.342382	
1465369161995881	2.021349	2.1919017	9.342382	
1465369171975129	2.0656075	2.3970213	9.28213	
1465369181984895	2.0689287	2.6189466	9.221228	
1465369191964143	2.0218406	2.8369193	9.16703	
1465369201973908	1.9208097	3.0379045	9.124254	
1465369211953156	1.7791601	3.2104278	9.093851	
1465369221962922	1.6169078	3.3504581	9.073611	
1465369231972688	1.4513738	3.4592066	9.060783	
1465369241951936	1.2960933	3.5415852	9.052497	
1465369251961701	1.1648184	3.605695	9.04503	
1465369261940949	1.0730087	3.6601324	9.034515	
1465369271950715	1.0251751	3.7121954	9.018815	
1465369291970246	1.0288208	3.8112543	8.976985	
1465369291970246	1.0288208	3.8112543	8.976985	
1465369301949494	1.054814	3.848362	8.9581175	
1465369321938508	1.0832036	3.8763087	8.942667	
1465369321938508	1.0832036	3.8763087	8.942667	
1465369331948273	1.0773747	3.867791	8.947058	
1465369341927521	1.0640568	3.8498273	8.956394	
1465369351937287	1.0539662	3.8302095	8.965993	
1465369361916535	1.0518264	3.8169305	8.971905	
1465369371926301	1.0548869	3.8139718	8.972804	
1465369381905549	1.0626743	3.819213	8.969656	
1465369391915314	1.0751609	3.8241704	8.966055	
1465369411904328	1.1103619	3.7985241	8.972664	
1465369411904328	1.1103619	3.7985241	8.972664	
1465369421914094	1.1247147	3.7608557	8.986733	
1465369431923859	1.1259698	3.7081876	9.008436	
1465369441903107	1.1146098	3.6459148	9.035228	
1465369451912873	1.0960103	3.5818992	9.063065	
1465369461892121	1.0818437	3.524687	9.087165	
1465369471901887	1.0842571	3.477779	9.104934	
1465369481911652	1.1094916	3.4397287	9.116343	
1465369491890900	1.1536202	3.406114	9.123482	
1465369501900666	1.2105058	3.3726013	9.128561	
1465369511910432	1.2737644	3.3381765	9.132606	
1465369521889680	1.3373004	3.3031166	9.1362705	
1465369531868928	1.3972216	3.2684913	9.139754	
1465369541878693	1.4512718	3.2366712	9.142656	
1465369551857941	1.4952761	3.210052	9.144949	
1465369561867707	1.5280925	3.1893103	9.146782	
1465369571877473	1.5528476	3.1743517	9.147816	
1465369581887238	1.5757508	3.163929	9.147511	
1465369591866486	1.604491	3.1571002	9.144873	
1465369601876252	1.6436565	3.1534286	9.139183	
1465369611855500	1.6937842	3.1531498	9.130122	
1465369621865266	1.7533897	3.1559086	9.1179085	
1465369631844514	1.8145291	3.158412	9.105071	
1465369651864045	1.9128642	3.151571	9.087296	
1465369651864045	1.9128642	3.151571	9.087296	
1465369661873811	1.939467	3.1360314	9.087032	
1465369671883576	1.9523268	3.1090975	9.093532	
1465369681862824	1.9557021	3.0695815	9.106223	
1465369691872590	1.9598047	3.0195627	9.12205	
1465369701851838	1.97438	2.9642391	9.137039	
1465369711831086	2.0026324	2.9072435	9.149197	
1465369721840852	2.0433097	2.8519742	9.157593	
1465369731820100	2.0914733	2.8041031	9.161503	
1465369751839631	2.179996	2.748631	9.157676	
1465369751839631	2.179996	2.748631	9.157676	
1465369761818879	2.208745	2.7449389	9.151894	
1465369771828645	2.2296762	2.754703	9.14388	
1465369781838410	2.2426248	2.7727108	9.135267	
1465369791817658	2.2463014	2.7923803	9.128369	
1465369801827424	2.2411406	2.8078737	9.124886	
1465369811806672	2.2296767	2.8141577	9.125757	
1465369821816438	2.2163706	2.8063173	9.131412	
1465369831826203	2.206157	2.780618	9.141741	
1465369841805451	2.204079	2.736676	9.155492	
1465369851815217	2.2129252	2.6763434	9.17118	
1465369861794465	2.2309868	2.6036441	9.1877165	
1465369871804230	2.2543244	2.5230682	9.204485	
1465369881783479	2.28066	2.4414716	9.219989	
1465369891793244	2.308345	2.3641415	9.233243	
1465369901803010	2.3336577	2.2953672	9.244226	
1465369911812775	2.3527327	2.2367973	9.253744	
1465369921792023	2.3636265	2.1894891	9.262278	
1465369931801789	2.3671556	2.1534808	9.269815	
1465369941781037	2.3650172	2.1293426	9.275936	
1465369951790803	2.3583603	2.1179893	9.28023	
1465369961770051	2.3474927	2.1196496	9.282605	
1465369981789582	2.3156843	2.1516163	9.28324	
1465369981789582	2.3156843	2.1516163	9.28324	
1465370001778596	2.2870135	2.1980755	9.279463	
1465370001778596	2.2870135	2.1980755	9.279463	
1465370011757844	2.2885866	2.2208312	9.273654	
1465370021767609	2.3089995	2.244226	9.262956	
1465370031777375	2.351249	2.2699392	9.246047	
1465370041756623	2.4116096	2.299775	9.2231	
1465370051766389	2.483454	2.334336	9.19531	
1465370061745637	2.5566678	2.372089	9.165535	
1465370081765168	2.6736891	2.4494991	9.111627	
1465370081765168	2.6736891	2.4494991	9.111627	
1465370091774934	2.7086074	2.4853718	9.091576	
1465370101754182	2.7234697	2.518511	9.078007	
1465370111733430	2.7205703	2.548658	9.070459	
1465370121743195	2.7102726	2.5759788	9.065824	
1465370131722443	2.7115784	2.601774	9.058063	
1465370141732209	2.7446089	2.6257384	9.041184	
1465370151741975	2.8126469	2.6423116	9.0154085	
1465370161721223	2.9043744	2.6442382	8.985711	
1465370171700471	3.0029178	2.6272967	8.958246	
1465370181710236	3.0915189	2.591186	8.938604	
1465370191720002	3.1573467	2.5388775	8.930601	
1465370201729768	3.1938765	2.4782326	8.934647	
1465370211709016	3.2034497	2.4198217	8.947222	
1465370221718781	3.2014372	2.3730268	8.960465	
1465370231728547	3.2037148	2.3437104	8.967365	
1465370241707795	3.2155576	2.332991	8.96592	
1465370251687043	3.2348964	2.3401465	8.957095	
1465370261696809	3.2544408	2.36307	8.943987	
1465370281716340	3.2507558	2.4381557	8.925154	
1465370281716340	3.2507558	2.4381557	8.925154	
1465370291695588	3.2109323	2.4797726	8.928103	
1465370301705354	3.148495	2.5188754	8.939386	
1465370311684602	3.0719984	2.549616	8.957269	
1465370321694367	2.9936845	2.5668948	8.978825	
1465370331673615	2.9180715	2.5689776	9.003089	
1465370341683381	2.8513002	2.5560203	9.028136	
1465370351662629	2.8099926	2.5335343	9.047404	
1465370371682160	2.8364832	2.4854064	9.052485	
1465370371682160	2.8364832	2.4854064	9.052485	
1465370381661408	2.9007428	2.4694185	9.036485	
1465370391671174	2.9882874	2.4632359	9.009605	
1465370401650422	3.084256	2.4698682	8.975384	
1465370421669953	3.250267	2.5228302	8.901769	
1465370421669953	3.250267	2.5228302	8.901769	
1465370431649201	3.3083093	2.5707338	8.8666115	
1465370441658967	3.3474925	2.6350632	8.832956	
1465370451668732	3.3846843	2.7082586	8.79657	
1465370471657746	3.4965672	2.756765	8.737543	
1465370471657746	3.4965672	2.756765	8.737543	
1465370481667512	3.5559168	2.7266572	8.723026	
1465370491646760	3.6303988	2.6988635	8.700961	
1465370501656525	3.6964872	2.6745183	8.680629	
1465370521645539	3.7989855	2.635919	8.648123	
1465370521645539	3.7989855	2.635919	8.648123	
1465370531624787	3.8366117	2.6244602	8.634988	
1465370541634553	3.864295	2.61682	8.624956	
1465370551613801	3.8841636	2.615569	8.6164055	
1465370561623566	3.9005308	2.6274436	8.6053915	
1465370571633332	3.9218585	2.6569247	8.586628	
1465370581612580	3.9501922	2.7024267	8.559396	
1465370601601594	4.0366836	2.8039348	8.486078	
1465370601601594	4.0366836	2.8039348	8.486078	
1465370611611359	4.0899434	2.8384197	8.449031	
1465370621590607	4.1297574	2.8564718	8.416305	
1465370631600373	4.1444893	2.8564718	8.416305	
1465370641610139	4.1328797	2.8495204	8.424365	
1465370651589387	4.0988693	2.836629	8.445306	
1465370661599152	4.0479865	2.8182373	8.475949	
1465370681588166	3.9053206	2.7526698	8.563974	
1465370681588166	3.9053206	2.7526698	8.563974	
1465370701607697	3.7106595	2.6443985	8.68381	
1465370701607697	3.7106595	2.6443985	8.68381	
1465370711617463	3.6195722	2.5754385	8.74278	
1465370721596711	3.5634549	2.4950714	8.789016	
1465370731575959	3.5492532	2.4139345	8.817376	
1465370741585725	3.5798671	2.346042	8.823322	
1465370751595490	3.6340804	2.298911	8.8135605	
1465370761574738	3.684851	2.273737	8.798999	
1465370781563752	3.767367	2.2798736	8.762391	
1465370781563752	3.767367	2.2798736	8.762391	
1465370791573518	3.7795484	2.2971566	8.752626	
1465370801552766	3.7753596	2.3122015	8.750473	
1465370811532014	3.7730546	2.3145633	8.750842	
1465370821541779	3.752098	2.305534	8.762229	
1465370841561311	3.6453364	2.2514741	8.821155	
1465370841561311	3.6453364	2.2514741	8.821155	
1465370851540559	3.5990324	2.2091105	8.850829	
1465370861519807	3.5733333	2.1641028	8.872335	
1465370871529572	3.5717373	2.1235445	8.8827715	
1465370881508820	3.5970063	2.0897737	8.880585	
1465370891518586	3.6397815	2.0584881	8.870457	
1465370901528352	3.6766603	2.0230787	8.863391	
1465370911507600	3.6919148	1.9802126	8.866731	
1465370921517365	3.6845946	1.9292471	8.881	
1465370931527131	3.6582942	1.8693421	8.904653	
1465370941506379	3.6181908	1.7999669	8.935279	
1465370951516145	3.5640998	1.7231959	8.972078	
1465370961495393	3.4970703	1.6418802	9.013607	
1465370971505158	3.4243445	1.5592331	9.056106	
1465370981484406	3.362599	1.4840226	9.091809	
1465370991494172	3.3241527	1.4211996	9.1159525	
1465371001503938	3.3193219	1.3698328	9.125572	
1465371011483186	3.3475666	1.3320059	9.120852	
1465371031472199	3.4360914	1.2829777	9.094923	
1465371031472199	3.4360914	1.2829777	9.094923	
1465371041481965	3.4785175	1.2655711	9.081224	
1465371051491730	3.5126252	1.2488028	9.070411	
1465371061470979	3.5333805	1.2299887	9.0649185	
1465371081459992	3.5489078	1.1570852	9.06845	
1465371081459992	3.5489078	1.1570852	9.06845	
1465371091469758	3.540698	1.0885562	9.080137	
1465371101449006	3.4995465	0.9944246	9.106848	
1465371111458771	3.4134953	0.86942446	9.152187	
1465371121468537	3.2835267	0.70854807	9.213403	
1465371141457551	2.94119	0.28551543	9.350843	
1465371141457551	2.94119	0.28551543	9.350843	
1465371151467316	2.703566	0.11478212	9.425919	
1465371161446564	2.4376411	-0.0032184431	9.4988575	
1465371171456330	2.2535846	-0.12631278	9.543364	
1465371181435578	2.14217	-0.2480905	9.5666065	
1465371191445344	2.06726	-0.33463776	9.58044	
1465371201455109	2.023029	-0.38334683	9.588055	
1465371211434357	2.0156286	-0.40003854	9.588931	
1465371221444123	2.0516715	-0.38910252	9.581735	
1465371231453889	2.122376	-0.35967508	9.567472	
1465371251473420	2.3049414	-0.2987405	9.527245	
1465371251473420	2.3049414	-0.2987405	9.527245	
1465371261452668	2.4057155	-0.28527123	9.502712	
1465371271462434	2.4816396	-0.29571196	9.482848	
1465371281441682	2.515431	-0.33428314	9.472658	
1465371291420930	2.5096216	-0.39790994	9.47174	
1465371301430695	2.4758456	-0.4819647	9.476724	
1465371311440461	2.4218905	-0.58030653	9.48515	
1465371321450227	2.356778	-0.68279123	9.494724	
1465371331429475	2.286991	-0.77710587	9.504534	
1465371341439240	2.2140596	-0.85444444	9.515159	
1465371351418488	2.1524348	-0.90883213	9.524256	
1465371361428254	2.1190321	-0.9369167	9.529022	
1465371371407502	2.1128094	-0.9358174	9.530512	
1465371381417268	2.1225588	-0.90951836	9.530892	
1465371401436799	2.1589	-0.8336471	9.529668	
1465371401436799	2.1589	-0.8336471	9.529668	
1465371411416047	2.1855357	-0.8035346	9.526183	
1465371421395295	2.2266445	-0.769387	9.519479	
1465371431405061	2.2649221	-0.7358064	9.513102	
1465371441384309	2.2988331	-0.7067519	9.507168	
1465371451363557	2.3315876	-0.6836679	9.500878	
1465371461373322	2.3577983	-0.6685479	9.495484	
1465371471383088	2.3659294	-0.66005826	9.494056	
1465371481392854	2.3546646	-0.65439063	9.497248	
1465371491402619	2.3308883	-0.6465939	9.503645	
1465371501381867	2.3030875	-0.6332422	9.511319	
1465371511391633	2.2785814	-0.61272943	9.518561	
1465371521370881	2.259771	-0.58551687	9.524757	
1465371531380646	2.2451558	-0.55146027	9.530244	
1465371541390412	2.2339258	-0.50909394	9.535239	
1465371551369660	2.2224236	-0.45562738	9.54063	
1465371561379426	2.2091496	-0.38933113	9.546647	
1465371571389191	2.2029989	-0.31212953	9.550903	
1465371581368439	2.2124684	-0.22690709	9.55112	
1465371591347688	2.2373872	-0.13773663	9.547016	
1465371601357453	2.2708712	-0.050243303	9.5399685	
1465371611336701	2.3022363	0.030732432	9.532532	
1465371621346467	2.3214881	0.10384047	9.527345	
1465371631356232	2.32178	0.16836606	9.526351	
1465371641365998	2.2988815	0.22504967	9.530733	
1465371651375764	2.2550142	0.2745092	9.539913	
1465371661355012	2.2023742	0.31759077	9.550867	
1465371671334260	2.1558285	0.35462454	9.560179	
1465371681344025	2.1239674	0.38273716	9.566225	
1465371691353791	2.1031842	0.3990173	9.570151	
1465371701333039	2.0808794	0.4060121	9.574732	
1465371711342805	2.0461316	0.4119699	9.581963	
1465371721322053	1.999733	0.42591435	9.591145	
1465371731331818	1.9490657	0.4537989	9.600292	
1465371741341584	1.894358	0.49871355	9.609011	
1465371751320832	1.8375137	0.5616809	9.61657	
1465371761330598	1.7909853	0.63516134	9.620776	
1465371771340363	1.7644782	0.70806026	9.6205845	
1465371781319611	1.7593828	0.76957506	9.616794	
1465371791329377	1.7641752	0.81091154	9.612517	
1465371811318391	1.7553905	0.81972694	9.613378	
1465371811318391	1.7553905	0.81972694	9.613378	
1465371821297639	1.7364832	0.7974177	9.618687	
1465371831307404	1.721089	0.76960135	9.623719	
1465371841317170	1.7212491	0.744285	9.625681	
1465371861306184	1.7800862	0.7139248	9.617276	
1465371861306184	1.7800862	0.7139248	9.617276	
1465371871285432	1.831266	0.7136994	9.607678	
1465371881295197	1.882137	0.7236274	9.597098	
1465371891304963	1.9215027	0.74157053	9.587924	
1465371911263459	1.9791491	0.7832035	9.572875	
1465371911263459	1.9791491	0.7832035	9.572875	
1465371921273225	2.0057058	0.79668844	9.566234	
1465371941262238	2.046711	0.8071797	9.5566635	
1465371941262238	2.046711	0.8071797	9.5566635	
1465371951272004	2.06301	0.8096136	9.552953	
1465371971261018	2.1025906	0.81757176	9.543641	
1465371971261018	2.1025906	0.81757176	9.543641	
1465371981270783	2.1255984	0.8217275	9.538185	
1465371991280549	2.1411064	0.82523507	9.534413	
1465372001290314	2.141118	0.8288774	9.534095	
1465372011269563	2.132435	0.8339311	9.5356	
1465372021279328	2.123019	0.8417633	9.537013	
1465372031258576	2.1096206	0.8526856	9.539016	
1465372051247590	2.0624046	0.8876069	9.546153	
1465372051247590	2.0624046	0.8876069	9.546153	
1465372061257355	2.0425024	0.9109997	9.548227	
1465372081246369	2.022297	0.96430606	9.547295	
1465372081246369	2.022297	0.96430606	9.547295	
1465372091225617	2.0179675	0.9899465	9.545586	
1465372101204865	2.0141592	1.0119994	9.544077	
1465372111214631	2.016038	1.0274637	9.542027	
1465372121224396	2.0259514	1.0339452	9.5392275	
1465372131234162	2.0430527	1.0315553	9.535838	
1465372141243928	2.0632472	1.0187186	9.53287	
1465372161202424	2.093764	0.97182083	9.531113	
1465372161202424	2.093764	0.97182083	9.531113	
1465372171181672	2.099172	0.9454294	9.5325775	
1465372181191438	2.102278	0.9232281	9.534068	
1465372191201203	2.1030009	0.9090728	9.535269	
1465372201180451	2.104801	0.907663	9.5350065	
1465372211190217	2.1164792	0.9225611	9.530991	
1465372221169465	2.1372128	0.951932	9.523473	
1465372231179230	2.1572034	0.98996377	9.515083	
1465372241188996	2.1678534	1.0293771	9.508479	
1465372261178010	2.124874	1.095612	9.510779	
1465372261178010	2.124874	1.095612	9.510779	
1465372271157258	2.0646536	1.1221974	9.520938	
1465372281167023	1.9873768	1.1502182	9.534029	
1465372291176789	1.9183462	1.182265	9.544243	
1465372311165803	1.9060721	1.2455628	9.53865	
1465372311165803	1.9060721	1.2455628	9.53865	
1465372321175568	1.9553689	1.2672192	9.525811	
1465372331154816	2.0108242	1.2787137	9.512721	
1465372341164582	2.0544674	1.2827531	9.502847	
1465372361153596	2.090509	1.2868828	9.494424	
1465372361153596	2.090509	1.2868828	9.494424	
1465372371163361	2.1008897	1.2955624	9.490952	
1465372381173127	2.1128554	1.3114741	9.486109	
1465372391182893	2.1211252	1.3355008	9.48091	
1465372411141389	2.1104903	1.4103296	9.472444	
1465372411141389	2.1104903	1.4103296	9.472444	
1465372421151154	2.0998147	1.4605551	9.467204	
1465372431160920	2.096656	1.5162195	9.45915	
1465372441170686	2.1079462	1.5730581	9.4473505	
1465372451149934	2.135664	1.6270306	9.4319725	
1465372461129182	2.1770737	1.6755146	9.414	
1465372471138947	2.2258315	1.715851	9.395313	
1465372481148713	2.2733014	1.7467855	9.378232	
1465372491127961	2.3153887	1.7682927	9.363894	
1465372511116975	2.3842149	1.788794	9.342704	
1465372511116975	2.3842149	1.788794	9.342704	
1465372521126740	2.4091117	1.791693	9.33576	
1465372531136506	2.424037	1.7937429	9.331501	
1465372541146271	2.4308693	1.7986453	9.328779	
1465372551125520	2.4326854	1.8090086	9.326303	
1465372561104768	2.4302402	1.8266641	9.323498	
1465372571114533	2.4262419	1.8523904	9.319464	
1465372581124299	2.423132	1.885458	9.313639	
1465372591103547	2.4229224	1.9230276	9.306008	
1465372611123078	2.4402614	1.9962368	9.286041	
1465372611123078	2.4402614	1.9962368	9.286041	
1465372621102326	2.4547944	2.0257616	9.27581	
1465372631112092	2.465933	2.0483887	9.267883	
1465372641121857	2.4710655	2.0640318	9.263044	
1465372661110871	2.4569757	2.078763	9.263498	
1465372661110871	2.4569757	2.078763	9.263498	
1465372671090119	2.4355505	2.0798106	9.26892	
1465372681099885	2.407175	2.077669	9.276809	
1465372691109650	2.3750591	2.073254	9.28607	
1465372711119761	2.302638	2.0555553	9.308219	
1465372711119761	2.302638	2.0555553	9.308219	
1465372721099009	2.2588644	2.0397546	9.32241	
1465372731078257	2.207385	2.0172186	9.339629	
1465372741088023	2.1426601	1.9884019	9.360858	
1465372761107554	1.9580207	1.916258	9.4161825	
1465372761107554	1.9580207	1.916258	9.4161825	
1465372771086802	1.8456208	1.8777325	9.446597	
1465372781096568	1.7282206	1.8426731	9.475663	
1465372791075816	1.6129044	1.8145039	9.501395	
1465372811064829	1.4301673	1.7731845	9.538386	
1465372811064829	1.4301673	1.7731845	9.538386	
1465372821074595	1.3816266	1.748423	9.550106	
1465372831084361	1.362398	1.7157654	9.558787	
1465372841063609	1.3663718	1.6763297	9.565215	
1465372861083140	1.4120748	1.5841268	9.574287	
1465372861083140	1.4120748	1.5841268	9.574287	
1465372871092906	1.4446937	1.5415322	9.576374	
1465372881072154	1.4856802	1.5070428	9.575592	
1465372891081919	1.5332712	1.482654	9.5718975	
1465372911040415	1.6235869	1.4715793	9.558704	
1465372911040415	1.6235869	1.4715793	9.558704	
1465372921019663	1.6630635	1.4852755	9.549794	
1465372931029429	1.7020491	1.5113711	9.538825	
1465372941039195	1.742393	1.5481821	9.525628	
1465372961028208	1.8155015	1.6448755	9.495722	
1465372961028208	1.8155015	1.6448755	9.495722	
1465372971037974	1.8416985	1.6975641	9.481393	
1465372991057505	1.8871015	1.7853141	9.456315	
1465372991057505	1.8871015	1.7853141	9.456315	
1465373011046519	1.9474336	1.823681	9.436741	
1465373011046519	1.9474336	1.823681	9.436741	
1465373021025767	1.9716697	1.8194466	9.432524	
1465373031005015	1.9805052	1.8007386	9.434264	
1465373041014781	1.9676347	1.7726253	9.442278	
1465373061003794	1.8932291	1.7179127	9.467568	
1465373061003794	1.8932291	1.7179127	9.467568	
1465373071013560	1.8542212	1.702069	9.478144	
1465373081023326	1.8224514	1.6987242	9.484903	
1465373091002574	1.7999022	1.7102007	9.487146	
1465373110991587	1.7792046	1.7790073	9.478394	
1465373110991587	1.7792046	1.7790073	9.478394	
1465373121001353	1.7728906	1.8312187	9.469629	
1465373131011118	1.7659929	1.8884987	9.459663	
1465373140990367	1.7574563	1.9455316	9.44969	
1465373151000132	1.746392	1.9999635	9.440373	
1465373160979380	1.7316338	2.0483382	9.432716	
1465373170989146	1.7107227	2.0860667	9.428263	
1465373180998911	1.6859789	2.108527	9.427724	
1465373190978160	1.6613824	2.1133096	9.43102	
1465373210967173	1.6218266	2.0728078	9.446879	
1465373210967173	1.6218266	2.0728078	9.446879	
1465373220976939	1.6081578	2.0339625	9.457654	
1465373230986704	1.5968794	1.9882535	9.469277	
1465373240965952	1.5863115	1.9395005	9.481157	
1465373260985484	1.5721049	1.8436428	9.502624	
1465373260985484	1.5721049	1.8436428	9.502624	
1465373270964732	1.5730674	1.799734	9.510879	
1465373280974497	1.5770823	1.7591306	9.517807	
1465373290984263	1.5790154	1.7234645	9.52401	
1465373310942759	1.5808622	1.6723101	9.53282	
1465373310942759	1.5808622	1.6723101	9.53282	
1465373320952525	1.5833765	1.6570624	9.535065	
1465373330931773	1.582163	1.6475081	9.536921	
1465373340941538	1.5787754	1.6412741	9.538558	
1465373350951304	1.5823503	1.6343184	9.539159	
1465373360930552	1.6046752	1.6224313	9.537459	
1465373370909800	1.651202	1.6016176	9.533034	
1465373380919566	1.7162424	1.5688585	9.526992	
1465373390929331	1.7892749	1.5219966	9.521156	
1465373400939097	1.8597802	1.4605821	9.517264	
1465373410918345	1.9157914	1.3887334	9.516909	
1465373420928111	1.9458827	1.3115352	9.521753	
1465373430937876	1.9468547	1.2363279	9.531613	
1465373440917124	1.9266602	1.1715052	9.543896	
1465373450926890	1.8993994	1.1232576	9.555154	
1465373460936656	1.8778056	1.0962566	9.562554	
1465373470946421	1.8708537	1.0920223	9.564402	
1465373480925669	1.8801996	1.1090058	9.560615	
1465373490904917	1.9008086	1.1430991	9.552519	
1465373500914683	1.9266812	1.1894413	9.541674	
1465373510924449	1.9575263	1.2406127	9.52887	
1465373520934214	1.9941639	1.2892635	9.514804	
1465373530913462	2.0351942	1.3300009	9.500498	
1465373540892710	2.0770392	1.3612317	9.487009	
1465373550902476	2.114349	1.3821939	9.47573	
1465373560881724	2.146334	1.3930324	9.4669485	
1465373570891490	2.1739988	1.3947327	9.460382	
1465373580901255	2.1962912	1.3877163	9.4562645	
1465373590880503	2.2112172	1.3736391	9.454841	
1465373600890269	2.2181969	1.3551518	9.4558735	
1465373610869517	2.2165732	1.3353912	9.459065	
1465373620879283	2.206085	1.3189253	9.463826	
1465373630858531	2.1885436	1.3105607	9.46906	
1465373640868296	2.168576	1.3144975	9.473108	
1465373650878062	2.1532989	1.3338288	9.47389	
1465373660887827	2.149205	1.3690209	9.469799	
1465373670867076	2.1594427	1.4174666	9.460338	
1465373680876841	2.1831656	1.474249	9.446204	
1465373690886607	2.2174826	1.5334613	9.428767	
1465373700865855	2.2576008	1.5893894	9.409966	
1465373710845103	2.2990594	1.6378319	9.391603	
1465373720854868	2.338605	1.6763961	9.37502	
1465373730864634	2.374956	1.7032611	9.36103	
1465373740843882	2.4062378	1.7179515	9.350351	
1465373750853648	2.4311955	1.719776	9.343556	
1465373760832896	2.448174	1.7076337	9.34135	
1465373770842661	2.4574342	1.6821198	9.343548	
1465373790831675	2.455679	1.6035596	9.357811	
1465373790831675	2.455679	1.6035596	9.357811	
1465373800841441	2.4425886	1.561118	9.368407	
1465373810851206	2.4246457	1.5244361	9.379104	
1465373820830454	2.409532	1.4956436	9.38763	
1465373830840220	2.4038913	1.4729164	9.392668	
1465373840849986	2.406864	1.4530883	9.394995	
1465373850829234	2.4101357	1.4325893	9.397305	
1465373860808482	2.4105442	1.4081395	9.400894	
1465373870818247	2.4147327	1.3775185	9.404355	
1465373880797495	2.4303768	1.3397585	9.40578	
1465373890807261	2.460248	1.2935317	9.404485	
1465373900817027	2.5041192	1.2384721	9.400316	
1465373910796275	2.5553794	1.1764326	9.39449	
1465373930785288	2.6478848	1.0426486	9.384667	
1465373930785288	2.6478848	1.0426486	9.384667	
1465373940795054	2.6874454	0.9760298	9.380586	
1465373950804820	2.7301338	0.9110913	9.374789	
1465373960784068	2.7705827	0.8495147	9.368702	
1465373980773081	2.750934	0.7581563	9.382321	
1465373980773081	2.750934	0.7581563	9.382321	
1465373990782847	2.6553428	0.74714774	9.410702	
1465374000762095	2.515542	0.7672932	9.447417	
1465374010741343	2.3656235	0.81363845	9.482204	
1465374030760874	2.1711397	0.9369947	9.517278	
1465374030760874	2.1711397	0.9369947	9.517278	
1465374040770640	2.1365702	0.98349166	9.52041	
1465374050749888	2.1188872	1.005283	9.522085	
1465374060759654	2.101065	1.0016347	9.526418	
1465374080779185	2.0447452	0.9349194	9.545436	
1465374080779185	2.0447452	0.9349194	9.545436	
1465374090758433	2.0133913	0.88640136	9.556722	
1465374100737681	1.991675	0.8385295	9.565589	
1465374110747447	1.9858055	0.7978574	9.570287	
1465374120757212	1.9940995	0.7693132	9.570899	
1465374130736460	2.0077806	0.7557709	9.5691185	
1465374140746226	2.014974	0.7581141	9.56742	
1465374150755992	2.0073783	0.77733797	9.567473	
1465374160765757	1.9864819	0.8129297	9.568877	
1465374180724253	1.9462594	0.9247856	9.566986	
1465374180724253	1.9462594	0.9247856	9.566986	
1465374190734019	1.9399363	0.98950666	9.561794	
1465374200743785	1.9421179	1.0485297	9.555059	
1465374210723033	1.9476414	1.0939327	9.548842	
1465374220732798	1.9496266	1.1214936	9.545239	
1465374230742564	1.946279	1.1298013	9.544943	
1465374240721812	1.9413383	1.1205521	9.547039	
1465374250731577	1.9393629	1.0972528	9.550146	
1465374260710826	1.9420862	1.0648788	9.553257	
1465374280730357	1.959688	0.9937098	9.55733	
1465374280730357	1.959688	0.9937098	9.55733	
1465374290709605	1.9812366	0.96552247	9.555777	
1465374300719370	2.0171435	0.9484405	9.549973	
1465374310698618	2.0673966	0.9454764	9.539515	
1465374320708384	2.130944	0.9569848	9.524371	
1465374330718150	2.207561	0.97966367	9.504594	
1465374340697398	2.2938385	1.0078263	9.481191	
1465374350676646	2.3815014	1.0367901	9.456422	
1465374360686411	2.4637163	1.0622784	9.4325	
1465374370696177	2.5364683	1.0799619	9.411185	
1465374380675425	2.59889	1.0860116	9.393441	
1465374400694956	2.6549523	1.0653063	9.380125	
1465374400694956	2.6549523	1.0653063	9.380125	
1465374410674204	2.6399195	1.0452927	9.386618	
1465374420683970	2.6059208	1.024606	9.398391	
1465374430663218	2.5625358	1.0071304	9.412199	
1465374440672984	2.5190673	0.99487764	9.425226	
1465374450682749	2.4875436	0.9878893	9.43433	
1465374470671763	2.4851713	0.97958356	9.435822	
1465374470671763	2.4851713	0.97958356	9.435822	
1465374480651011	2.497586	0.9723419	9.433292	
1465374500670542	2.4862316	0.949192	9.438647	
1465374500670542	2.4862316	0.949192	9.438647	
1465374520659556	2.4244761	0.93166	9.456443	
1465374520659556	2.4244761	0.93166	9.456443	
1465374530638804	2.3879452	0.931254	9.465775	
1465374550658335	2.3301919	0.94559485	9.478737	
1465374550658335	2.3301919	0.94559485	9.478737	
1465374560637583	2.317633	0.9553327	9.480838	
1465374570647349	2.3183992	0.96396106	9.479777	
1465374580657115	2.331985	0.9701362	9.475814	
1465374590636363	2.3544006	0.9741392	9.469859	
1465374600646128	2.382815	0.9754008	9.46262	
1465374610625376	2.4133592	0.9735847	9.455063	
1465374620635142	2.442138	0.96846354	9.448197	
1465374630644908	2.4654248	0.9596735	9.443045	
1465374650603404	2.4865701	0.93371004	9.440103	
1465374650603404	2.4865701	0.93371004	9.440103	
1465374670622935	2.4760613	0.90868556	9.445306	
1465374670622935	2.4760613	0.90868556	9.445306	
1465374680602183	2.4598355	0.9036629	9.450026	
1465374700621714	2.4120626	0.92198855	9.460565	
1465374700621714	2.4120626	0.92198855	9.460565	
1465374710631480	2.385945	0.9465116	9.464766	
1465374720610728	2.3637488	0.9825346	9.466662	
1465374730620493	2.3546007	1.0301954	9.463875	
1465374750609507	2.4060316	1.1419773	9.438076	
1465374750609507	2.4060316	1.1419773	9.438076	
1465374760619273	2.4556208	1.1948203	9.418742	
1465374770598521	2.5037384	1.2388742	9.400365	
1465374780577769	2.5446467	1.2699645	9.385221	
1465374800566783	2.6006153	1.2852747	9.367777	
1465374800566783	2.6006153	1.2852747	9.367777	
1465374810576548	2.6149392	1.271483	9.365672	
1465374820586314	2.6212537	1.2491091	9.366918	
1465374830565562	2.6227906	1.2242136	9.369774	
1465374840575327	2.6214802	1.201638	9.373062	
1465374850585093	2.618819	1.1852205	9.375896	
1465374860564341	2.62006	1.1760752	9.3767	
1465374870574107	2.631008	1.1720802	9.374135	
1465374880583872	2.6489713	1.1699023	9.369348	
1465374900572886	2.665135	1.1641811	9.365476	
1465374900572886	2.665135	1.1641811	9.365476	
1465374910582652	2.651977	1.1603832	9.369681	
1465374920561900	2.6274037	1.1571292	9.377004	
1465374930541148	2.5915332	1.1569538	9.387001	
1465374950530161	2.474305	1.1676805	9.417257	
1465374950530161	2.474305	1.1676805	9.417257	
1465374960539927	2.4055295	1.1713908	9.4346	
1465374970549693	2.3484998	1.1672512	9.449469	
1465374980528941	2.3082747	1.1522694	9.461212	
1465375000517954	2.259399	1.0927532	9.480052	
1465375000517954	2.259399	1.0927532	9.480052	
1465375010527720	2.2451522	1.0553217	9.487675	
1465375020506968	2.2401443	1.017576	9.492981	
1465375030516734	2.2422066	0.9813346	9.496309	
1465375040526499	2.2452862	0.9483682	9.49893	
1465375050536265	2.2451112	0.9192429	9.501834	
1465375070494761	2.2307553	0.8732366	9.509552	
1465375070494761	2.2307553	0.8732366	9.509552	
1465375080504527	2.2154205	0.85806245	9.514517	
1465375100493540	2.1741016	0.8545609	9.524358	
1465375100493540	2.1741016	0.8545609	9.524358	
1465375110503306	2.1577263	0.8683876	9.526831	
1465375120513072	2.1508067	0.89113516	9.526296	
1465375130492320	2.1555717	0.9203293	9.522442	
1465375150481333	2.1886935	0.9804361	9.508878	
1465375150481333	2.1886935	0.9804361	9.508878	
1465375160491099	2.2122414	1.0035856	9.50101	
1465375170470347	2.2360346	1.0183349	9.493868	
1465375180480113	2.2556026	1.0233653	9.488696	
1465375190489878	2.2660182	1.0191811	9.486665	
1465375200469126	2.2670999	1.0081317	9.487587	
1465375210478892	2.2646036	0.9937975	9.489696	
1465375220458140	2.2623615	0.9797266	9.4916935	
1465375230467906	2.2588904	0.9691942	9.493601	
1465375250487437	2.2557385	0.965551	9.494721	
1465375250487437	2.2557385	0.965551	9.494721	
1465375260497202	2.2672453	0.97056514	9.49147	
1465375270476451	2.294135	0.976623	9.484384	
1465375280455699	2.3362815	0.97865784	9.473881	
1465375290434947	2.3873816	0.9717417	9.461845	
1465375300444712	2.4385595	0.95256233	9.450737	
1465375310454478	2.4769673	0.920727	9.443902	
1465375320464243	2.49413	0.8789312	9.443367	
1465375330443492	2.4931989	0.83216554	9.447848	
1465375350432505	2.4728348	0.74568087	9.460414	
1465375350432505	2.4728348	0.74568087	9.460414	
1465375360442271	2.4735546	0.7156624	9.462544	
1465375370452036	2.490556	0.6959977	9.459551	
1465375380431285	2.520968	0.68450683	9.452331	
1465375400450816	2.5998607	0.6694447	9.432017	
1465375400450816	2.5998607	0.6694447	9.432017	
1465375410430064	2.6423516	0.65543985	9.421186	
1465375420439829	2.68112	0.6322413	9.411815	
1465375430449595	2.706768	0.59913206	9.406638	
1465375450438609	2.7023883	0.51060754	9.413116	
1465375450438609	2.7023883	0.51060754	9.413116	
1465375460417857	2.6755466	0.46344376	9.42322	
1465375470397105	2.6357553	0.4220458	9.436369	
1465375480406870	2.5933032	0.3916432	9.449432	
1465375490416636	2.5574944	0.37547013	9.459843	
1465375500395884	2.5317085	0.37529364	9.466783	
1465375510405650	2.5179114	0.39166525	9.4698	
1465375530394663	2.5230289	0.4650455	9.4651165	
1465375530394663	2.5230289	0.4650455	9.4651165	
1465375540404429	2.5343823	0.5131686	9.459596	
1465375550383677	2.5440483	0.5609826	9.454286	
1465375560393443	2.5504308	0.60552174	9.449817	
1465375570403208	2.5515232	0.6459237	9.446846	
1465375580412974	2.54112	0.68235	9.447088	
1465375590392222	2.5146976	0.7147107	9.451766	
1465375600401988	2.4775085	0.7443689	9.459294	
1465375610381236	2.4401314	0.77217007	9.466779	
1465375620391001	2.4097004	0.7987899	9.4723625	
1465375630400767	2.390555	0.82278615	9.475161	
1465375650359263	2.3887377	0.85586673	9.472687	
1465375650359263	2.3887377	0.85586673	9.472687	
1465375660369029	2.4021475	0.8613391	9.4688	
1465375670348277	2.4173822	0.8585205	9.465178	
1465375680358042	2.4321015	0.8488079	9.462283	
1465375690367808	2.4480965	0.83331025	9.459536	
1465375700377574	2.465055	0.8139678	9.456815	
1465375710356822	2.4827077	0.79313564	9.453967	
1465375730345835	2.5181487	0.7515404	9.447989	
1465375730345835	2.5181487	0.7515404	9.447989	
1465375750334849	2.5370796	0.72282696	9.445165	
1465375750334849	2.5370796	0.72282696	9.445165	
1465375760344615	2.5425081	0.7179428	9.4440775	
1465375770323863	2.5521348	0.721156	9.441236	
1465375780333628	2.569371	0.73259056	9.4356785	
1465375790343394	2.5959115	0.75103843	9.42696	
1465375800322642	2.6330817	0.77409554	9.414778	
1465375810332408	2.6799586	0.7998989	9.399382	
1465375820311656	2.733425	0.82579577	9.381728	
1465375830321421	2.7896464	0.84914094	9.363077	
1465375840300669	2.8453476	0.8675698	9.344608	
1465375850310435	2.894774	0.879846	9.328265	
1465375860320201	2.9328656	0.88524663	9.315848	
1465375870299449	2.9567962	0.8849813	9.308305	
1465375880309214	2.961715	0.8820415	9.307021	
1465375890318980	2.950357	0.8793475	9.310883	
1465375910307993	2.9066029	0.8793875	9.324631	
1465375910307993	2.9066029	0.8793875	9.324631	
1465375920287242	2.8811808	0.88215625	9.332254	
1465375930266490	2.8341184	0.8889412	9.346012	
1465375940276255	2.8341184	0.8889412	9.346012	
1465375950286021	2.808662	0.8896204	9.353629	
1465375970275035	2.7270722	0.88266873	9.378398	
1465375970275035	2.7270722	0.88266873	9.378398	
1465375980284800	2.676846	0.874629	9.393611	
1465375990294566	2.6305583	0.86261207	9.407786	
1465376000304331	2.59185	0.84453183	9.420163	
1465376010283579	2.562678	0.8184511	9.430441	
1465376030272593	2.5151532	0.74544364	9.44927	
1465376030272593	2.5151532	0.74544364	9.44927	
1465376040282359	2.487986	0.7075192	9.459372	
1465376050261607	2.4619427	0.67578	9.468503	
1465376060271372	2.4439168	0.65223366	9.474822	
1465376070281138	2.4361117	0.6379599	9.477803	
1465376080260386	2.4373806	0.63202304	9.477874	
1465376090239634	2.4418657	0.63183975	9.476732	
1465376100249400	2.4451852	0.6357289	9.4756155	
1465376110259165	2.4435773	0.6423106	9.475588	
1465376120268931	2.4352334	0.65088856	9.47715	
1465376130248179	2.421132	0.66271955	9.479942	
1465376140227427	2.4048579	0.6791079	9.482924	
1465376150237193	2.390868	0.7013015	9.484846	
1465376160246958	2.3822494	0.7289301	9.484932	
1465376170226206	2.3832192	0.7605735	9.4822035	
1465376180235972	2.3974543	0.7931957	9.475941	
1465376190215220	2.4245992	0.82375485	9.466422	
1465376200224986	2.4606776	0.8509516	9.454699	
1465376210204234	2.499088	0.8738674	9.442527	
1465376220213999	2.536055	0.8909464	9.431067	
1465376230223765	2.5708344	0.9002932	9.420757	
1465376240233531	2.6019032	0.9021125	9.41205	
1465376250212779	2.6275158	0.8965861	9.40546	
1465376260192027	2.643703	0.88529456	9.401993	
1465376270201792	2.648567	0.8719473	9.401873	
1465376280181040	2.6443944	0.860239	9.404124	
1465376290190806	2.6343296	0.85215175	9.407685	
1465376300170054	2.6242318	0.8477098	9.410907	
1465376310179820	2.619768	0.8456878	9.4123335	
1465376320189585	2.6219852	0.8442789	9.411842	
1465376330168833	2.631649	0.84142673	9.4094	
1465376340178599	2.6517031	0.83547395	9.404299	
1465376350157847	2.681039	0.82411534	9.396981	
1465376360167613	2.7105737	0.8053588	9.390132	
1465376370177378	2.7341733	0.77923256	9.385493	
1465376380156626	2.7511842	0.74881196	9.382998	
1465376390166392	2.7627442	0.71744406	9.382052	
1465376400145640	2.7729638	0.6889339	9.381173	
1465376410155406	2.7864263	0.6648884	9.378921	
1465376420165171	2.8031733	0.6458592	9.375258	
1465376430144419	2.8240914	0.63227236	9.369905	
1465376440154185	2.8526537	0.62332606	9.361849	
1465376450133433	2.8870988	0.6158679	9.351779	
1465376460143199	2.9228683	0.6070554	9.341237	
1465376470152964	2.9522624	0.5960973	9.332696	
1465376480162730	2.9731543	0.58223057	9.326938	
1465376490141978	2.984654	0.5637422	9.3244	
1465376500151743	2.9822953	0.54074717	9.326516	
1465376510161509	2.97423	0.5164132	9.330469	
1465376520171275	2.9747653	0.49475875	9.331471	
1465376530150523	2.9868627	0.47803164	9.328479	
1465376540160288	3.0084398	0.46808338	9.322047	
1465376550139536	3.0397015	0.46788988	9.311911	
1465376560118785	3.080608	0.4795408	9.297865	
1465376580107798	3.1797247	0.5344213	9.261433	
1465376580107798	3.1797247	0.5344213	9.261433	
1465376590117564	3.2221277	0.57329905	9.244436	
1465376600127329	3.2523963	0.6169442	9.231017	
1465376610137095	3.2704773	0.6641487	9.221349	
1465376620146861	3.2817247	0.71194255	9.213783	
1465376630126109	3.2911758	0.75525314	9.206962	
1465376640105357	3.3004837	0.79022235	9.200693	
1465376650115122	3.312734	0.8148634	9.194138	
1465376660094370	3.3308022	0.82837296	9.186399	
1465376680113902	3.393423	0.82432556	9.163817	
1465376680113902	3.393423	0.82432556	9.163817	
1465376690123667	3.430885	0.811388	9.151014	
1465376700102915	3.4659464	0.79389656	9.139328	
1465376710112681	3.5034099	0.7746054	9.126691	
1465376720091929	3.5449204	0.75785315	9.112057	
1465376730101695	3.5902152	0.7470344	9.0952015	
1465376740111460	3.635962	0.7419678	9.077425	
1465376750090708	3.6778536	0.7413919	9.06058	
1465376770110240	3.7353249	0.7569285	9.035751	
1465376770110240	3.7353249	0.7569285	9.035751	
1465376780089488	3.7529554	0.77422804	9.026976	
1465376790068736	3.7666216	0.7997681	9.019053	
1465376800078501	3.7790546	0.8313267	9.010995	
1465376810057749	3.7914078	0.8659281	9.002543	
1465376820067515	3.8067634	0.90293735	8.992421	
1465376830046763	3.827901	0.94029105	8.979611	
1465376840056529	3.8546002	0.97710246	8.964247	
1465376850066294	3.8819702	1.0102638	8.948746	
1465376860076060	3.912476	1.0364757	8.932448	
1465376870085826	3.9481359	1.04853	8.915335	
1465376880065074	3.9823422	1.0451188	8.900509	
1465376890044322	4.0095	1.0354512	8.88944	
1465376900054087	4.035712	1.0230556	8.879008	
1465376910033335	4.077417	0.98527306	8.864214	
1465376920043101	4.077417	0.98527306	8.864214	
1465376930022349	4.082059	0.95903474	8.864956	
1465376940032115	4.0789523	0.9277657	8.869712	
1465376950041880	4.0702434	0.8904352	8.877536	
1465376970030894	4.043556	0.79439867	8.898819	
1465376970030894	4.043556	0.79439867	8.898819	
1465376980040660	4.0119762	0.7387619	8.917885	
1465376990050425	3.9708319	0.6842989	8.940617	
1465377000029673	3.931234	0.6324941	8.961905	
1465377030028452	3.7951107	0.4866259	9.029436	
1465377030028452	3.7951107	0.4866259	9.029436	
1465377030028452	3.7951107	0.4866259	9.029436	
1465377040007701	3.7626424	0.4326455	9.045757	
1465377050017466	3.7313955	0.3757807	9.061229	
1465377059996714	3.6998298	0.3218496	9.076236	
1465377070006480	3.668821	0.27227908	9.090434	
1465377080016245	3.639568	0.2299131	9.103354	
1465377090026011	3.615613	0.19797546	9.113646	
1465377100005259	3.5990994	0.17730093	9.1206045	
1465377109984507	3.5875294	0.16878286	9.125323	
1465377119994273	3.5742147	0.17074086	9.13051	
1465377130004038	3.5503168	0.1789773	9.139672	
1465377139983286	3.5082042	0.19590685	9.155572	
1465377149993052	3.4601667	0.2263565	9.173134	
1465377159972300	3.422543	0.26947322	9.186074	
1465377169982066	3.3947449	0.32187426	9.194699	
1465377179991831	3.3769085	0.38056418	9.199024	
1465377190001597	3.371693	0.44003713	9.198285	
1465377199980845	3.3755703	0.49235487	9.19421	
1465377209960093	3.3843007	0.53397185	9.188675	
1465377219939341	3.3947427	0.5650806	9.182962	
1465377229949107	3.4043107	0.58465284	9.178193	
1465377239958872	3.4157364	0.59256953	9.17344	
1465377249938120	3.4287903	0.5874201	9.1689	
1465377259947886	3.4343061	0.5691971	9.167984	
1465377269927134	3.4278238	0.54131216	9.172098	
1465377279936900	3.4155064	0.50677675	9.178664	
1465377289946665	3.4053335	0.46845722	9.184478	
1465377299925913	3.3945973	0.432827	9.1902	
1465377309935679	3.3804808	0.40487748	9.196674	
1465377319914927	3.3655784	0.3878867	9.202869	
1465377329924693	3.3563645	0.38150993	9.206501	
1465377339934458	3.3583133	0.38408133	9.205684	
1465377349913706	3.3722591	0.39216328	9.200243	
1465377359923472	3.3970473	0.40186232	9.190701	
1465377369902720	3.4310236	0.40908518	9.177751	
1465377379912486	3.46769	0.40962413	9.163937	
1465377389891734	3.4993694	0.40156463	9.152243	
1465377399901499	3.5237515	0.38553837	9.143573	
1465377409911265	3.5409133	0.36233088	9.137891	
1465377419890513	3.5517337	0.33394665	9.134772	
1465377429900279	3.5593266	0.30375952	9.13287	
1465377449919810	3.581731	0.25244904	9.12567	
1465377449919810	3.581731	0.25244904	9.12567	
1465377459929576	3.6035333	0.23566173	9.117533	
1465377469908824	3.6342702	0.22394311	9.10562	
1465377479918589	3.668261	0.21498941	9.092196	
1465377489897837	3.6954198	0.20686394	9.081379	
1465377499907603	3.7044387	0.1965754	9.077933	
1465377509886851	3.6869376	0.1809167	9.085381	
1465377519896617	3.6415758	0.16133448	9.104026	
1465377529875865	3.5800855	0.14274396	9.128691	
1465377539885630	3.5244398	0.12878755	9.150526	
1465377549895396	3.4952292	0.12141355	9.161824	
1465377559874644	3.5020015	0.12035608	9.159251	
1465377569884410	3.535099	0.12355439	9.146486	
1465377579894175	3.5749552	0.1292682	9.130902	
1465377599883189	3.6294637	0.1493358	9.109066	
1465377599883189	3.6294637	0.1493358	9.109066	
1465377609892954	3.6398392	0.16473113	9.104659	
1465377619872202	3.641609	0.18402791	9.103582	
1465377629881968	3.6386187	0.20895173	9.104239	
1465377639861216	3.6327925	0.23971066	9.105808	
1465377649870982	3.6244113	0.27568683	9.108129	
1465377659880747	3.6126223	0.31671327	9.111478	
1465377669859995	3.599429	0.36141324	9.115036	
1465377679869761	3.5889158	0.4078754	9.11722	
1465377699858775	3.588101	0.50039154	9.112932	
1465377699858775	3.588101	0.50039154	9.112932	
1465377719847788	3.6205013	0.581743	9.095269	
1465377719847788	3.6205013	0.581743	9.095269	
1465377729857554	3.6426415	0.61540115	9.084208	
1465377739836802	3.665245	0.6421792	9.0732565	
1465377749846568	3.6851113	0.6633437	9.063682	
1465377759856333	3.7015007	0.6798265	9.0557785	
1465377769835581	3.7130654	0.69264036	9.050071	
1465377779845347	3.7208734	0.70351493	9.046024	
1465377789824595	3.7275953	0.71295923	9.042517	
1465377799834361	3.7335012	0.7220348	9.039359	
1465377809844126	3.7358572	0.7318249	9.037599	
1465377819823374	3.734145	0.7436192	9.037344	
1465377839812388	3.7267401	0.7777981	9.037523	
1465377839812388	3.7267401	0.7777981	9.037523	
1465377849791636	3.7303467	0.8019586	9.033923	
1465377859801402	3.7426121	0.8310502	9.0262165	
1465377869811167	3.7652855	0.8629599	9.013784	
1465377889800181	3.8347814	0.9205408	8.978722	
1465377889800181	3.8347814	0.9205408	8.978722	
1465377899809947	3.874851	0.94074225	8.959404	
1465377909789195	3.9119086	0.9518757	8.942109	
1465377919798960	3.9418695	0.9525722	8.928867	
1465377939787974	3.9760718	0.92465514	8.916628	
1465377939787974	3.9760718	0.92465514	8.916628	
1465377949797740	3.9796042	0.8995445	8.917621	
1465377959776988	3.9748824	0.8709979	8.922559	
1465377969786753	3.9648755	0.8423018	8.929763	
1465377979796519	3.9552493	0.81566846	8.936502	
1465377989775767	3.9487271	0.7917171	8.941539	
1465377999755015	3.9402707	0.76958805	8.947201	
1465378019774546	3.8981535	0.7233128	8.969481	
1465378019774546	3.8981535	0.7233128	8.969481	
1465378029784312	3.8632624	0.6946847	8.986824	
1465378049773326	3.7734208	0.6232178	9.030132	
1465378049773326	3.7734208	0.6232178	9.030132	
1465378059752574	3.7316747	0.5798972	9.0503435	
1465378069762339	3.6965585	0.529866	9.067804	
1465378079772105	3.6632264	0.47460988	9.084377	
1465378089751353	3.6273224	0.41885048	9.10151	
1465378099761118	3.588475	0.3676871	9.119103	
1465378109740367	3.552215	0.32654926	9.134852	
1465378119750132	3.5262978	0.29757002	9.145877	
1465378129729380	3.5131335	0.280023	9.151495	
1465378149718394	3.4944925	0.2730386	9.158841	
1465378149718394	3.4944925	0.2730386	9.158841	
1465378159728160	3.4815633	0.28241828	9.163479	
1465378169737925	3.4665587	0.29985344	9.168612	
1465378179747691	3.454524	0.32420126	9.172325	
1465378189726939	3.448509	0.35208654	9.17356	
1465378199736704	3.4466875	0.37914905	9.173166	
1465378209715952	3.4457173	0.39996627	9.172647	
1465378219725718	3.4408605	0.41133654	9.173967	
1465378229704966	3.4293654	0.41180125	9.178249	
1465378239714732	3.411311	0.40299606	9.185366	
1465378249724497	3.3887455	0.38884473	9.1943245	
1465378259734263	3.3639698	0.3734859	9.204054	
1465378269713511	3.3387249	0.36221877	9.213691	
1465378279692759	3.3163533	0.3586206	9.221907	
1465378289702525	3.2999845	0.36381933	9.227574	
1465378299712290	3.2920425	0.37831846	9.229828	
1465378309722056	3.2932813	0.40160382	9.228402	
1465378319701304	3.3007586	0.430504	9.224426	
1465378329680552	3.3082707	0.46113876	9.220254	
1465378339690318	3.3114073	0.48901078	9.217691	
1465378349700083	3.3087149	0.51176476	9.2174225	
1465378359709849	3.3002915	0.52970815	9.21943	
1465378369689097	3.2892005	0.54274035	9.222634	
1465378379668345	3.281074	0.55104333	9.225036	
1465378399657359	3.2975206	0.5494751	9.219264	
1465378399657359	3.2975206	0.5494751	9.219264	
1465378409667124	3.3201697	0.5371268	9.211859	
1465378419646372	3.3434024	0.51600444	9.204661	
1465378429656138	3.364283	0.48469165	9.198753	
1465378439665904	3.381995	0.44332016	9.194344	
1465378449675669	3.3956532	0.39327326	9.1915865	
1465378459654917	3.404873	0.33770093	9.190386	
1465378469664683	3.4111109	0.28016382	9.190006	
1465378479643931	3.4182258	0.22557081	9.188866	
1465378489623179	3.429437	0.1770151	9.18575	
1465378499632945	3.4467068	0.1351104	9.1799965	
1465378509642710	3.4694397	0.099409476	9.171886	
1465378529631724	3.5072427	0.04237909	9.157939	
1465378529631724	3.5072427	0.04237909	9.157939	
1465378539641490	3.5065005	0.022077732	9.158295	
1465378549620738	3.4877775	0.008452181	9.165463	
1465378559630503	3.455433	0.0025872195	9.17771	
1465378569640269	3.419896	0.0057835774	9.1910095	
1465378579619517	3.3901713	0.018604876	9.201999	
1465378589629283	3.3723953	0.04069538	9.208457	
1465378609648814	3.3827963	0.10717781	9.204107	
1465378609648814	3.3827963	0.10717781	9.204107	
1465378619628062	3.404447	0.14886507	9.19554	
1465378629607310	3.4276671	0.19440037	9.18606	
1465378639617076	3.4487941	0.24241275	9.177007	
1465378659606089	3.4785557	0.33757004	9.162756	
1465378659606089	3.4785557	0.33757004	9.162756	
1465378669615855	3.4813159	0.3828442	9.159926	
1465378679595103	3.4706047	0.42847878	9.16197	
1465378689604868	3.4493947	0.47812042	9.167522	
1465378709593882	3.4094589	0.6029051	9.175101	
1465378709593882	3.4094589	0.6029051	9.175101	
1465378719603648	3.4089003	0.6786877	9.170014	
1465378729613413	3.4230983	0.7580876	9.158498	
1465378739592661	3.4449258	0.83463943	9.143644	
1465378759581675	3.4890547	0.960094	9.114555	
1465378759581675	3.4890547	0.960094	9.114555	
1465378769591441	3.5043569	1.0034496	9.104009	
1465378779570689	3.5160625	1.0324032	9.096253	
1465378789580454	3.5253623	1.0479251	9.090878	
1465378799559702	3.5295012	1.0525959	9.088732	
1465378809569468	3.526948	1.0507431	9.089937	
1465378819579234	3.517359	1.0472156	9.094059	
1465378829588999	3.501835	1.0456444	9.100228	
1465378839568247	3.4821486	1.0494616	9.107342	
1465378849578013	3.4620373	1.0626385	9.113478	
1465378859557261	3.4477594	1.0874112	9.115969	
1465378869567027	3.4434416	1.1247377	9.1130705	
1465378879576792	3.4519083	1.1732284	9.103749	
1465378889556040	3.4735508	1.2278504	9.088301	
1465378909545054	3.5348742	1.3349843	9.049468	
1465378909545054	3.5348742	1.3349843	9.049468	
1465378919554820	3.5655913	1.3795327	9.030716	
1465378929564585	3.593031	1.4153547	9.014283	
1465378939543833	3.6152108	1.4421065	9.001164	
1465378959532847	3.6370254	1.4751558	8.98701	
1465378959532847	3.6370254	1.4751558	8.98701	
1465378969542613	3.6405537	1.4831982	8.984257	
1465378979521861	3.642403	1.4844799	8.983296	
1465378989531626	3.640016	1.4766179	8.985559	
1465379009520640	3.611548	1.4234934	9.005596	
1465379009520640	3.611548	1.4234934	9.005596	
1465379019530406	3.5852695	1.3756567	9.023514	
1465379029540171	3.5485148	1.314142	9.04718	
1465379039519419	3.4959743	1.240232	9.078015	
1465379059508433	3.3451943	1.0641098	9.156841	
1465379059508433	3.3451943	1.0641098	9.156841	
1465379069518199	3.2621858	0.97343105	9.196791	
1465379079497447	3.1833327	0.8889744	9.2329035	
1465379089507212	3.1147432	0.8124986	9.263293	
1465379099486460	3.0628097	0.7442335	9.286318	
1465379109496226	3.0232809	0.68436265	9.303861	
1465379119475474	2.9879498	0.6343534	9.318805	
1465379129485240	2.9534607	0.5956253	9.332347	
1465379139464488	2.921404	0.5689924	9.34409	
1465379159484019	2.872234	0.547571	9.3605995	
1465379159484019	2.872234	0.547571	9.3605995	
1465379169493785	2.8543494	0.54823375	9.36603	
1465379179473033	2.8368092	0.5523752	9.371115	
1465379189482798	2.8115673	0.5593463	9.3783045	
1465379199462046	2.778143	0.57076377	9.387574	
1465379209471812	2.7418	0.5899359	9.397069	
1465379219481577	2.708136	0.62038374	9.404867	
1465379239470591	2.6744933	0.71080047	9.408094	
1465379239470591	2.6744933	0.71080047	9.408094	
1465379249449839	2.6764843	0.76015705	9.403668	
1465379269469370	2.711646	0.83253336	9.387452	
1465379269469370	2.711646	0.83253336	9.387452	
1465379279479136	2.736262	0.8446379	9.379224	
1465379299437632	2.779717	0.8165428	9.368928	
1465379299437632	2.779717	0.8165428	9.368928	
1465379309447398	2.7943683	0.7825084	9.367475	
1465379319457163	2.8048747	0.7430704	9.367546	
1465379329436411	2.81205	0.7058266	9.368276	
1465379339446177	2.8184502	0.6759662	9.368554	
1465379349425425	2.8265567	0.65702605	9.367458	
1465379359435191	2.8361905	0.64925164	9.365088	
1465379369444956	2.847066	0.6511	9.361659	
1465379379424204	2.8596506	0.66063917	9.357154	
1465379389433970	2.8753653	0.6755524	9.351273	
1465379399413218	2.8974578	0.6921329	9.343237	
1465379419432749	2.9792087	0.7142535	9.315822	
1465379419432749	2.9792087	0.7142535	9.315822	
1465379429411997	3.0338345	0.7112447	9.298407	
1465379439421763	3.0870001	0.6952183	9.282105	
1465379449431529	3.1357772	0.66715235	9.267804	
1465379459441294	3.1845493	0.63111395	9.253688	
1465379469420542	3.2390444	0.59088033	9.237415	
1465379479399790	3.2977145	0.54979366	9.219175	
1465379489409556	3.352905	0.51180756	9.201438	
1465379499388804	3.400444	0.48194438	9.185592	
1465379519377818	3.4809468	0.46107334	9.156463	
1465379519377818	3.4809468	0.46107334	9.156463	
1465379529357066	3.5251524	0.4680348	9.139181	
1465379549376597	3.6308591	0.48499525	9.096814	
1465379549376597	3.6308591	0.48499525	9.096814	
1465379559355845	3.6750305	0.48402283	9.079111	
1465379579344859	3.7149162	0.45148095	9.064545	
1465379579344859	3.7149162	0.45148095	9.064545	
1465379589354624	3.7065976	0.42087534	9.06942	
1465379599364390	3.6870313	0.38489324	9.078989	
1465379609343638	3.6655798	0.3501952	9.089075	
1465379629332652	3.6413944	0.30074435	9.100559	
1465379629332652	3.6413944	0.30074435	9.100559	
1465379639342417	3.6356623	0.28617015	9.103321	
1465379649352183	3.629446	0.27959883	9.106005	
1465379659331431	3.6200945	0.2819619	9.109654	
1465379669341197	3.608881	0.29282612	9.11376	
1465379679320445	3.5981991	0.31366697	9.11729	
1465379689330210	3.5886734	0.34356043	9.1199665	
1465379699339976	3.5766582	0.37893856	9.123283	
1465379709319224	3.554026	0.4163258	9.130497	
1465379729308238	3.479772	0.5006421	9.154831	
1465379729308238	3.479772	0.5006421	9.154831	
1465379739318003	3.4565766	0.5450309	9.161081	
1465379749327769	3.440245	0.58651125	9.164665	
1465379759307017	3.4352067	0.6195044	9.164385	
1465379779296031	3.4487886	0.6472616	9.157363	
1465379779296031	3.4487886	0.6472616	9.157363	
1465379789305796	3.4681044	0.64190674	9.150442	
