# OpenSignals Text File Format
# {"internal sensors": {"sensor": ["xAcc", "yAcc", "zAcc", "Latitude", "Longitude", "Altitude", "Light", "distance", "SigMotion"], "device name": "internal sensors", "column": ["nSeq", "xAcc", "yAcc", "zAcc", "Latitude", "Longitude", "Altitude", "Light", "distance", "SigMotion"], "sync interval": 2, "time": "14:55:57", "comments": "", "keywords": "", "device connection": "UNKNOWNinternal sensors", "channels": [0, 1, 2, 3, 4, 5, 6, 7, 8], "date": "2020-07-17", "mode": 0, "digital IO": [], "firmware version": 0, "device": "android", "position": 0, "sampling rate": 100, "label": ["xAcc", "yAcc", "zAcc", "Latitude", "Longitude", "Altitude", "Light", "distance", "SigMotion"], "resolution": [1, 1, 1, 1, 1, 1, 1, 1, 1], "special": [{}, {}, {}, {}, {}, {}, {}, {}, {}], "sleeve color": ["UNKNOWN", "UNKNOWN", "UNKNOWN", "UNKNOWN", "UNKNOWN", "UNKNOWN", "UNKNOWN", "UNKNOWN", "UNKNOWN"]}}
# EndOfHeader
0.0	0.14724341	-0.2837129	9.660604	38.689762	-9.335868	80.6	114.0	5.0	0.0	
0.01	0.14724341	-0.2837129	9.660604	38.689762	-9.335868	80.6	114.0	5.0	0.0	
0.02	0.14724341	-0.2837129	9.660604	38.689762	-9.335868	80.6	114.0	5.0	0.0	
0.03	0.14724341	-0.2837129	9.660604	38.689762	-9.335868	80.6	114.0	5.0	0.0	
0.04	0.14724341	-0.2837129	9.660604	38.689762	-9.335868	80.6	114.0	5.0	0.0	
0.05	0.14724341	-0.2837129	9.660604	38.689762	-9.335868	80.6	114.0	5.0	0.0	
0.06	0.14724341	-0.2837129	9.660604	38.689762	-9.335868	80.6	114.0	5.0	0.0	
0.07	0.14724341	-0.2837129	9.660604	38.689762	-9.335868	80.6	114.0	5.0	0.0	
0.08	0.14724341	-0.2837129	9.660604	38.689762	-9.335868	80.6	114.0	5.0	0.0	
0.09	0.14724341	-0.2837129	9.660604	38.689762	-9.335868	80.6	114.0	5.0	0.0	
0.1	0.16400282	-0.2789245	9.607931	38.689762	-9.335868	80.6	114.0	5.0	0.0	
0.11	0.16400282	-0.2789245	9.607931	38.689762	-9.335868	80.6	114.0	5.0	0.0	
0.12	0.20231004	-0.2621651	9.615114	38.689762	-9.335868	80.6	114.0	5.0	0.0	
0.13	0.20590134	-0.2633622	9.633071	38.689762	-9.335868	80.6	114.0	5.0	0.0	
0.14	0.20590134	-0.2633622	9.633071	38.689762	-9.335868	80.6	114.0	5.0	0.0	
0.15	0.20590134	-0.2633622	9.633071	38.689762	-9.335868	80.6	114.0	5.0	0.0	
0.16	0.20590134	-0.2633622	9.633071	38.689762	-9.335868	80.6	114.0	5.0	0.0	
0.17	0.20590134	-0.2633622	9.633071	38.689762	-9.335868	80.6	114.0	5.0	0.0	
0.18	0.18555063	-0.23582886	9.691729	38.689762	-9.335868	80.6	114.0	5.0	0.0	
0.19	0.17717093	-0.20709845	9.692925	38.689762	-9.335868	80.6	114.0	5.0	0.0	
0.2	0.17717093	-0.20709845	9.692925	38.689762	-9.335868	80.6	114.0	5.0	0.0	
0.21	0.17118542	-0.19632454	9.680955	38.689762	-9.335868	80.6	114.0	5.0	0.0	
0.22	0.17238252	-0.20350714	9.6845455	38.689762	-9.335868	80.6	114.0	5.0	0.0	
0.23	0.17477672	-0.22625206	9.689334	38.689762	-9.335868	80.6	114.0	5.0	0.0	
0.24	0.17477672	-0.22625206	9.694122	38.689762	-9.335868	80.6	114.0	5.0	0.0	
0.25	0.20829555	-0.2633622	9.621099	38.689762	-9.335868	80.6	114.0	5.0	0.0	
0.26	0.20829555	-0.2633622	9.621099	38.689762	-9.335868	80.6	114.0	5.0	0.0	
0.27	0.22266077	-0.2633622	9.621099	38.689762	-9.335868	80.6	114.0	5.0	0.0	
0.28	0.21667525	-0.2765303	9.592369	38.689762	-9.335868	80.6	114.0	5.0	0.0	
0.29	0.21667525	-0.2765303	9.592369	38.689762	-9.335868	80.6	114.0	5.0	0.0	
0.3	0.19512744	-0.2777274	9.555259	38.689762	-9.335868	80.6	114.0	5.0	0.0	
0.31	0.16400282	-0.29688102	9.55885	38.689762	-9.335868	80.6	114.0	5.0	0.0	
0.32	0.1364695	-0.29688102	9.566033	38.689762	-9.335868	80.6	114.0	5.0	0.0	
0.33	0.12090719	-0.29448682	9.592369	38.689762	-9.335868	80.6	114.0	5.0	0.0	
0.34	0.12090719	-0.2717419	9.616311	38.689762	-9.335868	80.6	114.0	5.0	0.0	
0.35000000000000003	0.11971009	-0.25737667	9.622296	38.689762	-9.335868	80.6	114.0	5.0	0.0	
0.36	0.1352724	-0.23463176	9.631873	38.689762	-9.335868	80.6	114.0	5.0	0.0	
0.37	0.14724341	-0.22266077	9.628283	38.689762	-9.335868	80.6	114.0	5.0	0.0	
0.38	0.16160862	-0.22026655	9.659407	38.689762	-9.335868	80.6	114.0	5.0	0.0	
0.39	0.18674773	-0.23582886	9.692925	38.689762	-9.335868	80.6	114.0	5.0	0.0	
0.4	0.20590134	-0.23582886	9.692925	38.689762	-9.335868	80.6	114.0	5.0	0.0	
0.41000000000000003	0.22864626	-0.23343466	9.698911	38.689762	-9.335868	80.6	114.0	5.0	0.0	
0.42	0.25737667	-0.25258827	9.688137	38.689762	-9.335868	80.6	114.0	5.0	0.0	
0.43	0.25977087	-0.25019407	9.685743	38.689762	-9.335868	80.6	114.0	5.0	0.0	
0.44	0.24899697	-0.24181437	9.67018	38.689762	-9.335868	80.6	114.0	5.0	0.0	
0.45	0.23104046	-0.23822308	9.64145	38.689762	-9.335868	80.6	114.0	5.0	0.0	
0.46	0.18914193	-0.23343466	9.613917	38.689762	-9.335868	80.6	114.0	5.0	0.0	
0.47000000000000003	0.16879122	-0.25617957	9.599552	38.689762	-9.335868	80.6	114.0	5.0	0.0	
0.48	0.1316811	-0.2681506	9.594764	38.689762	-9.335868	80.6	114.0	5.0	0.0	
0.49	0.108936176	-0.2753332	9.600749	38.689762	-9.335868	80.6	114.0	5.0	0.0	
0.5	0.10414778	-0.2837129	9.606734	38.689762	-9.335868	80.6	114.0	5.0	0.0	
0.51	0.11133038	-0.2837129	9.606734	38.689762	-9.335868	80.6	114.0	5.0	0.0	
0.52	0.12689269	-0.2741361	9.589975	38.689762	-9.335868	80.6	114.0	5.0	0.0	
0.53	0.15801731	-0.2657564	9.595961	38.689762	-9.335868	80.6	114.0	5.0	0.0	
0.54	0.18435353	-0.2621651	9.593566	38.689762	-9.335868	80.6	114.0	5.0	0.0	
0.55	0.22026655	-0.2693477	9.625888	38.689762	-9.335868	80.6	114.0	5.0	0.0	
0.56	0.24420857	-0.2669535	9.627085	38.689762	-9.335868	80.6	114.0	5.0	0.0	
0.5700000000000001	0.23822308	-0.25737667	9.643845	38.689762	-9.335868	80.6	114.0	5.0	0.0	
0.58	0.23822308	-0.2621651	9.652225	38.689762	-9.335868	80.6	114.0	5.0	0.0	
0.59	0.22625206	-0.25139117	9.661801	38.689762	-9.335868	80.6	114.0	5.0	0.0	
0.6	0.19991584	-0.24660277	9.665392	38.689762	-9.335868	80.6	114.0	5.0	0.0	
0.61	0.17836803	-0.23582886	9.671378	38.689762	-9.335868	80.6	114.0	5.0	0.0	
0.62	0.1592144	-0.22984336	9.668983	38.689762	-9.335868	80.6	114.0	5.0	0.0	
0.63	0.1436521	-0.22505496	9.645041	38.689762	-9.335868	80.6	114.0	5.0	0.0	
0.64	0.1352724	-0.21547815	9.640253	38.689762	-9.335868	80.6	114.0	5.0	0.0	
0.65	0.130484	-0.22625206	9.621099	38.689762	-9.335868	80.6	114.0	5.0	0.0	
0.66	0.1352724	-0.24061728	9.635465	38.689762	-9.335868	80.6	114.0	5.0	0.0	
0.67	0.15442601	-0.260968	9.642648	38.689762	-9.335868	80.6	114.0	5.0	0.0	
0.68	0.17717093	-0.2789245	9.627085	38.689762	-9.335868	80.6	114.0	5.0	0.0	
0.6900000000000001	0.19153613	-0.2885013	9.598354	38.689762	-9.335868	80.6	114.0	5.0	0.0	
0.7000000000000001	0.21428105	-0.2908955	9.601946	38.689762	-9.335868	80.6	114.0	5.0	0.0	
0.71	0.22505496	-0.28491	9.583989	38.689762	-9.335868	80.6	114.0	5.0	0.0	
0.72	0.21906945	-0.2777274	9.579201	38.689762	-9.335868	80.6	114.0	5.0	0.0	
0.73	0.19512744	-0.2741361	9.582792	38.689762	-9.335868	80.6	114.0	5.0	0.0	
0.74	0.17477672	-0.2669535	9.588778	38.689762	-9.335868	80.6	114.0	5.0	0.0	
0.75	0.16759412	-0.272939	9.605537	38.689762	-9.335868	80.6	114.0	5.0	0.0	
0.76	0.14604631	-0.2717419	9.634268	38.689762	-9.335868	80.6	114.0	5.0	0.0	
0.77	0.1412579	-0.24899697	9.655815	38.689762	-9.335868	80.6	114.0	5.0	0.0	
0.78	0.1592144	-0.24181437	9.655815	38.689762	-9.335868	80.6	114.0	5.0	0.0	
0.79	0.16998832	-0.22625206	9.657013	38.689762	-9.335868	80.6	114.0	5.0	0.0	
0.8	0.18794483	-0.21787235	9.651027	38.689762	-9.335868	80.6	114.0	5.0	0.0	
0.81	0.20590134	-0.22505496	9.659407	38.689762	-9.335868	80.6	114.0	5.0	0.0	
0.8200000000000001	0.21068975	-0.24301147	9.677363	38.689762	-9.335868	80.6	114.0	5.0	0.0	
0.8300000000000001	0.20350714	-0.24181437	9.671378	38.689762	-9.335868	80.6	114.0	5.0	0.0	
0.84	0.19273324	-0.25498247	9.67018	38.689762	-9.335868	80.6	114.0	5.0	0.0	
0.85	0.19153613	-0.2669535	9.621099	38.689762	-9.335868	80.6	114.0	5.0	0.0	
0.86	0.17597382	-0.25857377	9.605537	38.689762	-9.335868	80.6	114.0	5.0	0.0	
0.87	0.16400282	-0.25977087	9.600749	38.689762	-9.335868	80.6	114.0	5.0	0.0	
0.88	0.15682021	-0.25857377	9.591172	38.689762	-9.335868	80.6	114.0	5.0	0.0	
0.89	0.1436521	-0.2789245	9.580399	38.689762	-9.335868	80.6	114.0	5.0	0.0	
0.9	0.15322891	-0.2777274	9.581595	38.689762	-9.335868	80.6	114.0	5.0	0.0	
0.91	0.15442601	-0.2825158	9.598354	38.689762	-9.335868	80.6	114.0	5.0	0.0	
0.92	0.16639702	-0.2777274	9.595961	38.689762	-9.335868	80.6	114.0	5.0	0.0	
0.93	0.17477672	-0.260968	9.603143	38.689762	-9.335868	80.6	114.0	5.0	0.0	
0.9400000000000001	0.18914193	-0.2621651	9.631873	38.689762	-9.335868	80.6	114.0	5.0	0.0	
0.9500000000000001	0.20231004	-0.2669535	9.625888	38.689762	-9.335868	80.6	114.0	5.0	0.0	
0.96	0.20231004	-0.25019407	9.635465	38.689762	-9.335868	80.6	114.0	5.0	0.0	
0.97	0.20231004	-0.24420857	9.652225	38.689762	-9.335868	80.6	114.0	5.0	0.0	
0.98	0.18195933	-0.22864626	9.671378	38.689762	-9.335868	80.6	114.0	5.0	0.0	
0.99	0.17118542	-0.22625206	9.692925	38.689762	-9.335868	80.6	114.0	5.0	0.0	
1.0	0.17477672	-0.23343466	9.700109	38.689762	-9.335868	80.6	114.0	5.0	0.0	
1.01	0.16400282	-0.22505496	9.682152	38.689762	-9.335868	80.6	114.0	5.0	0.0	
1.02	0.17118542	-0.22984336	9.665392	38.689762	-9.335868	80.6	114.0	5.0	0.0	
1.03	0.16759412	-0.23104046	9.642648	38.689762	-9.335868	80.6	114.0	5.0	0.0	
1.04	0.17597382	-0.24779987	9.630676	38.689762	-9.335868	80.6	114.0	5.0	0.0	
1.05	0.18914193	-0.25737667	9.618706	38.689762	-9.335868	80.6	114.0	5.0	0.0	
1.06	0.18435353	-0.2717419	9.631873	38.689762	-9.335868	80.6	114.0	5.0	0.0	
1.07	0.19033903	-0.29328972	9.618706	38.689762	-9.335868	80.6	114.0	5.0	0.0	
1.08	0.20350714	-0.2825158	9.606734	38.689762	-9.335868	80.6	114.0	5.0	0.0	
1.09	0.19991584	-0.29328972	9.61272	38.689762	-9.335868	80.6	114.0	5.0	0.0	
1.1	0.17956513	-0.2765303	9.599552	38.689762	-9.335868	80.6	114.0	5.0	0.0	
1.11	0.16759412	-0.25977087	9.606734	38.689762	-9.335868	80.6	114.0	5.0	0.0	
1.12	0.16759412	-0.25737667	9.615114	38.689762	-9.335868	80.6	114.0	5.0	0.0	
1.1300000000000001	0.15442601	-0.25498247	9.607931	38.689762	-9.335868	80.6	114.0	5.0	0.0	
1.1400000000000001	0.15682021	-0.25977087	9.636662	38.689762	-9.335868	80.6	112.0	5.0	0.0	
1.1500000000000001	0.1604115	-0.2645593	9.653421	38.689762	-9.335868	80.6	112.0	5.0	0.0	
1.16	0.17477672	-0.25378537	9.665392	38.689762	-9.335868	80.6	112.0	5.0	0.0	
1.17	0.17477672	-0.25378537	9.665392	38.689762	-9.335868	80.6	112.0	5.0	0.0	
1.18	0.19752164	-0.24540567	9.654618	38.689762	-9.335868	80.6	112.0	5.0	0.0	
1.19	0.19991584	-0.24420857	9.623494	38.689762	-9.335868	80.6	112.0	5.0	0.0	
1.2	0.19871874	-0.24061728	9.633071	38.689762	-9.335868	80.6	112.0	5.0	0.0	
1.21	0.16998832	-0.24301147	9.645041	38.689762	-9.335868	80.6	112.0	5.0	0.0	
1.22	0.16519992	-0.25258827	9.655815	38.689762	-9.335868	80.6	112.0	5.0	0.0	
1.23	0.14963761	-0.2693477	9.65821	38.689762	-9.335868	80.6	112.0	5.0	0.0	
1.24	0.15203181	-0.2657564	9.661801	38.689762	-9.335868	80.6	112.0	5.0	0.0	
1.25	0.1592144	-0.24779987	9.637859	38.689762	-9.335868	80.6	112.0	5.0	0.0	
1.26	0.17836803	-0.23582886	9.594764	38.689762	-9.335868	80.6	112.0	5.0	0.0	
1.27	0.20111294	-0.260968	9.593566	38.689762	-9.335868	80.6	112.0	5.0	0.0	
1.28	0.22266077	-0.2645593	9.598354	38.689762	-9.335868	80.6	112.0	5.0	0.0	
1.29	0.23223756	-0.2908955	9.624691	38.689762	-9.335868	80.6	112.0	5.0	0.0	
1.3	0.23463176	-0.30406362	9.637859	38.689762	-9.335868	80.6	112.0	5.0	0.0	
1.31	0.22625206	-0.31244332	9.628283	38.689762	-9.335868	80.6	112.0	5.0	0.0	
1.32	0.21547815	-0.2885013	9.636662	38.689762	-9.335868	80.6	112.0	5.0	0.0	
1.33	0.18794483	-0.25139117	9.622296	38.689762	-9.335868	80.6	112.0	5.0	0.0	
1.34	0.16280572	-0.24301147	9.618706	38.689762	-9.335868	80.6	112.0	5.0	0.0	
1.35	0.1376666	-0.22146365	9.617508	38.689762	-9.335868	80.6	112.0	5.0	0.0	
1.36	0.1352724	-0.22146365	9.64145	38.689762	-9.335868	80.6	112.0	5.0	0.0	
1.37	0.1340753	-0.23343466	9.679757	38.689762	-9.335868	80.6	112.0	5.0	0.0	
1.3800000000000001	0.1364695	-0.24420857	9.672575	38.689762	-9.335868	80.6	112.0	5.0	0.0	
1.3900000000000001	0.15322891	-0.23822308	9.659407	38.689762	-9.335868	80.6	112.0	5.0	0.0	
1.4000000000000001	0.16998832	-0.25139117	9.661801	38.689762	-9.335868	80.6	112.0	5.0	0.0	
1.41	0.18674773	-0.24301147	9.648633	38.689762	-9.335868	80.6	112.0	5.0	0.0	
1.42	0.18794483	-0.25617957	9.646238	38.689762	-9.335868	80.6	112.0	5.0	0.0	
1.43	0.20111294	-0.25737667	9.629479	38.689762	-9.335868	80.6	112.0	5.0	0.0	
1.44	0.20350714	-0.25857377	9.624691	38.689762	-9.335868	80.6	112.0	5.0	0.0	
1.45	0.20709845	-0.2645593	9.623494	38.689762	-9.335868	80.6	112.0	5.0	0.0	
1.46	0.19033903	-0.2669535	9.627085	38.689762	-9.335868	80.6	112.0	5.0	0.0	
1.47	0.17357962	-0.2633622	9.631873	38.689762	-9.335868	80.6	112.0	5.0	0.0	
1.48	0.17956513	-0.2717419	9.640253	38.689762	-9.335868	80.6	112.0	5.0	0.0	
1.49	0.18555063	-0.25977087	9.657013	38.689762	-9.335868	80.6	112.0	5.0	0.0	
1.5	0.19752164	-0.260968	9.652225	38.689762	-9.335868	80.6	112.0	5.0	0.0	
1.51	0.20111294	-0.24301147	9.631873	38.689762	-9.335868	80.6	112.0	5.0	0.0	
1.52	0.20709845	-0.25019407	9.609129	38.689762	-9.335868	80.6	112.0	5.0	0.0	
1.53	0.19033903	-0.23942018	9.631873	38.689762	-9.335868	80.6	112.0	5.0	0.0	
1.54	0.17717093	-0.25258827	9.643845	38.689762	-9.335868	80.6	112.0	5.0	0.0	
1.55	0.17118542	-0.260968	9.655815	38.689762	-9.335868	80.6	112.0	5.0	0.0	
1.56	0.1592144	-0.2657564	9.654618	38.689762	-9.335868	80.6	112.0	5.0	0.0	
1.57	0.1448492	-0.25977087	9.643845	38.689762	-9.335868	80.6	112.0	5.0	0.0	
1.58	0.142455	-0.24660277	9.653421	38.689762	-9.335868	80.6	112.0	5.0	0.0	
1.59	0.1388637	-0.23223756	9.652225	38.689762	-9.335868	80.6	112.0	5.0	0.0	
1.6	0.1364695	-0.23463176	9.617508	38.689762	-9.335868	80.6	112.0	5.0	0.0	
1.61	0.1592144	-0.24899697	9.578004	38.689762	-9.335868	80.6	112.0	5.0	0.0	
1.62	0.17118542	-0.260968	9.585187	38.689762	-9.335868	80.6	112.0	5.0	0.0	
1.6300000000000001	0.18195933	-0.2801216	9.64983	38.689762	-9.335868	80.6	112.0	5.0	0.0	
1.6400000000000001	0.19752164	-0.2777274	9.659407	38.689762	-9.335868	80.6	112.0	5.0	0.0	
1.6500000000000001	0.20709845	-0.29568392	9.674969	38.689762	-9.335868	80.6	112.0	5.0	0.0	
1.6600000000000001	0.21308395	-0.2801216	9.654618	38.689762	-9.335868	80.6	112.0	5.0	0.0	
1.67	0.22146365	-0.24899697	9.64145	38.689762	-9.335868	80.6	112.0	5.0	0.0	
1.68	0.19393034	-0.22026655	9.605537	38.689762	-9.335868	80.6	112.0	5.0	0.0	
1.69	0.16759412	-0.22266077	9.586384	38.689762	-9.335868	80.6	112.0	5.0	0.0	
1.7	0.15322891	-0.23702596	9.607931	38.689762	-9.335868	80.6	112.0	5.0	0.0	
1.71	0.12928689	-0.25258827	9.623494	38.689762	-9.335868	80.6	112.0	5.0	0.0	
1.72	0.11611878	-0.2789245	9.664195	38.689762	-9.335868	80.6	112.0	5.0	0.0	
1.73	0.1352724	-0.2741361	9.697714	38.689762	-9.335868	80.6	112.0	5.0	0.0	
1.74	0.15682021	-0.24779987	9.661801	38.689762	-9.335868	80.6	112.0	5.0	0.0	
1.75	0.18435353	-0.21787235	9.624691	38.689762	-9.335868	80.6	112.0	5.0	0.0	
1.76	0.21188685	-0.22146365	9.599552	38.689762	-9.335868	80.6	112.0	5.0	0.0	
1.77	0.22146365	-0.21667525	9.603143	38.689762	-9.335868	80.6	112.0	5.0	0.0	
1.78	0.22146365	-0.24660277	9.628283	38.689762	-9.335868	80.6	112.0	5.0	0.0	
1.79	0.22266077	-0.2789245	9.651027	38.689762	-9.335868	80.6	112.0	5.0	0.0	
1.8	0.21667525	-0.30645782	9.660604	38.689762	-9.335868	80.6	112.0	5.0	0.0	
1.81	0.20470424	-0.30286652	9.665392	38.689762	-9.335868	80.6	112.0	5.0	0.0	
1.82	0.19752164	-0.2885013	9.643845	38.689762	-9.335868	80.6	112.0	5.0	0.0	
1.83	0.17238252	-0.2753332	9.627085	38.689762	-9.335868	80.6	112.0	5.0	0.0	
1.84	0.17118542	-0.24420857	9.605537	38.689762	-9.335868	80.6	112.0	5.0	0.0	
1.85	0.16519992	-0.22864626	9.605537	38.689762	-9.335868	80.6	112.0	5.0	0.0	
1.86	0.15203181	-0.22026655	9.613917	38.689762	-9.335868	80.6	112.0	5.0	0.0	
1.87	0.16998832	-0.25258827	9.637859	38.689762	-9.335868	80.6	112.0	5.0	0.0	
1.8800000000000001	0.17238252	-0.260968	9.676167	38.689762	-9.335868	80.6	112.0	5.0	0.0	
1.8900000000000001	0.18914193	-0.2669535	9.680955	38.689762	-9.335868	80.6	112.0	5.0	0.0	
1.9000000000000001	0.19033903	-0.2741361	9.673772	38.689762	-9.335868	80.6	112.0	5.0	0.0	
1.9100000000000001	0.19153613	-0.24061728	9.654618	38.689762	-9.335868	80.6	112.0	5.0	0.0	
1.92	0.19273324	-0.23702596	9.628283	38.689762	-9.335868	80.6	112.0	5.0	0.0	
1.93	0.17597382	-0.23104046	9.629479	38.689762	-9.335868	80.6	112.0	5.0	0.0	
1.94	0.17238252	-0.24540567	9.625888	38.689762	-9.335868	80.6	112.0	5.0	0.0	
1.95	0.15442601	-0.260968	9.631873	38.689762	-9.335868	80.6	112.0	5.0	0.0	
1.96	0.14724341	-0.2681506	9.642648	38.689762	-9.335868	80.6	112.0	5.0	0.0	
1.97	0.1328782	-0.2741361	9.645041	38.689762	-9.335868	80.6	112.0	5.0	0.0	
1.98	0.1340753	-0.2705448	9.619903	38.689762	-9.335868	80.6	112.0	5.0	0.0	
1.99	0.1388637	-0.25857377	9.609129	38.689762	-9.335868	80.6	112.0	5.0	0.0	
2.0	0.1436521	-0.24301147	9.642648	38.689762	-9.335868	80.6	112.0	5.0	0.0	
2.0100000000000002	0.14724341	-0.24420857	9.642648	38.689762	-9.335868	80.6	112.0	5.0	0.0	
2.02	0.16639702	-0.22744916	9.643845	38.689762	-9.335868	80.6	112.0	5.0	0.0	
2.0300000000000002	0.19752164	-0.25139117	9.662998	38.689762	-9.335868	80.6	112.0	5.0	0.0	
2.04	0.22385786	-0.25378537	9.692925	38.689762	-9.335868	80.6	112.0	5.0	0.0	
2.05	0.22266077	-0.25857377	9.718064	38.689762	-9.335868	80.6	112.0	5.0	0.0	
2.06	0.20590134	-0.24301147	9.731233	38.689762	-9.335868	80.6	112.0	5.0	0.0	
2.07	0.19991584	-0.22385786	9.727641	38.689762	-9.335868	80.6	112.0	5.0	0.0	
2.08	0.19153613	-0.20111294	9.738416	38.689762	-9.335868	80.6	112.0	5.0	0.0	
2.09	0.20111294	-0.19991584	9.794679	38.689762	-9.335868	80.6	112.0	5.0	0.0	
2.1	0.20949265	-0.17477672	9.859323	38.689762	-9.335868	80.6	112.0	5.0	0.0	
2.11	0.21308395	-0.17118542	9.907207	38.689762	-9.335868	80.6	111.0	5.0	0.0	
2.12	0.23343466	-0.16160862	9.90601	38.689762	-9.335868	80.6	111.0	5.0	0.0	
2.13	0.24420857	-0.14963761	9.858126	38.689762	-9.335868	80.6	111.0	5.0	0.0	
2.14	0.25139117	-0.14963761	9.787497	38.689762	-9.335868	80.6	111.0	5.0	0.0	
2.15	0.24301147	-0.17717093	9.6845455	38.689762	-9.335868	80.6	111.0	5.0	0.0	
2.16	0.18794483	-0.30885202	9.506178	38.689762	-9.335868	80.6	111.0	5.0	0.0	
2.17	0.18794483	-0.30885202	9.506178	38.689762	-9.335868	80.6	111.0	5.0	0.0	
2.18	0.1316811	-0.36511576	9.400833	38.689762	-9.335868	80.6	111.0	5.0	0.0	
2.19	0.093373865	-0.45729253	9.307459	38.689762	-9.335868	80.6	111.0	5.0	0.0	
2.2	0.18794483	-0.59136784	9.185355	38.689762	-9.335868	80.6	111.0	5.0	0.0	
2.21	0.09816227	-0.58657944	9.308656	38.689762	-9.335868	80.6	111.0	5.0	0.0	
2.22	0.007182605	-0.5398925	9.348161	38.689762	-9.335868	80.6	111.0	5.0	0.0	
2.23	-0.020350715	-0.46567222	9.405622	38.689762	-9.335868	80.6	111.0	5.0	0.0	
2.24	0.025139118	-0.36391866	9.475053	38.689762	-9.335868	80.6	111.0	5.0	0.0	
2.25	0.10534488	-0.2777274	9.55885	38.689762	-9.335868	80.6	111.0	5.0	0.0	
2.2600000000000002	0.15083471	-0.18435353	9.7324295	38.689762	-9.335868	80.6	111.0	5.0	0.0	
2.27	0.18794483	-0.14963761	9.809045	38.689762	-9.335868	80.6	111.0	5.0	0.0	
2.2800000000000002	0.22505496	-0.11372458	9.895236	38.689762	-9.335868	80.6	111.0	5.0	0.0	
2.29	0.2837129	-0.11133038	9.922769	38.689762	-9.335868	80.6	111.0	5.0	0.0	
2.3000000000000003	0.33399114	-0.1352724	9.941922	38.689762	-9.335868	80.6	111.0	5.0	0.0	
2.31	0.35673606	-0.1592144	9.937134	38.689762	-9.335868	80.6	111.0	5.0	0.0	
2.32	0.33518824	-0.17836803	9.864111	38.689762	-9.335868	80.6	111.0	5.0	0.0	
2.33	0.2669535	-0.20350714	9.752781	38.689762	-9.335868	80.6	111.0	5.0	0.0	
2.34	0.19033903	-0.25617957	9.631873	38.689762	-9.335868	80.6	111.0	5.0	0.0	
2.35	0.14724341	-0.29927522	9.537302	38.689762	-9.335868	80.6	111.0	5.0	0.0	
2.36	0.11611878	-0.36391866	9.475053	38.689762	-9.335868	80.6	111.0	5.0	0.0	
2.37	0.07182605	-0.4213795	9.442732	38.689762	-9.335868	80.6	111.0	5.0	0.0	
2.38	0.050278235	-0.45729253	9.43076	38.689762	-9.335868	80.6	111.0	5.0	0.0	
2.39	0.038307227	-0.47165772	9.423578	38.689762	-9.335868	80.6	111.0	5.0	0.0	
2.4	0.073023155	-0.46088383	9.412804	38.689762	-9.335868	80.6	111.0	5.0	0.0	
2.41	0.1364695	-0.4225766	9.406818	38.689762	-9.335868	80.6	111.0	5.0	0.0	
2.42	0.20829555	-0.38067806	9.449914	38.689762	-9.335868	80.6	111.0	5.0	0.0	
2.43	0.2633622	-0.35913026	9.509769	38.689762	-9.335868	80.6	111.0	5.0	0.0	
2.44	0.2825158	-0.32202014	9.568427	38.689762	-9.335868	80.6	111.0	5.0	0.0	
2.45	0.2837129	-0.30406362	9.607931	38.689762	-9.335868	80.6	111.0	5.0	0.0	
2.46	0.272939	-0.2741361	9.628283	38.689762	-9.335868	80.6	111.0	5.0	0.0	
2.47	0.2801216	-0.2753332	9.636662	38.689762	-9.335868	80.6	111.0	5.0	0.0	
2.48	0.2681506	-0.2621651	9.642648	38.689762	-9.335868	80.6	111.0	5.0	0.0	
2.49	0.22984336	-0.2681506	9.838972	38.689762	-9.335868	80.6	111.0	5.0	0.0	
2.5	0.12090719	-0.25019407	10.020931	38.689762	-9.335868	80.6	111.0	5.0	0.0	
2.5100000000000002	-0.039504327	-0.16519992	10.080787	38.689762	-9.335868	80.6	111.0	5.0	0.0	
2.52	-0.16998832	-0.045489833	10.012551	38.689762	-9.335868	80.6	111.0	5.0	0.0	
2.5300000000000002	-0.18195933	0.04189853	9.882068	38.689762	-9.335868	80.6	111.0	5.0	0.0	
2.54	-0.061052144	0.088585466	9.753978	38.689762	-9.335868	80.6	111.0	5.0	0.0	
2.5500000000000003	0.12210429	0.007182605	9.65821	38.689762	-9.335868	80.6	111.0	5.0	0.0	
2.56	0.29688102	-0.15682021	9.616311	38.689762	-9.335868	80.6	111.0	5.0	0.0	
2.57	0.3854665	-0.34955344	9.5492735	38.689762	-9.335868	80.6	111.0	5.0	0.0	
2.58	0.4189853	-0.5542577	9.479841	38.689762	-9.335868	80.6	111.0	5.0	0.0	
2.59	0.4189853	-0.6572084	9.479841	38.689762	-9.335868	80.6	111.0	5.0	0.0	
2.6	0.4189853	-0.6572084	9.479841	38.689762	-9.335868	80.6	111.0	5.0	0.0	
2.61	0.4177882	-0.688333	9.419987	38.689762	-9.335868	80.6	111.0	5.0	0.0	
2.62	0.37828386	-0.6356605	9.376891	38.689762	-9.335868	80.6	111.0	5.0	0.0	
2.63	0.2861071	-0.51116204	9.2787285	38.689762	-9.335868	80.6	111.0	5.0	0.0	
2.64	0.11492168	-0.37469256	9.228451	38.689762	-9.335868	80.6	111.0	5.0	0.0	
2.65	-0.039504327	-0.2681506	9.291897	38.689762	-9.335868	80.6	111.0	5.0	0.0	
2.66	-0.14963761	-0.21906945	9.470264	38.689762	-9.335868	80.6	111.0	5.0	0.0	
2.67	-0.14844051	-0.21787235	9.722853	38.689762	-9.335868	80.6	111.0	5.0	0.0	
2.68	0.015562311	-0.18435353	10.023325	38.689762	-9.335868	80.6	111.0	5.0	0.0	
2.69	0.1388637	-0.12090719	9.953894	38.689762	-9.335868	80.6	111.0	5.0	0.0	
2.7	0.2693477	-0.08619126	9.858126	38.689762	-9.335868	80.6	111.0	5.0	0.0	
2.71	0.3878607	-0.076614454	9.800665	38.689762	-9.335868	80.6	111.0	5.0	0.0	
2.72	0.46088383	-0.107739076	9.788693	38.689762	-9.335868	80.6	111.0	5.0	0.0	
2.73	0.46686932	-0.17956513	9.775525	38.689762	-9.335868	80.6	111.0	5.0	0.0	
2.74	0.41060558	-0.2837129	9.743204	38.689762	-9.335868	80.6	111.0	5.0	0.0	
2.75	0.29568392	-0.36391866	9.680955	38.689762	-9.335868	80.6	111.0	5.0	0.0	
2.7600000000000002	0.17477672	-0.39743748	9.625888	38.689762	-9.335868	80.6	111.0	5.0	0.0	
2.77	0.06584055	-0.39624038	9.570822	38.689762	-9.335868	80.6	111.0	5.0	0.0	
2.7800000000000002	-0.022744916	-0.35913026	9.4535055	38.689762	-9.335868	80.6	111.0	5.0	0.0	
2.79	-0.073023155	-0.33997664	9.352949	38.689762	-9.335868	80.6	111.0	5.0	0.0	
2.8000000000000003	-0.075417355	-0.33518824	9.307459	38.689762	-9.335868	80.6	111.0	5.0	0.0	
2.81	-0.03232172	-0.34117374	9.36492	38.689762	-9.335868	80.6	111.0	5.0	0.0	
2.82	0.023942016	-0.36631286	9.481039	38.689762	-9.335868	80.6	111.0	5.0	0.0	
2.83	0.107739076	-0.38307226	9.566033	38.689762	-9.335868	80.6	111.0	5.0	0.0	
2.84	0.22505496	-0.37948096	9.652225	38.689762	-9.335868	80.6	111.0	5.0	0.0	
2.85	0.33039984	-0.34356794	9.714474	38.689762	-9.335868	80.6	111.0	5.0	0.0	
2.86	0.39983168	-0.29328972	9.7240505	38.689762	-9.335868	80.6	111.0	5.0	0.0	
2.87	0.4213795	-0.21428105	9.692925	38.689762	-9.335868	80.6	111.0	5.0	0.0	
2.88	0.3854665	-0.16280572	9.719262	38.689762	-9.335868	80.6	111.0	5.0	0.0	
2.89	0.32561144	-0.1364695	9.7719345	38.689762	-9.335868	80.6	111.0	5.0	0.0	
2.9	0.23104046	-0.1376666	9.816227	38.689762	-9.335868	80.6	111.0	5.0	0.0	
2.91	0.1376666	-0.18076223	9.758766	38.689762	-9.335868	80.6	111.0	5.0	0.0	
2.92	0.055066638	-0.19393034	9.781511	38.689762	-9.335868	80.6	111.0	5.0	0.0	
2.93	-0.005985504	-0.22625206	9.726444	38.689762	-9.335868	80.6	111.0	5.0	0.0	
2.94	-0.02633622	-0.25857377	9.680955	38.689762	-9.335868	80.6	111.0	5.0	0.0	
2.95	0.0011971008	-0.2765303	9.586384	38.689762	-9.335868	80.6	111.0	5.0	0.0	
2.96	0.045489833	-0.30166942	9.518148	38.689762	-9.335868	80.6	111.0	5.0	0.0	
2.97	0.11971009	-0.35194764	9.43076	38.689762	-9.335868	80.6	111.0	5.0	0.0	
2.98	0.17836803	-0.3878607	9.425972	38.689762	-9.335868	80.6	111.0	5.0	0.0	
2.99	0.24181437	-0.4225766	9.4535055	38.689762	-9.335868	80.6	111.0	5.0	0.0	
3.0	0.29807812	-0.4357447	9.51336	38.689762	-9.335868	80.6	111.0	5.0	0.0	
3.0100000000000002	0.30406362	-0.439336	9.564836	38.689762	-9.335868	80.6	111.0	5.0	0.0	
3.02	0.29688102	-0.40102878	9.579201	38.689762	-9.335868	80.6	111.0	5.0	0.0	
3.0300000000000002	0.25977087	-0.32561144	9.591172	38.689762	-9.335868	80.6	111.0	5.0	0.0	
3.04	0.21188685	-0.25857377	9.604341	38.689762	-9.335868	80.6	111.0	5.0	0.0	
3.0500000000000003	0.15682021	-0.19991584	9.637859	38.689762	-9.335868	80.6	111.0	5.0	0.0	
3.06	0.10055647	-0.16879122	9.707291	38.689762	-9.335868	80.6	118.0	5.0	0.0	
3.0700000000000003	0.06584055	-0.15442601	9.751583	38.689762	-9.335868	80.6	118.0	5.0	0.0	
3.08	0.062249243	-0.1604115	9.783905	38.689762	-9.335868	80.6	118.0	5.0	0.0	
3.09	0.06943185	-0.17956513	9.807847	38.689762	-9.335868	80.6	118.0	5.0	0.0	
3.1	0.09696517	-0.20829555	9.7719345	38.689762	-9.335868	80.6	118.0	5.0	0.0	
3.11	0.1388637	-0.22505496	9.726444	38.689762	-9.335868	80.6	118.0	5.0	0.0	
3.12	0.17238252	-0.22744916	9.702502	38.689762	-9.335868	80.6	118.0	5.0	0.0	
3.13	0.21667525	-0.2621651	9.629479	38.689762	-9.335868	80.6	118.0	5.0	0.0	
3.14	0.24540567	-0.30406362	9.52174	38.689762	-9.335868	80.6	118.0	5.0	0.0	
3.15	0.25019407	-0.36391866	9.507375	38.689762	-9.335868	80.6	118.0	5.0	0.0	
3.16	0.21547815	-0.38187516	9.520543	38.689762	-9.335868	80.6	118.0	5.0	0.0	
3.17	0.21547815	-0.38187516	9.520543	38.689762	-9.335868	80.6	118.0	5.0	0.0	
3.18	0.14963761	-0.34955344	9.515755	38.689762	-9.335868	80.6	118.0	5.0	0.0	
3.19	0.11851298	-0.34955344	9.515755	38.689762	-9.335868	80.6	118.0	5.0	0.0	
3.2	0.10534488	-0.31004912	9.540894	38.689762	-9.335868	80.6	118.0	5.0	0.0	
3.21	0.08738836	-0.2789245	9.591172	38.689762	-9.335868	80.6	118.0	5.0	0.0	
3.22	0.093373865	-0.24660277	9.639056	38.689762	-9.335868	80.6	118.0	5.0	0.0	
3.23	0.10534488	-0.22744916	9.680955	38.689762	-9.335868	80.6	118.0	5.0	0.0	
3.24	0.1316811	-0.22026655	9.709685	38.689762	-9.335868	80.6	118.0	5.0	0.0	
3.25	0.16160862	-0.21188685	9.728839	38.689762	-9.335868	80.6	118.0	5.0	0.0	
3.2600000000000002	0.18674773	-0.21906945	9.7324295	38.689762	-9.335868	80.6	118.0	5.0	0.0	
3.27	0.21188685	-0.22266077	9.721656	38.689762	-9.335868	80.6	118.0	5.0	0.0	
3.2800000000000002	0.22984336	-0.22385786	9.692925	38.689762	-9.335868	80.6	118.0	5.0	0.0	
3.29	0.23702596	-0.23942018	9.698911	38.689762	-9.335868	80.6	118.0	5.0	0.0	
3.3000000000000003	0.21667525	-0.25498247	9.67018	38.689762	-9.335868	80.6	118.0	5.0	0.0	
3.31	0.20590134	-0.2861071	9.633071	38.689762	-9.335868	80.6	118.0	5.0	0.0	
3.3200000000000003	0.18195933	-0.30047232	9.607931	38.689762	-9.335868	80.6	118.0	5.0	0.0	
3.33	0.15682021	-0.30885202	9.594764	38.689762	-9.335868	80.6	118.0	5.0	0.0	
3.34	0.15083471	-0.3184288	9.581595	38.689762	-9.335868	80.6	118.0	5.0	0.0	
3.35	0.12330139	-0.3172317	9.551667	38.689762	-9.335868	80.6	118.0	5.0	0.0	
3.36	0.12210429	-0.3184288	9.53012	38.689762	-9.335868	80.6	118.0	5.0	0.0	
3.37	0.12330139	-0.33758244	9.536105	38.689762	-9.335868	80.6	118.0	5.0	0.0	
3.38	0.1328782	-0.33279404	9.548077	38.689762	-9.335868	80.6	118.0	5.0	0.0	
3.39	0.14844051	-0.32800564	9.566033	38.689762	-9.335868	80.6	118.0	5.0	0.0	
3.4	0.15801731	-0.32561144	9.615114	38.689762	-9.335868	80.6	118.0	5.0	0.0	
3.41	0.16400282	-0.29568392	9.645041	38.689762	-9.335868	80.6	118.0	5.0	0.0	
3.42	0.18076223	-0.2621651	9.654618	38.689762	-9.335868	80.6	118.0	5.0	0.0	
3.43	0.18076223	-0.24660277	9.671378	38.689762	-9.335868	80.6	118.0	5.0	0.0	
3.44	0.18315643	-0.21188685	9.7324295	38.689762	-9.335868	80.6	118.0	5.0	0.0	
3.45	0.19752164	-0.19632454	9.762358	38.689762	-9.335868	80.6	118.0	5.0	0.0	
3.46	0.19991584	-0.18195933	9.763555	38.689762	-9.335868	80.6	118.0	5.0	0.0	
3.47	0.19153613	-0.17717093	9.751583	38.689762	-9.335868	80.6	118.0	5.0	0.0	
3.48	0.19273324	-0.20829555	9.746795	38.689762	-9.335868	80.6	118.0	5.0	0.0	
3.49	0.19752164	-0.22984336	9.714474	38.689762	-9.335868	80.6	118.0	5.0	0.0	
3.5	0.19991584	-0.2681506	9.660604	38.689762	-9.335868	80.6	118.0	5.0	0.0	
3.5100000000000002	0.19033903	-0.30765492	9.598354	38.689762	-9.335868	80.6	118.0	5.0	0.0	
3.52	0.17477672	-0.33518824	9.540894	38.689762	-9.335868	80.6	118.0	5.0	0.0	
3.5300000000000002	0.15801731	-0.35913026	9.488221	38.689762	-9.335868	80.6	118.0	5.0	0.0	
3.54	0.14604631	-0.3854665	9.435549	38.689762	-9.335868	80.6	118.0	5.0	0.0	
3.5500000000000003	0.142455	-0.41180268	9.437943	38.689762	-9.335868	80.6	118.0	5.0	0.0	
3.56	0.12928689	-0.4189853	9.455899	38.689762	-9.335868	80.6	118.0	5.0	0.0	
3.5700000000000003	0.12569559	-0.40821138	9.491813	38.689762	-9.335868	80.6	118.0	5.0	0.0	
3.58	0.11133038	-0.37708676	9.524135	38.689762	-9.335868	80.6	118.0	5.0	0.0	
3.59	0.11492168	-0.35553896	9.5492735	38.689762	-9.335868	80.6	118.0	5.0	0.0	
3.6	0.12330139	-0.29568392	9.585187	38.689762	-9.335868	80.6	118.0	5.0	0.0	
3.61	0.17357962	-0.25857377	9.636662	38.689762	-9.335868	80.6	118.0	5.0	0.0	
3.62	0.18794483	-0.20709845	9.718064	38.689762	-9.335868	80.6	118.0	5.0	0.0	
3.63	0.19871874	-0.20829555	9.739613	38.689762	-9.335868	80.6	118.0	5.0	0.0	
3.64	0.22266077	-0.22266077	9.744401	38.689762	-9.335868	80.6	118.0	5.0	0.0	
3.65	0.22625206	-0.23104046	9.757569	38.689762	-9.335868	80.6	118.0	5.0	0.0	
3.66	0.22266077	-0.25019407	9.734824	38.689762	-9.335868	80.6	118.0	5.0	0.0	
3.67	0.21308395	-0.2669535	9.680955	38.689762	-9.335868	80.6	118.0	5.0	0.0	
3.68	0.19871874	-0.2813187	9.625888	38.689762	-9.335868	80.6	118.0	5.0	0.0	
3.69	0.18076223	-0.30166942	9.587581	38.689762	-9.335868	80.6	118.0	5.0	0.0	
3.7	0.1604115	-0.32561144	9.5492735	38.689762	-9.335868	80.6	118.0	5.0	0.0	
3.71	0.130484	-0.34356794	9.536105	38.689762	-9.335868	80.6	118.0	5.0	0.0	
3.72	0.12808979	-0.36511576	9.487024	38.689762	-9.335868	80.6	118.0	5.0	0.0	
3.73	0.095768064	-0.36391866	9.489418	38.689762	-9.335868	80.6	118.0	5.0	0.0	
3.74	0.10295067	-0.37828386	9.496601	38.689762	-9.335868	80.6	118.0	5.0	0.0	
3.75	0.110133275	-0.36032736	9.54209	38.689762	-9.335868	80.6	118.0	5.0	0.0	
3.7600000000000002	0.12569559	-0.35075054	9.543288	38.689762	-9.335868	80.6	118.0	5.0	0.0	
3.77	0.1352724	-0.3172317	9.615114	38.689762	-9.335868	80.6	118.0	5.0	0.0	
3.7800000000000002	0.16280572	-0.2885013	9.7324295	38.689762	-9.335868	80.6	118.0	5.0	0.0	
3.79	0.18315643	-0.23942018	9.707291	38.689762	-9.335868	80.6	118.0	5.0	0.0	
3.8000000000000003	0.18435353	-0.19512744	9.714474	38.689762	-9.335868	80.6	118.0	5.0	0.0	
3.81	0.21188685	-0.18555063	9.689334	38.689762	-9.335868	80.6	118.0	5.0	0.0	
3.8200000000000003	0.24779987	-0.19273324	9.701305	38.689762	-9.335868	80.6	118.0	5.0	0.0	
3.83	0.25258827	-0.22026655	9.716867	38.689762	-9.335868	80.6	118.0	5.0	0.0	
3.84	0.22984336	-0.2645593	9.698911	38.689762	-9.335868	80.6	118.0	5.0	0.0	
3.85	0.19273324	-0.30047232	9.67018	38.689762	-9.335868	80.6	118.0	5.0	0.0	
3.86	0.16519992	-0.33039984	9.64983	38.689762	-9.335868	80.6	118.0	5.0	0.0	
3.87	0.16280572	-0.33279404	9.607931	38.689762	-9.335868	80.6	118.0	5.0	0.0	
3.88	0.16160862	-0.33638534	9.5492735	38.689762	-9.335868	80.6	118.0	5.0	0.0	
3.89	0.1352724	-0.34356794	9.497798	38.689762	-9.335868	80.6	118.0	5.0	0.0	
3.9	0.11731588	-0.33159694	9.479841	38.689762	-9.335868	80.6	118.0	5.0	0.0	
3.91	0.094570965	-0.32441434	9.508572	38.689762	-9.335868	80.6	118.0	5.0	0.0	
3.92	0.11372458	-0.33399114	9.545682	38.689762	-9.335868	80.6	118.0	5.0	0.0	
3.93	0.1328782	-0.34596214	9.569624	38.689762	-9.335868	80.6	118.0	5.0	0.0	
3.94	0.15442601	-0.34715924	9.594764	38.689762	-9.335868	80.6	118.0	5.0	0.0	
3.95	0.17836803	-0.320823	9.624691	38.689762	-9.335868	80.6	118.0	5.0	0.0	
3.96	0.19632454	-0.30645782	9.636662	38.689762	-9.335868	80.6	118.0	5.0	0.0	
3.97	0.20709845	-0.2633622	9.628283	38.689762	-9.335868	80.6	118.0	5.0	0.0	
3.98	0.21787235	-0.23822308	9.633071	38.689762	-9.335868	80.6	118.0	5.0	0.0	
3.99	0.23223756	-0.22625206	9.664195	38.689762	-9.335868	80.6	118.0	5.0	0.0	
4.0	0.22505496	-0.23223756	9.704897	38.689762	-9.335868	80.6	118.0	5.0	0.0	
4.01	0.19991584	-0.25498247	9.709685	38.689762	-9.335868	80.6	118.0	5.0	0.0	
4.0200000000000005	0.17597382	-0.2861071	9.710882	38.689762	-9.335868	80.6	118.0	5.0	0.0	
4.03	0.1352724	-0.2753332	9.65821	38.689762	-9.335868	80.6	118.0	5.0	0.0	
4.04	0.11611878	-0.2753332	9.57561	38.689762	-9.335868	80.6	118.0	5.0	0.0	
4.05	0.1388637	-0.29448682	9.522937	38.689762	-9.335868	80.6	118.0	5.0	0.0	
4.0600000000000005	0.15322891	-0.32321724	9.5971575	38.689762	-9.335868	80.6	118.0	5.0	0.0	
4.07	0.12928689	-0.35553896	9.617508	38.689762	-9.335868	80.6	118.0	5.0	0.0	
4.08	0.12928689	-0.36511576	9.617508	38.689762	-9.335868	80.6	118.0	5.0	0.0	
4.09	0.1436521	-0.31364042	9.582792	38.689762	-9.335868	80.6	118.0	5.0	0.0	
4.1	0.19273324	-0.2873042	9.574412	38.689762	-9.335868	80.6	118.0	5.0	0.0	
4.11	0.22026655	-0.2693477	9.5732155	38.689762	-9.335868	80.6	118.0	5.0	0.0	
4.12	0.20111294	-0.2633622	9.578004	38.689762	-9.335868	80.6	118.0	5.0	0.0	
4.13	0.17118542	-0.2813187	9.616311	38.689762	-9.335868	80.6	118.0	5.0	0.0	
4.14	0.16280572	-0.29688102	9.676167	38.689762	-9.335868	80.6	118.0	5.0	0.0	
4.15	0.17477672	-0.30406362	9.697714	38.689762	-9.335868	80.6	118.0	5.0	0.0	
4.16	0.17477672	-0.30406362	9.697714	38.689762	-9.335868	80.6	118.0	5.0	0.0	
4.17	0.18914193	-0.23942018	9.643845	38.689762	-9.335868	80.6	118.0	5.0	0.0	
4.18	0.18914193	-0.23942018	9.643845	38.689762	-9.335868	80.6	118.0	5.0	0.0	
4.19	0.1364695	-0.20709845	9.600749	38.689762	-9.335868	80.6	118.0	5.0	0.0	
4.2	0.1400608	-0.22505496	9.569624	38.689762	-9.335868	80.6	118.0	5.0	0.0	
4.21	0.15682021	-0.2621651	9.609129	38.689762	-9.335868	80.6	118.0	5.0	0.0	
4.22	0.16879122	-0.29927522	9.65821	38.689762	-9.335868	80.6	118.0	5.0	0.0	
4.23	0.17717093	-0.33279404	9.66659	38.689762	-9.335868	80.6	118.0	5.0	0.0	
4.24	0.15562311	-0.34356794	9.628283	38.689762	-9.335868	80.6	118.0	5.0	0.0	
4.25	0.15682021	-0.33518824	9.566033	38.689762	-9.335868	80.6	118.0	5.0	0.0	
4.26	0.17477672	-0.32561144	9.53012	38.689762	-9.335868	80.6	118.0	5.0	0.0	
4.2700000000000005	0.19752164	-0.31004912	9.5013895	38.689762	-9.335868	80.6	118.0	5.0	0.0	
4.28	0.20829555	-0.32561144	9.494206	38.689762	-9.335868	80.6	118.0	5.0	0.0	
4.29	0.18076223	-0.33518824	9.537302	38.689762	-9.335868	80.6	118.0	5.0	0.0	
4.3	0.16280572	-0.33997664	9.5732155	38.689762	-9.335868	80.6	118.0	5.0	0.0	
4.3100000000000005	0.1436521	-0.32441434	9.625888	38.689762	-9.335868	80.6	118.0	5.0	0.0	
4.32	0.14844051	-0.31124622	9.65821	38.689762	-9.335868	80.6	118.0	5.0	0.0	
4.33	0.16160862	-0.2705448	9.665392	38.689762	-9.335868	80.6	118.0	5.0	0.0	
4.34	0.17118542	-0.23104046	9.655815	38.689762	-9.335868	80.6	118.0	5.0	0.0	
4.3500000000000005	0.16280572	-0.20709845	9.647436	38.689762	-9.335868	80.6	118.0	5.0	0.0	
4.36	0.1592144	-0.20350714	9.657013	38.689762	-9.335868	80.6	118.0	5.0	0.0	
4.37	0.1592144	-0.20350714	9.657013	38.689762	-9.335868	80.6	118.0	5.0	0.0	
4.38	0.17956513	-0.25857377	9.685743	38.689762	-9.335868	80.6	118.0	5.0	0.0	
4.39	0.19393034	-0.30166942	9.685743	38.689762	-9.335868	80.6	118.0	5.0	0.0	
4.4	0.19752164	-0.32800564	9.616311	38.689762	-9.335868	80.6	118.0	5.0	0.0	
4.41	0.19033903	-0.3184288	9.674969	38.689762	-9.335868	80.6	118.0	5.0	0.0	
4.42	0.18555063	-0.30047232	9.548077	38.689762	-9.335868	80.6	118.0	5.0	0.0	
4.43	0.17118542	-0.2896984	9.534908	38.689762	-9.335868	80.6	118.0	5.0	0.0	
4.44	0.17597382	-0.31483752	9.425972	38.689762	-9.335868	80.6	118.0	5.0	0.0	
4.45	0.15203181	-0.33279404	9.483433	38.689762	-9.335868	80.6	118.0	5.0	0.0	
4.46	0.15203181	-0.34596214	9.594764	38.689762	-9.335868	80.6	118.0	5.0	0.0	
4.47	0.12569559	-0.34476504	9.633071	38.689762	-9.335868	80.6	118.0	5.0	0.0	
4.48	0.11851298	-0.3184288	9.634268	38.689762	-9.335868	80.6	118.0	5.0	0.0	
4.49	0.12928689	-0.29448682	9.605537	38.689762	-9.335868	80.6	118.0	5.0	0.0	
4.5	0.15562311	-0.25019407	9.630676	38.689762	-9.335868	80.6	118.0	5.0	0.0	
4.51	0.17238252	-0.22026655	9.639056	38.689762	-9.335868	80.6	118.0	5.0	0.0	
4.5200000000000005	0.17836803	-0.20470424	9.664195	38.689762	-9.335868	80.6	118.0	5.0	0.0	
4.53	0.17597382	-0.21547815	9.68694	38.689762	-9.335868	80.6	118.0	5.0	0.0	
4.54	0.18435353	-0.23942018	9.757569	38.689762	-9.335868	80.6	118.0	5.0	0.0	
4.55	0.19991584	-0.272939	9.734824	38.689762	-9.335868	80.6	118.0	5.0	0.0	
4.5600000000000005	0.17836803	-0.2813187	9.627085	38.689762	-9.335868	80.6	118.0	5.0	0.0	
4.57	0.16519992	-0.2657564	9.586384	38.689762	-9.335868	80.6	118.0	5.0	0.0	
4.58	0.15203181	-0.2693477	9.589975	38.689762	-9.335868	80.6	118.0	5.0	0.0	
4.59	0.15203181	-0.30166942	9.54209	38.689762	-9.335868	80.6	118.0	5.0	0.0	
4.6000000000000005	0.1352724	-0.31244332	9.507375	38.689762	-9.335868	80.6	118.0	5.0	0.0	
4.61	0.1316811	-0.34715924	9.522937	38.689762	-9.335868	80.6	118.0	5.0	0.0	
4.62	0.14963761	-0.36152446	9.64145	38.689762	-9.335868	80.6	118.0	5.0	0.0	
4.63	0.18435353	-0.35793316	9.646238	38.689762	-9.335868	80.6	118.0	5.0	0.0	
4.64	0.20350714	-0.32441434	9.600749	38.689762	-9.335868	80.6	118.0	5.0	0.0	
4.65	0.21428105	-0.28491	9.514558	38.689762	-9.335868	80.6	118.0	5.0	0.0	
4.66	0.22864626	-0.2765303	9.524135	38.689762	-9.335868	80.6	118.0	5.0	0.0	
4.67	0.22744916	-0.2705448	9.568427	38.689762	-9.335868	80.6	118.0	5.0	0.0	
4.68	0.19033903	-0.2861071	9.607931	38.689762	-9.335868	80.6	118.0	5.0	0.0	
4.69	0.16400282	-0.31364042	9.629479	38.689762	-9.335868	80.6	118.0	5.0	0.0	
4.7	0.12090719	-0.31124622	9.643845	38.689762	-9.335868	80.6	118.0	5.0	0.0	
4.71	0.12090719	-0.30885202	9.652225	38.689762	-9.335868	80.6	118.0	5.0	0.0	
4.72	0.11731588	-0.2896984	9.617508	38.689762	-9.335868	80.6	118.0	5.0	0.0	
4.73	0.12808979	-0.2669535	9.570822	38.689762	-9.335868	80.6	118.0	5.0	0.0	
4.74	0.12569559	-0.25857377	9.55885	38.689762	-9.335868	80.6	118.0	5.0	0.0	
4.75	0.1436521	-0.2669535	9.585187	38.689762	-9.335868	80.6	118.0	5.0	0.0	
4.76	0.15442601	-0.29209262	9.621099	38.689762	-9.335868	80.6	118.0	5.0	0.0	
4.7700000000000005	0.16998832	-0.30406362	9.615114	38.689762	-9.335868	80.6	118.0	5.0	0.0	
4.78	0.19033903	-0.32202014	9.636662	38.689762	-9.335868	80.6	118.0	5.0	0.0	
4.79	0.19033903	-0.32202014	9.636662	38.689762	-9.335868	80.6	118.0	5.0	0.0	
4.8	0.19033903	-0.32202014	9.636662	38.689762	-9.335868	80.6	118.0	5.0	0.0	
4.8100000000000005	0.19033903	-0.32202014	9.636662	38.689762	-9.335868	80.6	118.0	5.0	0.0	
4.82	0.20470424	-0.2789245	9.540894	38.689762	-9.335868	80.6	118.0	5.0	0.0	
4.83	0.19273324	-0.2753332	9.536105	38.689762	-9.335868	80.6	118.0	5.0	0.0	
4.84	0.18315643	-0.30765492	9.57561	38.689762	-9.335868	80.6	118.0	5.0	0.0	
4.8500000000000005	0.15203181	-0.31364042	9.629479	38.689762	-9.335868	80.6	118.0	5.0	0.0	
4.86	0.12330139	-0.3196259	9.623494	38.689762	-9.335868	80.6	118.0	5.0	0.0	
4.87	0.107739076	-0.30526072	9.616311	38.689762	-9.335868	80.6	118.0	5.0	0.0	
4.88	0.12808979	-0.2873042	9.592369	38.689762	-9.335868	80.6	118.0	5.0	0.0	
4.89	0.15083471	-0.2789245	9.593566	38.689762	-9.335868	80.6	118.0	5.0	0.0	
4.9	0.17118542	-0.25857377	9.601946	38.689762	-9.335868	80.6	118.0	5.0	0.0	
4.91	0.17118542	-0.272939	9.560047	38.689762	-9.335868	80.6	118.0	5.0	0.0	
4.92	0.16400282	-0.2825158	9.623494	38.689762	-9.335868	80.6	118.0	5.0	0.0	
4.93	0.17956513	-0.30645782	9.64145	38.689762	-9.335868	80.6	118.0	5.0	0.0	
4.94	0.18674773	-0.3172317	9.68694	38.689762	-9.335868	80.6	118.0	5.0	0.0	
4.95	0.20111294	-0.31124622	9.631873	38.689762	-9.335868	80.6	118.0	5.0	0.0	
4.96	0.19991584	-0.30286652	9.599552	38.689762	-9.335868	80.6	118.0	5.0	0.0	
4.97	0.22505496	-0.2801216	9.589975	38.689762	-9.335868	80.6	118.0	5.0	0.0	
4.98	0.22505496	-0.2777274	9.581595	38.689762	-9.335868	80.6	118.0	5.0	0.0	
4.99	0.19752164	-0.2801216	9.585187	38.689762	-9.335868	80.6	118.0	5.0	0.0	
5.0	0.17477672	-0.29927522	9.599552	38.689762	-9.335868	80.6	118.0	5.0	0.0	
5.01	0.14963761	-0.31603462	9.588778	38.689762	-9.335868	80.6	118.0	5.0	0.0	
5.0200000000000005	0.12808979	-0.32800564	9.629479	38.689762	-9.335868	80.6	118.0	5.0	0.0	
5.03	0.10175357	-0.3184288	9.639056	38.689762	-9.335868	80.6	118.0	5.0	0.0	
5.04	0.12689269	-0.2765303	9.574412	38.689762	-9.335868	80.6	118.0	5.0	0.0	
5.05	0.1592144	-0.2765303	9.5492735	38.689762	-9.335868	80.6	118.0	5.0	0.0	
5.0600000000000005	0.17956513	-0.2765303	9.576807	38.689762	-9.335868	80.6	118.0	5.0	0.0	
5.07	0.18794483	-0.29448682	9.581595	38.689762	-9.335868	80.6	118.0	5.0	0.0	
5.08	0.19871874	-0.3172317	9.627085	38.689762	-9.335868	80.6	118.0	5.0	0.0	
5.09	0.19393034	-0.3184288	9.64983	38.689762	-9.335868	80.6	118.0	5.0	0.0	
5.1000000000000005	0.19991584	-0.3172317	9.652225	38.689762	-9.335868	80.6	118.0	5.0	0.0	
5.11	0.19393034	-0.30047232	9.611523	38.689762	-9.335868	80.6	118.0	5.0	0.0	
5.12	0.18195933	-0.29209262	9.56723	38.689762	-9.335868	80.6	118.0	5.0	0.0	
5.13	0.1592144	-0.2873042	9.560047	38.689762	-9.335868	80.6	118.0	5.0	0.0	
5.14	0.15682021	-0.30166942	9.586384	38.689762	-9.335868	80.6	118.0	5.0	0.0	
5.15	0.14844051	-0.35913026	9.625888	38.689762	-9.335868	80.6	119.0	5.0	0.0	
5.16	0.14844051	-0.35913026	9.625888	38.689762	-9.335868	80.6	119.0	5.0	0.0	
5.17	0.7206547	3.0693667	9.704897	38.689762	-9.335868	80.6	119.0	5.0	0.0	
5.18	0.7206547	3.0693667	9.704897	38.689762	-9.335868	80.6	119.0	5.0	0.0	
5.19	2.0111294	3.2812533	9.716867	38.689762	-9.335868	80.6	119.0	5.0	0.0	
5.2	1.3443443	1.5658079	9.758766	38.689762	-9.335868	80.6	119.0	5.0	0.0	
5.21	0.7589619	0.7158663	9.811439	38.689762	-9.335868	80.6	119.0	5.0	0.0	
5.22	0.23942018	0.06584055	9.953894	38.689762	-9.335868	80.6	119.0	5.0	0.0	
5.23	-1.9381063	-1.0295067	9.424775	38.689762	-9.335868	80.6	119.0	5.0	0.0	
5.24	-2.7246015	-1.6448165	8.865729	38.689762	-9.335868	80.6	119.0	5.0	0.0	
5.25	-2.7605145	-2.3127987	10.559627	38.689762	-9.335868	80.6	119.0	5.0	0.0	
5.26	-1.851915	-2.6719291	8.676587	38.689762	-9.335868	80.6	119.0	5.0	0.0	
5.2700000000000005	-1.2114661	-3.0142999	9.606734	38.689762	-9.335868	80.6	119.0	5.0	0.0	
5.28	-1.567005	-3.0573955	9.440337	38.689762	-9.335868	80.6	119.0	5.0	0.0	
5.29	-0.7661445	-2.4384944	9.65821	38.689762	-9.335868	80.6	119.0	5.0	0.0	
5.3	-0.36391866	-1.8698715	9.198523	38.689762	-9.335868	80.6	119.0	5.0	0.0	
5.3100000000000005	-0.30645782	-1.4652514	9.467871	38.689762	-9.335868	80.6	119.0	5.0	0.0	
5.32	-0.21428105	-1.328782	9.520543	38.689762	-9.335868	80.6	119.0	5.0	0.0	
5.33	2.9376855	-1.0247183	10.599131	38.689762	-9.335868	80.6	119.0	5.0	0.0	
5.34	3.2333694	-0.93373865	9.445126	38.689762	-9.335868	80.6	119.0	5.0	0.0	
5.3500000000000005	3.2333694	-0.93373865	9.445126	38.689762	-9.335868	80.6	119.0	5.0	0.0	
5.36	1.246182	-1.2366052	9.526528	38.689762	-9.335868	80.6	119.0	5.0	0.0	
5.37	-0.16160862	-1.0833763	9.77792	38.689762	-9.335868	80.6	119.0	5.0	0.0	
5.38	0.059855044	0.6380547	9.437943	38.689762	-9.335868	80.6	119.0	5.0	0.0	
5.39	0.35793316	0.89064306	9.750386	38.689762	-9.335868	80.6	119.0	5.0	0.0	
5.4	0.29448682	0.5710171	9.610326	38.689762	-9.335868	80.6	119.0	5.0	0.0	
5.41	0.06584055	-0.36870706	9.488221	38.689762	-9.335868	80.6	119.0	5.0	0.0	
5.42	0.08259996	-0.62847793	9.715671	38.689762	-9.335868	80.6	119.0	5.0	0.0	
5.43	0.046686932	-0.65242	9.592369	38.689762	-9.335868	80.6	119.0	5.0	0.0	
5.44	0.20829555	-0.3866636	9.451111	38.689762	-9.335868	80.6	119.0	5.0	0.0	
5.45	0.2896984	0.23463176	9.57561	38.689762	-9.335868	80.6	119.0	5.0	0.0	
5.46	0.12569559	-0.62488663	9.694122	38.689762	-9.335868	80.6	119.0	5.0	0.0	
5.47	0.18195933	-1.3204023	9.348161	38.689762	-9.335868	80.6	119.0	5.0	0.0	
5.48	0.50637364	-1.0737995	9.782708	38.689762	-9.335868	80.6	119.0	5.0	0.0	
5.49	0.12449849	-0.93493575	9.471462	38.689762	-9.335868	80.6	119.0	5.0	0.0	
5.5	0.6715736	-0.23702596	9.514558	38.689762	-9.335868	80.6	119.0	5.0	0.0	
5.51	0.92416185	0.5291186	9.044097	38.689762	-9.335868	80.6	119.0	5.0	0.0	
5.5200000000000005	1.2916719	0.8714894	9.785102	38.689762	-9.335868	80.6	119.0	5.0	0.0	
5.53	0.878672	0.92655605	9.765948	38.689762	-9.335868	80.6	119.0	5.0	0.0	
5.54	0.24301147	-0.16519992	9.940725	38.689762	-9.335868	80.6	119.0	5.0	0.0	
5.55	0.2633622	-0.78888947	9.629479	38.689762	-9.335868	80.6	119.0	5.0	0.0	
5.5600000000000005	0.9840169	-0.36272156	9.633071	38.689762	-9.335868	80.6	119.0	5.0	0.0	
5.57	0.10414778	-1.3227965	9.562442	38.689762	-9.335868	80.6	119.0	5.0	0.0	
5.58	-0.8655039	-1.2174516	9.5971575	38.689762	-9.335868	80.6	119.0	5.0	0.0	
5.59	-0.58897364	0.5482722	9.623494	38.689762	-9.335868	80.6	119.0	5.0	0.0	
5.6000000000000005	-1.3299791	-0.45609543	9.476251	38.689762	-9.335868	80.6	119.0	5.0	0.0	
5.61	-1.0869676	-1.2114661	9.615114	38.689762	-9.335868	80.6	119.0	5.0	0.0	
5.62	-0.4441244	-0.59974754	9.589975	38.689762	-9.335868	80.6	119.0	5.0	0.0	
5.63	-0.19752164	-0.35793316	9.609129	38.689762	-9.335868	80.6	119.0	5.0	0.0	
5.64	0.31603462	-0.08379706	9.622296	38.689762	-9.335868	80.6	119.0	5.0	0.0	
5.65	0.5363012	0.30765492	9.615114	38.689762	-9.335868	80.6	119.0	5.0	0.0	
5.66	0.80325466	0.82121116	9.627085	38.689762	-9.335868	80.6	119.0	5.0	0.0	
5.67	1.1408371	1.8794483	9.634268	38.689762	-9.335868	80.6	119.0	5.0	0.0	
5.68	0.22864626	2.3056161	9.65821	38.689762	-9.335868	80.6	119.0	5.0	0.0	
5.69	-0.9720459	0.50757074	9.646238	38.689762	-9.335868	80.6	119.0	5.0	0.0	
5.7	-0.4297592	-0.33399114	9.561244	38.689762	-9.335868	80.6	119.0	5.0	0.0	
5.71	0.142455	-1.3239936	9.578004	38.689762	-9.335868	80.6	119.0	5.0	0.0	
5.72	0.8571242	-0.830788	9.496601	38.689762	-9.335868	80.6	119.0	5.0	0.0	
5.73	1.2258313	0.19153613	9.600749	38.689762	-9.335868	80.6	119.0	5.0	0.0	
5.74	1.1935096	0.021547815	9.710882	38.689762	-9.335868	80.6	119.0	5.0	0.0	
5.75	1.2785037	-0.7697359	9.7863	38.689762	-9.335868	80.6	119.0	5.0	0.0	
5.76	1.6747441	0.25617957	9.829395	38.689762	-9.335868	80.6	119.0	5.0	0.0	
5.7700000000000005	2.100912	0.6955156	9.69532	38.689762	-9.335868	80.6	119.0	5.0	0.0	
5.78	2.7868507	-0.16998832	9.405622	38.689762	-9.335868	80.6	119.0	5.0	0.0	
5.79	3.8654387	0.08140286	9.130288	38.689762	-9.335868	80.6	119.0	5.0	0.0	
5.8	4.349067	0.02873042	8.625112	38.689762	-9.335868	80.6	119.0	5.0	0.0	
5.8100000000000005	3.751714	-0.1592144	8.731653	38.689762	-9.335868	80.6	119.0	5.0	0.0	
5.82	2.6120741	-0.19991584	8.978256	38.689762	-9.335868	80.6	119.0	5.0	0.0	
5.83	1.9093759	-0.6739678	9.148245	38.689762	-9.335868	80.6	119.0	5.0	0.0	
5.84	2.4492683	-0.5566519	8.972271	38.689762	-9.335868	80.6	119.0	5.0	0.0	
5.8500000000000005	2.7856536	-0.36032736	8.911219	38.689762	-9.335868	80.6	119.0	5.0	0.0	
5.86	3.2154129	-1.7944542	9.062054	38.689762	-9.335868	80.6	119.0	5.0	0.0	
5.87	4.177882	-1.8231846	8.89446	38.689762	-9.335868	80.6	119.0	5.0	0.0	
5.88	3.5338416	-1.0953473	9.1255	38.689762	-9.335868	80.6	119.0	5.0	0.0	
5.89	2.7341783	-0.15322891	9.372103	38.689762	-9.335868	80.6	119.0	5.0	0.0	
5.9	2.5965118	-0.45848963	9.3421755	38.689762	-9.335868	80.6	119.0	5.0	0.0	
5.91	3.3913867	-1.1563994	9.057265	38.689762	-9.335868	80.6	119.0	5.0	0.0	
5.92	3.8295257	-0.61171854	8.836999	38.689762	-9.335868	80.6	119.0	5.0	0.0	
5.93	2.9999347	-1.0366893	9.132683	38.689762	-9.335868	80.6	119.0	5.0	0.0	
5.94	2.955642	-1.0606314	9.229648	38.689762	-9.335868	80.6	119.0	5.0	0.0	
5.95	3.016694	-0.19871874	9.23683	38.689762	-9.335868	80.6	119.0	5.0	0.0	
5.96	3.0454245	-0.005985504	9.357738	38.689762	-9.335868	80.6	119.0	5.0	0.0	
5.97	3.2118216	-0.08379706	9.208099	38.689762	-9.335868	80.6	119.0	5.0	0.0	
5.98	2.930503	-0.33039984	9.314642	38.689762	-9.335868	80.6	119.0	5.0	0.0	
5.99	1.9333179	-1.0630256	9.412804	38.689762	-9.335868	80.6	119.0	5.0	0.0	
6.0	1.8267759	-1.1145009	9.367314	38.689762	-9.335868	80.6	119.0	5.0	0.0	
6.01	2.0518308	-0.7266402	9.31943	38.689762	-9.335868	80.6	119.0	5.0	0.0	
6.0200000000000005	2.3678656	-0.39624038	9.228451	38.689762	-9.335868	80.6	119.0	5.0	0.0	
6.03	2.5187001	-0.60333884	9.186552	38.689762	-9.335868	80.6	119.0	5.0	0.0	
6.04	2.5510218	-0.8487445	9.255983	38.689762	-9.335868	80.6	119.0	5.0	0.0	
6.05	2.5617957	-0.7326257	9.28232	38.689762	-9.335868	80.6	119.0	5.0	0.0	
6.0600000000000005	2.4887726	-0.3842694	9.337387	38.689762	-9.335868	80.6	119.0	5.0	0.0	
6.07	2.7042508	-0.24660277	9.281123	38.689762	-9.335868	80.6	119.0	5.0	0.0	
6.08	2.822764	-0.15682021	9.227253	38.689762	-9.335868	80.6	119.0	5.0	0.0	
6.09	2.9233203	0.02633622	9.238028	38.689762	-9.335868	80.6	119.0	5.0	0.0	
6.1000000000000005	2.9005754	0.17357962	9.307459	38.689762	-9.335868	80.6	112.0	5.0	0.0	
6.11	2.7114334	-0.4249708	9.340978	38.689762	-9.335868	80.6	112.0	5.0	0.0	
6.12	2.5115175	-1.1935096	9.409213	38.689762	-9.335868	80.6	112.0	5.0	0.0	
6.13	2.8981812	-1.271321	9.202114	38.689762	-9.335868	80.6	112.0	5.0	0.0	
6.140000000000001	3.2920272	-1.1815386	9.119514	38.689762	-9.335868	80.6	112.0	5.0	0.0	
6.15	3.716998	-0.92895025	8.908825	38.689762	-9.335868	80.6	112.0	5.0	0.0	
6.16	3.716998	-0.92895025	8.908825	38.689762	-9.335868	80.6	112.0	5.0	0.0	
6.17	3.716998	-0.92895025	8.908825	38.689762	-9.335868	80.6	112.0	5.0	0.0	
6.18	3.539827	0.7673417	9.0716305	38.689762	-9.335868	80.6	112.0	5.0	0.0	
6.19	2.6443958	0.035913024	9.4535055	38.689762	-9.335868	80.6	112.0	5.0	0.0	
6.2	2.1200657	-0.38067806	9.910798	38.689762	-9.335868	80.6	112.0	5.0	0.0	
6.21	2.0111294	-0.82240826	10.1861315	38.689762	-9.335868	80.6	112.0	5.0	0.0	
6.22	2.3355439	-0.8391677	10.617087	38.689762	-9.335868	80.6	112.0	5.0	0.0	
6.23	2.858677	-0.7110779	11.226412	38.689762	-9.335868	80.6	112.0	5.0	0.0	
6.24	2.9987376	-0.56982	11.309011	38.689762	-9.335868	80.6	112.0	5.0	0.0	
6.25	3.0370448	-0.12569559	10.724827	38.689762	-9.335868	80.6	112.0	5.0	0.0	
6.26	2.6204538	0.019153614	9.929952	38.689762	-9.335868	80.6	112.0	5.0	0.0	
6.2700000000000005	2.1523874	0.009576807	9.561244	38.689762	-9.335868	80.6	112.0	5.0	0.0	
6.28	1.9285295	-0.0011971008	9.161413	38.689762	-9.335868	80.6	112.0	5.0	0.0	
6.29	1.6651673	0.0047884034	9.138668	38.689762	-9.335868	80.6	112.0	5.0	0.0	
6.3	1.6364368	0.044292733	8.659827	38.689762	-9.335868	80.6	112.0	5.0	0.0	
6.3100000000000005	1.8495208	0.015562311	8.498219	38.689762	-9.335868	80.6	112.0	5.0	0.0	
6.32	2.385822	-0.2896984	8.834604	38.689762	-9.335868	80.6	112.0	5.0	0.0	
6.33	2.2242134	-1.1324574	9.740809	38.689762	-9.335868	80.6	112.0	5.0	0.0	
6.34	2.5019407	-0.92416185	7.501034	38.689762	-9.335868	80.6	112.0	5.0	0.0	
6.3500000000000005	2.6420016	-0.18555063	7.884106	38.689762	-9.335868	80.6	112.0	5.0	0.0	
6.36	2.8000188	0.37828386	8.244433	38.689762	-9.335868	80.6	112.0	5.0	0.0	
6.37	2.9759927	0.581791	9.085996	38.689762	-9.335868	80.6	112.0	5.0	0.0	
6.38	3.0897174	0.48362875	9.774328	38.689762	-9.335868	80.6	112.0	5.0	0.0	
6.390000000000001	3.3028011	0.20590134	9.8677025	38.689762	-9.335868	80.6	112.0	5.0	0.0	
6.4	3.3722332	0.20350714	9.490616	38.689762	-9.335868	80.6	112.0	5.0	0.0	
6.41	3.1783028	0.581791	9.239224	38.689762	-9.335868	80.6	112.0	5.0	0.0	
6.42	2.8083985	0.724246	9.605537	38.689762	-9.335868	80.6	112.0	5.0	0.0	
6.43	2.2840683	0.59495914	10.260351	38.689762	-9.335868	80.6	112.0	5.0	0.0	
6.44	2.135628	0.6943185	10.180145	38.689762	-9.335868	80.6	112.0	5.0	0.0	
6.45	2.0398598	0.6979098	9.495404	38.689762	-9.335868	80.6	112.0	5.0	0.0	
6.46	2.1691468	0.90381116	8.37372	38.689762	-9.335868	80.6	112.0	5.0	0.0	
6.47	2.2840683	0.9888053	8.036138	38.689762	-9.335868	80.6	112.0	5.0	0.0	
6.48	2.2900538	0.9624691	8.312668	38.689762	-9.335868	80.6	112.0	5.0	0.0	
6.49	2.2828712	0.93493575	8.576031	38.689762	-9.335868	80.6	112.0	5.0	0.0	
6.5	2.2290018	0.91578215	8.516175	38.689762	-9.335868	80.6	112.0	5.0	0.0	
6.51	2.2266076	0.89423436	8.359355	38.689762	-9.335868	80.6	112.0	5.0	0.0	
6.5200000000000005	2.2625206	0.8678981	8.497022	38.689762	-9.335868	80.6	112.0	5.0	0.0	
6.53	2.3762453	0.8678981	8.655039	38.689762	-9.335868	80.6	112.0	5.0	0.0	
6.54	2.5103204	0.8702923	8.829816	38.689762	-9.335868	80.6	112.0	5.0	0.0	
6.55	2.6683378	0.8343793	9.081207	38.689762	-9.335868	80.6	112.0	5.0	0.0	
6.5600000000000005	2.8634653	0.82240826	9.178172	38.689762	-9.335868	80.6	112.0	5.0	0.0	
6.57	2.9975405	0.8619126	9.174581	38.689762	-9.335868	80.6	112.0	5.0	0.0	
6.58	3.072958	0.8523358	9.109938	38.689762	-9.335868	80.6	112.0	5.0	0.0	
6.59	3.0023289	0.8343793	9.070433	38.689762	-9.335868	80.6	112.0	5.0	0.0	
6.6000000000000005	2.8275523	0.81881696	8.990228	38.689762	-9.335868	80.6	112.0	5.0	0.0	
6.61	2.645593	0.79846627	8.971074	38.689762	-9.335868	80.6	112.0	5.0	0.0	
6.62	2.554613	0.62847793	9.081207	38.689762	-9.335868	80.6	112.0	5.0	0.0	
6.63	2.5258827	0.4249708	9.14585	38.689766	-9.335868	80.6	112.0	5.0	0.0	
6.640000000000001	2.7820623	0.51475334	9.23683	38.689766	-9.335868	80.6	112.0	5.0	0.0	
6.65	3.071761	0.5734113	9.260772	38.689766	-9.335868	80.6	112.0	5.0	0.0	
6.66	3.3195608	0.5327099	9.270349	38.689766	-9.335868	80.6	112.0	5.0	0.0	
6.67	3.6750996	0.5530606	9.69532	38.689766	-9.335868	80.6	112.0	5.0	0.0	
6.68	3.7361517	0.5506664	10.041282	38.689766	-9.335868	80.6	112.0	5.0	0.0	
6.69	3.5541923	0.5746084	10.395624	38.689766	-9.335868	80.6	112.0	5.0	0.0	
6.7	3.2728736	0.50876784	9.903615	38.689766	-9.335868	80.6	112.0	5.0	0.0	
6.71	3.4871547	0.8379706	9.457097	38.689766	-9.335868	80.6	112.0	5.0	0.0	
6.72	3.5685577	0.78529817	9.221268	38.689766	-9.335868	80.6	112.0	5.0	0.0	
6.73	3.5745432	0.6739678	8.945934	38.689766	-9.335868	80.6	112.0	5.0	0.0	
6.74	3.1794999	0.4441244	8.863335	38.689766	-9.335868	80.6	112.0	5.0	0.0	
6.75	2.634819	0.320823	8.990228	38.689766	-9.335868	80.6	112.0	5.0	0.0	
6.76	2.4157495	0.50278234	9.001001	38.689766	-9.335868	80.6	112.0	5.0	0.0	
6.7700000000000005	2.2828712	0.6967127	9.051279	38.689766	-9.335868	80.6	112.0	5.0	0.0	
6.78	2.3092074	0.59615624	9.400833	38.689766	-9.335868	80.6	112.0	5.0	0.0	
6.79	2.4372973	0.4369418	9.691729	38.689766	-9.335868	80.6	112.0	5.0	0.0	
6.8	2.4660277	0.45848963	9.615114	38.689766	-9.335868	80.6	112.0	5.0	0.0	
6.8100000000000005	2.4253263	0.5398925	9.329007	38.689766	-9.335868	80.6	112.0	5.0	0.0	
6.82	2.5833437	0.62608373	8.88608	38.689766	-9.335868	80.6	112.0	5.0	0.0	
6.83	2.8000188	0.62249243	8.485051	38.689766	-9.335868	80.6	112.0	5.0	0.0	
6.84	2.9735985	0.6691794	8.437167	38.689766	-9.335868	80.6	112.0	5.0	0.0	
6.8500000000000005	3.1842883	0.6811504	8.696938	38.689766	-9.335868	80.6	112.0	5.0	0.0	
6.86	3.2213984	0.6667852	8.731653	38.689766	-9.335868	80.6	112.0	5.0	0.0	
6.87	3.2202013	0.60094464	8.924387	38.689766	-9.335868	80.6	112.0	5.0	0.0	
6.88	3.192668	0.45250413	9.436746	38.689766	-9.335868	80.6	112.0	5.0	0.0	
6.890000000000001	3.0933087	0.4177882	9.903615	38.689766	-9.335868	80.6	112.0	5.0	0.0	
6.9	3.039439	0.3890578	10.103531	38.689766	-9.335868	80.6	112.0	5.0	0.0	
6.91	2.9712043	0.4141969	9.868899	38.689766	-9.335868	80.6	112.0	5.0	0.0	
6.92	2.8634653	0.415394	9.539697	38.689766	-9.335868	80.6	112.0	5.0	0.0	
6.93	2.8263552	0.44651863	9.089587	38.689766	-9.335868	80.6	112.0	5.0	0.0	
6.94	2.9053638	0.51834464	8.834604	38.689766	-9.335868	80.6	112.0	5.0	0.0	
6.95	2.9245174	0.59974754	8.688558	38.689766	-9.335868	80.6	112.0	5.0	0.0	
6.96	2.8526914	0.6739678	8.607155	38.689766	-9.335868	80.6	112.0	5.0	0.0	
6.97	2.707842	0.7493851	8.588001	38.689766	-9.335868	80.6	112.0	5.0	0.0	
6.98	2.634819	0.78290397	8.838196	38.689766	-9.335868	80.6	112.0	5.0	0.0	
6.99	2.5905263	0.7254431	9.181764	38.689766	-9.335868	80.6	112.0	5.0	0.0	
7.0	2.574964	0.62488663	9.466674	38.689766	-9.335868	80.6	112.0	5.0	0.0	
7.01	2.7617116	0.5746084	9.935937	38.689766	-9.335868	80.6	112.0	5.0	0.0	
7.0200000000000005	3.0190883	0.59615624	9.901221	38.689766	-9.335868	80.6	112.0	5.0	0.0	
7.03	2.6671407	0.12928689	9.710882	38.689766	-9.335868	80.6	112.0	5.0	0.0	
7.04	2.5139117	0.11372458	9.155427	38.689766	-9.335868	80.6	112.0	5.0	0.0	
7.05	2.7521348	0.58657944	8.713697	38.689766	-9.335868	80.6	112.0	5.0	0.0	
7.0600000000000005	2.7688942	0.62009823	8.506598	38.689766	-9.335868	80.6	112.0	5.0	0.0	
7.07	2.753332	0.46208093	8.736442	38.689766	-9.335868	80.6	112.0	5.0	0.0	
7.08	2.9161377	0.5710171	9.0476885	38.689766	-9.335868	80.6	112.0	5.0	0.0	
7.09	3.072958	0.50637364	9.295488	38.689766	-9.335868	80.6	93.0	5.0	0.0	
7.1000000000000005	3.321955	0.47884035	9.380483	38.689766	-9.335868	80.6	93.0	5.0	0.0	
7.11	3.4703953	0.47405192	9.264363	38.689766	-9.335868	80.6	93.0	5.0	0.0	
7.12	3.4488475	0.4333505	9.074024	38.689766	-9.335868	80.6	93.0	5.0	0.0	
7.13	3.3207579	0.427365	8.992621	38.689766	-9.335868	80.6	93.0	5.0	0.0	
7.140000000000001	3.1962593	0.38067806	9.01776	38.689766	-9.335868	80.6	93.0	5.0	0.0	
7.15	3.1292217	0.34476504	9.233239	38.689766	-9.335868	80.6	93.0	5.0	0.0	
7.16	2.9999347	0.34596214	9.289502	38.689766	-9.335868	80.6	93.0	5.0	0.0	
7.17	2.870648	0.39504328	9.226056	38.689766	-9.335868	80.6	93.0	5.0	0.0	
7.18	2.8048072	0.4225766	9.082404	38.689766	-9.335868	80.6	93.0	5.0	0.0	
7.19	2.718616	0.39624038	9.124303	38.689766	-9.335868	80.6	93.0	5.0	0.0	
7.2	2.6611552	0.37469256	9.218874	38.689766	-9.335868	80.6	93.0	5.0	0.0	
7.21	2.730587	0.37948096	9.31105	38.689766	-9.335868	80.6	93.0	5.0	0.0	
7.22	2.9364884	0.48123455	9.469068	38.689766	-9.335868	80.6	93.0	5.0	0.0	
7.23	3.1304188	0.5482722	9.491813	38.689766	-9.335868	80.6	93.0	5.0	0.0	
7.24	3.1974564	0.5434838	9.346964	38.689766	-9.335868	80.6	93.0	5.0	0.0	
7.25	3.1483753	0.4177882	8.990228	38.689766	-9.335868	80.6	93.0	5.0	0.0	
7.26	2.992752	0.33877954	8.710106	38.689766	-9.335868	80.6	93.0	5.0	0.0	
7.2700000000000005	2.8550856	0.36511576	8.623915	38.689766	-9.335868	80.6	93.0	5.0	0.0	
7.28	2.8802247	0.4189853	8.89805	38.689766	-9.335868	80.6	93.0	5.0	0.0	
7.29	2.814384	0.24899697	9.518148	38.689766	-9.335868	80.6	93.0	5.0	0.0	
7.3	2.7665	0.17357962	9.977836	38.689766	-9.335868	80.6	93.0	5.0	0.0	
7.3100000000000005	2.8562827	0.21787235	9.900024	38.689766	-9.335868	80.6	93.0	5.0	0.0	
7.32	3.1531637	0.33518824	9.536105	38.689766	-9.335868	80.6	93.0	5.0	0.0	
7.33	3.2968156	0.36990416	9.106346	38.689766	-9.335868	80.6	93.0	5.0	0.0	
7.34	3.2381577	0.37708676	9.009381	38.689766	-9.335868	80.6	93.0	5.0	0.0	
7.3500000000000005	3.2333694	0.92296475	8.827422	38.689766	-9.335868	80.6	93.0	5.0	0.0	
7.36	3.347094	-0.09816227	8.948329	38.689766	-9.335868	80.6	93.0	5.0	0.0	
7.37	3.3662477	0.037110128	8.784326	38.689766	-9.335868	80.6	93.0	5.0	0.0	
7.38	3.3028011	0.51235914	8.793902	38.689766	-9.335868	80.6	93.0	5.0	0.0	
7.390000000000001	3.205836	0.56982	9.004593	38.689766	-9.335868	80.6	93.0	5.0	0.0	
7.4	3.0693667	0.49320555	9.488221	38.689766	-9.335868	80.6	93.0	5.0	0.0	
7.41	2.8634653	0.25977087	9.455899	38.689766	-9.335868	80.6	93.0	5.0	0.0	
7.42	2.9293058	0.2753332	9.331401	38.689766	-9.335868	80.6	93.0	5.0	0.0	
7.43	2.9257145	0.21547815	9.151836	38.689766	-9.335868	80.6	93.0	5.0	0.0	
7.44	2.9376855	0.25378537	9.01776	38.689766	-9.335868	80.6	93.0	5.0	0.0	
7.45	3.0131028	0.35075054	9.040505	38.689766	-9.335868	80.6	93.0	5.0	0.0	
7.46	3.0693667	0.39264908	9.131485	38.689766	-9.335868	80.6	93.0	5.0	0.0	
7.47	3.0813377	0.37708676	9.1829605	38.689766	-9.335868	80.6	93.0	5.0	0.0	
7.48	3.040636	0.2657564	9.224859	38.689766	-9.335868	80.6	93.0	5.0	0.0	
7.49	2.9652188	0.24779987	9.308656	38.689766	-9.335868	80.6	93.0	5.0	0.0	
7.5	2.9532478	0.32680854	9.2069025	38.689766	-9.335868	80.6	93.0	5.0	0.0	
7.51	2.9975405	0.34356794	9.027337	38.689766	-9.335868	80.6	93.0	5.0	0.0	
7.5200000000000005	2.9975405	0.33279404	8.902839	38.689766	-9.335868	80.6	93.0	5.0	0.0	
7.53	2.991555	0.33877954	9.028535	38.689766	-9.335868	80.6	93.0	5.0	0.0	
7.54	2.9137435	0.3184288	9.248801	38.689766	-9.335868	80.6	93.0	5.0	0.0	
7.55	2.8191724	0.29688102	9.423578	38.689766	-9.335868	80.6	93.0	5.0	0.0	
7.5600000000000005	2.7964275	0.24061728	9.491813	38.689766	-9.335868	80.6	93.0	5.0	0.0	
7.57	2.778471	0.16998832	9.400833	38.689766	-9.335868	80.6	93.0	5.0	0.0	
7.58	2.7736826	0.17836803	9.293094	38.689766	-9.335868	80.6	93.0	5.0	0.0	
7.59	2.72939	0.18674773	9.156625	38.689766	-9.335868	80.6	93.0	5.0	0.0	
7.6000000000000005	2.7473464	0.2789245	9.136273	38.689766	-9.335868	80.6	93.0	5.0	0.0	
7.61	2.7808652	0.35075054	9.203311	38.689766	-9.335868	80.6	93.0	5.0	0.0	
7.62	2.8407204	0.36032736	9.248801	38.689766	-9.335868	80.6	93.0	5.0	0.0	
7.63	2.896984	0.35314476	9.077616	38.689766	-9.335868	80.6	93.0	5.0	0.0	
7.640000000000001	2.9963434	0.35075054	8.961497	38.689766	-9.335868	80.6	93.0	5.0	0.0	
7.65	3.0430303	0.37708676	8.979453	38.689766	-9.335868	80.6	93.0	5.0	0.0	
7.66	3.015497	0.4441244	9.046491	38.689766	-9.335868	80.6	93.0	5.0	0.0	
7.67	2.919729	0.41180268	9.216479	38.689766	-9.335868	80.6	93.0	5.0	0.0	
7.68	2.873042	0.37948096	9.309854	38.689766	-9.335868	80.6	93.0	5.0	0.0	
7.69	2.8862102	0.37469256	9.315839	38.689766	-9.335868	80.6	93.0	5.0	0.0	
7.7	2.885013	0.33518824	9.238028	38.689766	-9.335868	80.6	93.0	5.0	0.0	
7.71	2.9939492	0.2789245	9.186552	38.689766	-9.335868	80.6	93.0	5.0	0.0	
7.72	3.1759086	0.29688102	9.258378	38.689766	-9.335868	80.6	93.0	5.0	0.0	
7.73	3.205836	0.2801216	9.3733	38.689766	-9.335868	80.6	93.0	5.0	0.0	
7.74	3.1256304	0.30286652	9.293094	38.689766	-9.335868	80.6	93.0	5.0	0.0	
7.75	3.0382419	0.33039984	9.095572	38.689766	-9.335868	80.6	93.0	5.0	0.0	
7.76	3.0442274	0.34237084	8.938752	38.689766	-9.335868	80.6	93.0	5.0	0.0	
7.7700000000000005	3.0969	0.37469256	8.969876	38.689766	-9.335868	80.6	93.0	5.0	0.0	
7.78	3.1112652	0.3878607	9.106346	38.689766	-9.335868	80.6	93.0	5.0	0.0	
7.79	3.071761	0.37110126	9.163807	38.689766	-9.335868	80.6	93.0	5.0	0.0	
7.8	3.0226796	0.33638534	9.119514	38.689766	-9.335868	80.6	93.0	5.0	0.0	
7.8100000000000005	2.9975405	0.36152446	9.193734	38.689766	-9.335868	80.6	93.0	5.0	0.0	
7.82	3.0178912	0.41060558	9.108741	38.689766	-9.335868	80.6	93.0	5.0	0.0	
7.83	3.0071173	0.415394	9.02614	38.689766	-9.335868	80.6	93.0	5.0	0.0	
7.84	2.9759927	0.37948096	9.053674	38.689766	-9.335868	80.6	93.0	5.0	0.0	
7.8500000000000005	2.9245174	0.36032736	9.106346	38.689766	-9.335868	80.6	93.0	5.0	0.0	
7.86	2.9616275	0.35434186	9.203311	38.689766	-9.335868	80.6	93.0	5.0	0.0	
7.87	3.0226796	0.35434186	9.194932	38.689766	-9.335868	80.6	93.0	5.0	0.0	
7.88	3.074155	0.37110126	9.179369	38.689766	-9.335868	80.6	93.0	5.0	0.0	
7.890000000000001	3.095703	0.37828386	9.187749	38.689766	-9.335868	80.6	93.0	5.0	0.0	
7.9	3.0597897	0.36750996	9.119514	38.689766	-9.335868	80.6	93.0	5.0	0.0	
7.91	3.0789435	0.38187516	9.066842	38.689766	-9.335868	80.6	93.0	5.0	0.0	
7.92	3.1986535	0.39624038	9.150639	38.689766	-9.335868	80.6	93.0	5.0	0.0	
7.930000000000001	3.2501287	0.38067806	9.334992	38.689766	-9.335868	80.6	93.0	5.0	0.0	
7.94	3.1723173	0.35793316	9.350554	38.689766	-9.335868	80.6	93.0	5.0	0.0	
7.95	3.072958	0.35673606	9.108741	38.689766	-9.335868	80.6	93.0	5.0	0.0	
7.96	3.0693667	0.35314476	8.89805	38.689766	-9.335868	80.6	93.0	5.0	0.0	
7.97	3.1136594	0.35553896	8.9363575	38.689766	-9.335868	80.6	93.0	5.0	0.0	
7.98	3.13401	0.35075054	9.203311	38.689766	-9.335868	80.6	93.0	5.0	0.0	
7.99	3.1064768	0.34476504	9.40203	38.689766	-9.335868	80.6	93.0	5.0	0.0	
8.0	3.040636	0.34596214	9.26556	38.689766	-9.335868	80.6	93.0	5.0	0.0	
8.01	3.040636	0.32920274	9.167398	38.689766	-9.335868	80.6	93.0	5.0	0.0	
8.02	3.0142999	0.33997664	9.131485	38.689766	-9.335868	80.6	93.0	5.0	0.0	
8.03	3.0609868	0.34835634	9.060856	38.689766	-9.335868	80.6	93.0	5.0	0.0	
8.040000000000001	3.0430303	0.31483752	9.081207	38.689766	-9.335868	80.6	93.0	5.0	0.0	
8.05	3.0011318	0.2885013	9.129091	38.689766	-9.335868	80.6	93.0	5.0	0.0	
8.06	2.991555	0.32800564	9.345766	38.689766	-9.335868	80.6	93.0	5.0	0.0	
8.07	2.9879637	0.37588966	9.40203	38.689766	-9.335868	80.6	98.0	5.0	0.0	
8.08	2.9340942	0.34476504	9.313444	38.689766	-9.335868	80.6	98.0	5.0	0.0	
8.09	2.7940333	0.32800564	9.283517	38.689766	-9.335868	80.6	98.0	5.0	0.0	
8.1	2.9005754	0.46088383	9.105149	38.689766	-9.335868	80.6	98.0	5.0	0.0	
8.11	2.9783869	0.4189853	8.98903	38.689766	-9.335868	80.6	98.0	5.0	0.0	
8.120000000000001	3.0597897	0.4189853	8.996213	38.689766	-9.335868	80.6	98.0	5.0	0.0	
8.13	3.0801406	0.40342298	9.03452	38.689766	-9.335868	80.6	98.0	5.0	0.0	
8.14	2.9903579	0.34596214	9.103952	38.689766	-9.335868	80.6	98.0	5.0	0.0	
8.15	2.883816	0.5758055	8.937555	38.689766	-9.335868	80.6	98.0	5.0	0.0	
8.16	2.2888567	0.7410054	9.915586	38.689766	-9.335868	80.6	98.0	5.0	0.0	
8.17	2.4025815	0.7098808	9.921572	38.689766	-9.335868	80.6	98.0	5.0	0.0	
8.18	2.7952304	-0.1328782	9.976639	38.689766	-9.335868	80.6	98.0	5.0	0.0	
8.19	2.7952304	-0.1328782	9.976639	38.689766	-9.335868	80.6	98.0	5.0	0.0	
8.2	2.7952304	-0.1328782	9.976639	38.689766	-9.335868	80.6	98.0	5.0	0.0	
8.21	2.7952304	-0.1328782	9.976639	38.689766	-9.335868	80.6	98.0	5.0	0.0	
8.22	3.1256304	0.6440403	8.655039	38.689766	-9.335868	80.6	98.0	5.0	0.0	
8.23	3.1256304	0.6440403	8.655039	38.689766	-9.335868	80.6	98.0	5.0	0.0	
8.24	2.943671	0.5793968	8.352173	38.689766	-9.335868	80.6	98.0	5.0	0.0	
8.25	3.039439	0.51235914	8.130709	38.689766	-9.335868	80.6	98.0	5.0	0.0	
8.26	3.1974564	0.48841715	8.301894	38.689766	-9.335868	80.6	98.0	5.0	0.0	
8.27	3.0597897	0.37110126	8.483853	38.689766	-9.335868	80.6	98.0	5.0	0.0	
8.28	3.1052797	0.40821138	8.446744	38.689766	-9.335868	80.6	98.0	5.0	0.0	
8.290000000000001	3.1507695	0.4189853	8.576031	38.689766	-9.335868	80.6	98.0	5.0	0.0	
8.3	3.2249897	0.40701428	8.850166	38.689766	-9.335868	80.6	98.0	5.0	0.0	
8.31	3.5326445	0.45370123	9.040505	38.689766	-9.335868	80.6	98.0	5.0	0.0	
8.32	3.8510735	0.5374983	9.192537	38.689766	-9.335868	80.6	98.0	5.0	0.0	
8.33	3.9827545	0.62129533	9.358934	38.689766	-9.335868	80.6	98.0	5.0	0.0	
8.34	3.9205053	0.6751649	9.5732155	38.689766	-9.335868	80.6	98.0	5.0	0.0	
8.35	3.3147724	0.59017074	9.609129	38.689766	-9.335868	80.6	98.0	5.0	0.0	
8.36	3.0083144	0.6967127	9.3026705	38.689766	-9.335868	80.6	98.0	5.0	0.0	
8.370000000000001	2.956839	0.7410054	9.00579	38.689766	-9.335868	80.6	98.0	5.0	0.0	
8.38	2.956839	0.7410054	9.00579	38.689766	-9.335868	80.6	98.0	5.0	0.0	
8.39	3.0418332	0.6811504	8.651448	38.689766	-9.335868	80.6	98.0	5.0	0.0	
8.4	2.8311436	0.6356605	8.566454	38.689766	-9.335868	80.6	98.0	5.0	0.0	
8.41	2.6048915	0.60932434	8.554482	38.689766	-9.335868	80.6	98.0	5.0	0.0	
8.42	2.5198972	0.59735334	8.59279	38.689766	-9.335868	80.6	98.0	5.0	0.0	
8.43	2.5701754	0.51235914	8.640674	38.689766	-9.335868	80.6	98.0	5.0	0.0	
8.44	2.6527755	0.4309563	8.674192	38.689766	-9.335868	80.6	98.0	5.0	0.0	
8.45	2.754529	0.37229836	8.839393	38.689766	-9.335868	80.6	98.0	5.0	0.0	
8.46	2.8766334	0.37469256	9.2547865	38.689766	-9.335868	80.6	98.0	5.0	0.0	
8.47	3.063381	0.50637364	9.606734	38.689766	-9.335868	80.6	98.0	5.0	0.0	
8.48	3.335123	0.5781997	10.0029745	38.689766	-9.335868	80.6	98.0	5.0	0.0	
8.49	3.7672763	0.7254431	10.419566	38.689766	-9.335868	80.6	98.0	5.0	0.0	
8.5	3.6343982	0.46088383	9.986216	38.689766	-9.335868	80.6	98.0	5.0	0.0	
8.51	3.4081461	0.48243165	9.326612	38.689766	-9.335868	80.6	98.0	5.0	0.0	
8.52	3.156755	0.5327099	8.813056	38.689766	-9.335868	80.6	98.0	5.0	0.0	
8.53	3.0083144	0.5410896	8.450335	38.689766	-9.335868	80.6	98.0	5.0	0.0	
8.540000000000001	2.6192567	0.9636662	9.1255	38.689766	-9.335868	80.6	98.0	5.0	0.0	
8.55	2.6048915	0.39025488	8.944737	38.689766	-9.335868	80.6	98.0	5.0	0.0	
8.56	3.3255463	-0.022744916	9.157822	38.689766	-9.335868	80.6	98.0	5.0	0.0	
8.57	3.6296098	0.50876784	9.396045	38.689766	-9.335868	80.6	98.0	5.0	0.0	
8.58	3.4392707	0.50637364	9.291897	38.689766	-9.335868	80.6	98.0	5.0	0.0	
8.59	3.3554738	0.45489833	9.217676	38.689766	-9.335868	80.6	98.0	5.0	0.0	
8.6	3.289633	0.47285482	9.006987	38.689766	-9.335868	80.6	98.0	5.0	0.0	
8.61	3.2632968	0.48722005	8.835801	38.689766	-9.335868	80.6	98.0	5.0	0.0	
8.620000000000001	3.2393548	0.51954174	8.983045	38.689766	-9.335868	80.6	98.0	5.0	0.0	
8.63	2.906561	0.25498247	9.911995	38.689766	-9.335868	80.6	98.0	5.0	0.0	
8.64	2.9532478	0.46208093	10.168175	38.689766	-9.335868	80.6	98.0	5.0	0.0	
8.65	2.9412768	0.58418524	9.871294	38.689766	-9.335868	80.6	98.0	5.0	0.0	
8.66	2.837129	0.51954174	9.586384	38.689766	-9.335868	80.6	98.0	5.0	0.0	
8.67	2.847903	0.5291186	9.2547865	38.689766	-9.335868	80.6	98.0	5.0	0.0	
8.68	2.96881	0.5805939	8.722076	38.689766	-9.335868	80.6	98.0	5.0	0.0	
8.69	3.132813	0.7589619	8.3821	38.689766	-9.335868	80.6	98.0	5.0	0.0	
8.700000000000001	3.180697	0.8870517	8.457518	38.689766	-9.335868	80.6	98.0	5.0	0.0	
8.71	3.1974564	0.78410107	8.735245	38.689766	-9.335868	80.6	98.0	5.0	0.0	
8.72	3.3482912	0.7625532	9.054871	38.689766	-9.335868	80.6	98.0	5.0	0.0	
8.73	3.3913867	0.7625532	9.198523	38.689766	-9.335868	80.6	98.0	5.0	0.0	
8.74	3.4129345	0.7469909	9.141062	38.689766	-9.335868	80.6	98.0	5.0	0.0	
8.75	3.3387144	0.7469909	9.094376	38.689766	-9.335868	80.6	98.0	5.0	0.0	
8.76	3.2501287	0.760159	8.9519205	38.689766	-9.335868	80.6	98.0	5.0	0.0	
8.77	3.1376014	0.78529817	8.632295	38.689766	-9.335868	80.6	98.0	5.0	0.0	
8.78	3.0430303	0.79487497	8.562862	38.689766	-9.335868	80.6	98.0	5.0	0.0	
8.790000000000001	3.0753522	0.81283146	8.866926	38.689766	-9.335868	80.6	98.0	5.0	0.0	
8.8	3.1842883	0.80325466	9.234436	38.689766	-9.335868	80.6	98.0	5.0	0.0	
8.81	3.2261868	0.79487497	9.279925	38.689766	-9.335868	80.6	98.0	5.0	0.0	
8.82	3.1196449	0.81402856	8.967483	38.689766	-9.335868	80.6	98.0	5.0	0.0	
8.83	2.7629087	0.82480246	9.020155	38.689766	-9.335868	80.6	98.0	5.0	0.0	
8.84	2.6443958	0.79607207	9.088389	38.689766	-9.335868	80.6	98.0	5.0	0.0	
8.85	2.6635494	0.7757214	9.222465	38.689766	-9.335868	80.6	98.0	5.0	0.0	
8.86	2.7760768	0.7386112	9.31105	38.689766	-9.335868	80.6	98.0	5.0	0.0	
8.870000000000001	2.8323407	0.7206547	9.16261	38.689766	-9.335868	80.6	98.0	5.0	0.0	
8.88	2.7365725	0.79726917	8.9602995	38.689766	-9.335868	80.6	98.0	5.0	0.0	
8.89	2.6013002	0.8379706	8.854955	38.689766	-9.335868	80.6	98.0	5.0	0.0	
8.9	2.5330653	0.7553706	8.8645315	38.689766	-9.335868	80.6	98.0	5.0	0.0	
8.91	2.6324248	0.6967127	9.113529	38.689766	-9.335868	80.6	98.0	5.0	0.0	
8.92	2.956839	0.8798691	8.917204	38.689766	-9.335868	80.6	98.0	5.0	0.0	
8.93	2.4660277	1.2497733	9.985018	38.689766	-9.335868	80.6	98.0	5.0	0.0	
8.94	2.5210943	0.4405331	9.622296	38.689766	-9.335868	80.6	98.0	5.0	0.0	
8.950000000000001	3.38181	0.6847417	9.090784	38.689766	-9.335868	80.6	98.0	5.0	0.0	
8.96	3.4105403	1.0007763	8.694544	38.689766	-9.335868	80.6	98.0	5.0	0.0	
8.97	3.0466216	1.4077905	8.99741	38.689766	-9.335868	80.6	98.0	5.0	0.0	
8.98	2.8658595	0.8355764	8.880095	38.689766	-9.335868	80.6	98.0	5.0	0.0	
8.99	3.5781345	0.9564836	8.924387	38.689766	-9.335868	80.6	98.0	5.0	0.0	
9.0	3.5793316	1.021127	9.259575	38.689766	-9.335868	80.6	98.0	5.0	0.0	
9.01	3.6056678	0.82719666	9.235633	38.689766	-9.335868	80.6	98.0	5.0	0.0	
9.02	3.7541082	0.8607155	9.165004	38.689766	-9.335868	80.6	98.0	5.0	0.0	
9.03	3.705027	0.8295909	9.093178	38.689766	-9.335868	80.6	98.0	5.0	0.0	
9.040000000000001	3.5889084	0.7685388	8.856153	38.689766	-9.335868	80.6	98.0	5.0	0.0	
9.05	3.6272156	0.7733272	8.702923	38.689766	-9.335868	80.6	95.0	5.0	0.0	
9.06	3.5637693	0.830788	8.801085	38.689766	-9.335868	80.6	95.0	5.0	0.0	
9.07	3.4452562	0.7553706	8.850166	38.689766	-9.335868	80.6	95.0	5.0	0.0	
9.08	3.5087025	0.8451532	9.053674	38.689766	-9.335868	80.6	95.0	5.0	0.0	
9.09	3.5230677	0.842759	9.297882	38.689766	-9.335868	80.6	95.0	5.0	0.0	
9.1	3.513491	0.8738836	9.409213	38.689766	-9.335868	80.6	95.0	5.0	0.0	
9.11	3.4344823	0.8822633	9.394848	38.689766	-9.335868	80.6	95.0	5.0	0.0	
9.120000000000001	3.3865983	0.8882488	9.23683	38.689766	-9.335868	80.6	95.0	5.0	0.0	
9.13	3.2980127	0.90141696	9.175778	38.689766	-9.335868	80.6	95.0	5.0	0.0	
9.14	3.2190042	0.9911995	9.31943	38.689766	-9.335868	80.6	95.0	5.0	0.0	
9.15	3.2309752	0.9540894	9.443929	38.689766	-9.335868	80.6	95.0	5.0	0.0	
9.16	3.3171666	1.0462662	9.470264	38.689766	-9.335868	80.6	95.0	5.0	0.0	
9.17	3.3518825	1.0283096	9.137471	38.689766	-9.335868	80.6	95.0	5.0	0.0	
9.18	3.4213142	1.0163386	8.90643	38.689766	-9.335868	80.6	95.0	5.0	0.0	
9.19	3.4225113	1.0175357	8.740033	38.689766	-9.335868	80.6	95.0	5.0	0.0	
9.200000000000001	3.3662477	1.0342951	8.528147	38.689766	-9.335868	80.6	95.0	5.0	0.0	
9.21	3.3147724	1.1228806	8.47308	38.689766	-9.335868	80.6	95.0	5.0	0.0	
9.22	3.2333694	1.0893618	8.611943	38.689766	-9.335868	80.6	95.0	5.0	0.0	
9.23	3.1615434	1.0761937	8.550891	38.689766	-9.335868	80.6	95.0	5.0	0.0	
9.24	3.3602622	1.0510546	8.498219	38.689766	-9.335868	80.6	95.0	5.0	0.0	
9.25	3.5793316	1.0714053	8.415619	38.689766	-9.335868	80.6	95.0	5.0	0.0	
9.26	3.70383	1.1324574	8.202535	38.689766	-9.335868	80.6	95.0	5.0	0.0	
9.27	3.6870706	1.1587936	7.9343843	38.689766	-9.335868	80.6	95.0	5.0	0.0	
9.28	3.6236243	1.1013328	7.7069354	38.689766	-9.335868	80.6	95.0	5.0	0.0	
9.290000000000001	3.7349546	1.1563994	7.645883	38.689766	-9.335868	80.6	95.0	5.0	0.0	
9.3	3.927688	0.90381116	8.3150625	38.689766	-9.335868	80.6	95.0	5.0	0.0	
9.31	4.0821137	0.94092125	8.835801	38.689766	-9.335868	80.6	95.0	5.0	0.0	
9.32	4.309563	1.1133038	9.188946	38.689766	-9.335868	80.6	95.0	5.0	0.0	
9.33	4.938041	1.2856863	10.854114	38.689766	-9.335868	80.6	95.0	5.0	0.0	
9.34	4.5394063	1.7621324	12.682086	38.689766	-9.335868	80.6	95.0	5.0	0.0	
9.35	4.11683	3.145981	10.960655	38.689766	-9.335868	80.6	95.0	5.0	0.0	
9.36	3.072958	3.2381577	9.7084875	38.689766	-9.335868	80.6	95.0	5.0	0.0	
9.370000000000001	2.3475149	2.2996306	8.372523	38.689766	-9.335868	80.6	95.0	5.0	0.0	
9.38	2.3475149	2.2996306	8.372523	38.689766	-9.335868	80.6	95.0	5.0	0.0	
9.39	3.0502129	1.8267759	8.1163435	38.689766	-9.335868	80.6	95.0	5.0	0.0	
9.4	3.4703953	1.7645266	8.841787	38.689766	-9.335868	80.6	95.0	5.0	0.0	
9.41	3.98874	1.2114661	9.333796	38.689766	-9.335868	80.6	95.0	5.0	0.0	
9.42	4.4580035	1.6304513	9.028535	38.689766	-9.335868	80.6	95.0	5.0	0.0	
9.43	4.253299	1.7944542	9.350554	38.689766	-9.335868	80.6	95.0	5.0	0.0	
9.44	4.2341456	1.9668367	9.240421	38.689766	-9.335868	80.6	95.0	5.0	0.0	
9.450000000000001	3.7553053	1.1180922	9.540894	38.689766	-9.335868	80.6	95.0	5.0	0.0	
9.46	3.9552212	1.2569559	9.998186	38.689766	-9.335868	80.6	95.0	5.0	0.0	
9.47	3.8307228	1.0618285	9.767146	38.689766	-9.335868	80.6	95.0	5.0	0.0	
9.48	3.669114	0.7410054	9.223662	38.689766	-9.335868	80.6	95.0	5.0	0.0	
9.49	3.6044707	0.9672575	8.892065	38.689766	-9.335868	80.6	95.0	5.0	0.0	
9.5	3.5769374	0.9983821	8.556877	38.689766	-9.335868	80.6	95.0	5.0	0.0	
9.51	3.2932243	0.6667852	8.367735	38.689766	-9.335868	80.6	95.0	5.0	0.0	
9.52	3.5230677	0.9911995	7.727286	38.689766	-9.335868	80.6	95.0	5.0	0.0	
9.53	4.1240125	1.721431	7.1730285	38.689766	-9.335868	80.6	95.0	5.0	0.0	
9.540000000000001	4.605247	2.3535004	7.1790137	38.689766	-9.335868	80.6	95.0	5.0	0.0	
9.55	4.2185836	2.231396	7.3609734	38.689766	-9.335868	80.6	95.0	5.0	0.0	
9.56	3.7672763	2.0913353	7.8972745	38.689766	-9.335868	80.6	95.0	5.0	0.0	
9.57	3.4320881	2.019509	8.517372	38.689766	-9.335868	80.6	95.0	5.0	0.0	
9.58	3.265691	1.9201498	8.827422	38.689766	-9.335868	80.6	95.0	5.0	0.0	
9.59	3.1591492	2.067393	8.722076	38.689766	-9.335868	80.6	95.0	5.0	0.0	
9.6	3.25372	2.2613235	8.590396	38.689766	-9.335868	80.6	95.0	5.0	0.0	
9.61	3.0083144	1.7381904	8.285135	38.689766	-9.335868	80.6	95.0	5.0	0.0	
9.620000000000001	3.0334535	1.7405846	7.728483	38.689766	-9.335868	80.6	95.0	5.0	0.0	
9.63	2.9999347	1.7992426	7.4483614	38.689766	-9.335868	80.6	95.0	5.0	0.0	
9.64	3.1854854	2.0039468	7.6949644	38.689766	-9.335868	80.6	95.0	5.0	0.0	
9.65	3.406949	1.8195933	8.033744	38.689766	-9.335868	80.6	95.0	5.0	0.0	
9.66	3.3291376	1.1575965	7.952341	38.689766	-9.335868	80.6	95.0	5.0	0.0	
9.67	3.5194764	0.6476316	8.305486	38.689766	-9.335868	80.6	95.0	5.0	0.0	
9.68	4.0402155	0.107739076	9.428367	38.689766	-9.335868	80.6	95.0	5.0	0.0	
9.69	4.7656584	0.055066638	9.7863	38.689766	-9.335868	80.6	95.0	5.0	0.0	
9.700000000000001	5.1523223	0.30166942	9.660604	38.689766	-9.335868	80.6	95.0	5.0	0.0	
9.71	5.079299	0.93014735	9.357738	38.689766	-9.335868	80.6	95.0	5.0	0.0	
9.72	4.630386	1.3096284	9.357738	38.689766	-9.335868	80.6	95.0	5.0	0.0	
9.73	4.197036	1.459266	9.85214	38.689766	-9.335868	80.6	95.0	5.0	0.0	
9.74	3.9025488	1.6795325	10.26514	38.689766	-9.335868	80.6	95.0	5.0	0.0	
9.75	3.4955344	1.8495208	10.518925	38.689766	-9.335868	80.6	95.0	5.0	0.0	
9.76	3.1316159	1.9895816	9.853337	38.689766	-9.335868	80.6	95.0	5.0	0.0	
9.77	2.5689783	2.0242975	9.609129	38.689766	-9.335868	80.6	95.0	5.0	0.0	
9.78	2.4612393	1.9452889	9.363723	38.689766	-9.335868	80.6	95.0	5.0	0.0	
9.790000000000001	2.2457612	1.7118542	9.064447	38.689766	-9.335868	80.6	95.0	5.0	0.0	
9.8	1.9931729	1.5933412	8.467094	38.689766	-9.335868	80.6	95.0	5.0	0.0	
9.81	1.543063	1.270124	7.642292	38.689766	-9.335868	80.6	95.0	5.0	0.0	
9.82	0.7098808	0.6380547	7.560889	38.689766	-9.335868	80.6	95.0	5.0	0.0	
9.83	-0.093373865	0.2645593	8.098388	38.689766	-9.335868	80.6	95.0	5.0	0.0	
9.84	-0.17717093	0.15322891	8.574833	38.689766	-9.335868	80.6	95.0	5.0	0.0	
9.85	0.61411273	0.48123455	8.281544	38.689766	-9.335868	80.6	95.0	5.0	0.0	
9.86	1.376666	0.8535329	7.6470804	38.689766	-9.335868	80.6	95.0	5.0	0.0	
9.870000000000001	1.42455	0.7661445	6.981492	38.689766	-9.335868	80.6	95.0	5.0	0.0	
9.88	0.92775315	0.44651863	7.1969705	38.689766	-9.335868	80.6	95.0	5.0	0.0	
9.89	0.7026982	0.36391866	8.352173	38.689766	-9.335868	80.6	95.0	5.0	0.0	
9.9	1.5682021	0.9816227	11.325771	38.689766	-9.335868	80.6	95.0	5.0	0.0	
9.91	2.9053638	1.1372458	11.123461	38.689766	-9.335868	80.6	95.0	5.0	0.0	
9.92	4.581305	2.066196	11.115082	38.689766	-9.335868	80.6	95.0	5.0	0.0	
9.93	6.56131	2.8538885	11.449073	38.689766	-9.335868	80.6	95.0	5.0	0.0	
9.94	7.171831	2.9101522	12.23078	38.689766	-9.335868	80.6	95.0	5.0	0.0	
9.950000000000001	5.088876	2.0470424	10.86369	38.689766	-9.335868	80.6	95.0	5.0	0.0	
9.96	3.217807	1.6316484	8.7951	38.689766	-9.335868	80.6	95.0	5.0	0.0	
9.97	3.241749	2.0614076	7.3430166	38.689766	-9.335868	80.6	95.0	5.0	0.0	
9.98	3.3446999	1.8734628	6.813898	38.689766	-9.335868	80.6	95.0	5.0	0.0	
9.99	2.8622682	1.1228806	7.153875	38.689766	-9.335868	80.6	95.0	5.0	0.0	
10.0	3.4332852	1.2330139	8.189367	38.689766	-9.335868	80.6	95.0	5.0	0.0	
10.01	3.8379054	0.93493575	8.9040365	38.689766	-9.335868	80.6	95.0	5.0	0.0	
10.02	4.3119574	0.90620536	9.458294	38.689766	-9.335868	80.6	95.0	5.0	0.0	
10.03	4.607641	1.0271125	9.588778	38.689766	-9.335868	80.6	95.0	5.0	0.0	
10.040000000000001	4.337096	1.412579	9.552865	38.689766	-9.335868	80.6	95.0	5.0	0.0	
10.05	3.2154129	1.4508862	9.227253	38.689766	-9.335868	80.6	95.0	5.0	0.0	
10.06	2.134431	1.271321	9.103952	38.689766	-9.335868	80.6	95.0	5.0	0.0	
10.07	2.0015526	1.1731589	8.784326	38.689766	-9.335868	80.6	95.0	5.0	0.0	
10.08	1.982399	1.1264719	8.513782	38.689766	-9.335868	80.6	95.0	5.0	0.0	
10.09	1.8507179	1.2593501	8.884883	38.689766	-9.335868	80.6	95.0	5.0	0.0	
10.1	2.3511062	0.8810662	9.672575	38.689766	-9.335868	80.6	93.0	5.0	0.0	
10.11	2.992752	0.91219085	10.466252	38.689766	-9.335868	80.6	93.0	5.0	0.0	
10.120000000000001	2.920926	1.1073183	10.777499	38.689766	-9.335868	80.6	93.0	5.0	0.0	
10.13	2.5833437	0.9528923	10.364499	38.689766	-9.335868	80.6	93.0	5.0	0.0	
10.14	2.7006595	1.1683705	9.431957	38.689766	-9.335868	80.6	93.0	5.0	0.0	
10.15	2.7281928	1.3730747	8.327033	38.689766	-9.335868	80.6	93.0	5.0	0.0	
10.16	2.574964	1.2761095	7.6614456	38.689766	-9.335868	80.6	93.0	5.0	0.0	
10.17	2.790442	1.2270284	7.5812397	38.689766	-9.335868	80.6	93.0	5.0	0.0	
10.18	3.1016884	1.0319009	8.514978	38.689766	-9.335868	80.6	93.0	5.0	0.0	
10.19	2.754529	1.1336545	9.67018	38.689766	-9.335868	80.6	93.0	5.0	0.0	
10.200000000000001	2.5462334	1.1947067	8.426393	38.689766	-9.335868	80.6	93.0	5.0	0.0	
10.21	2.7700913	1.1803415	9.277532	38.689766	-9.335868	80.6	93.0	5.0	0.0	
10.22	2.6252422	1.1288661	9.229648	38.689766	-9.335868	80.6	93.0	5.0	0.0	
10.23	1.9740193	1.1360487	9.816227	38.689766	-9.335868	80.6	93.0	5.0	0.0	
10.24	2.7928362	1.0857705	9.720459	38.689766	-9.335868	80.6	93.0	5.0	0.0	
10.25	3.6092591	1.2892777	9.7719345	38.689766	-9.335868	80.6	93.0	5.0	0.0	
10.26	3.4356794	1.3275849	9.880871	38.689766	-9.335868	80.6	93.0	5.0	0.0	
10.27	3.490746	1.1085154	9.929952	38.689766	-9.335868	80.6	93.0	5.0	0.0	
10.28	3.4811692	1.246182	9.878476	38.689766	-9.335868	80.6	93.0	5.0	0.0	
10.290000000000001	2.823961	1.1767502	9.297882	38.689766	-9.335868	80.6	93.0	5.0	0.0	
10.3	2.719813	0.9696517	8.856153	38.689766	-9.335868	80.6	93.0	5.0	0.0	
10.31	3.1196449	1.2354081	8.556877	38.689766	-9.335868	80.6	93.0	5.0	0.0	
10.32	3.265691	1.328782	8.872911	38.689766	-9.335868	80.6	93.0	5.0	0.0	
10.33	3.1316159	0.81402856	8.974665	38.689766	-9.335868	80.6	93.0	5.0	0.0	
10.34	3.1316159	0.81402856	8.974665	38.689766	-9.335868	80.6	93.0	5.0	0.0	
10.35	2.8179753	1.103727	8.310274	38.689766	-9.335868	80.6	93.0	5.0	0.0	
10.36	2.4241292	0.9876082	8.374918	38.689766	-9.335868	80.6	93.0	5.0	0.0	
10.370000000000001	2.1332338	0.712275	7.5561004	38.689766	-9.335868	80.6	93.0	5.0	0.0	
10.38	2.0853498	0.736217	8.428787	38.689766	-9.335868	80.6	93.0	5.0	0.0	
10.39	2.516306	0.7206547	7.979874	38.689766	-9.335868	80.6	93.0	5.0	0.0	
10.4	2.9735985	0.9744401	8.516175	38.689766	-9.335868	80.6	93.0	5.0	0.0	
10.41	2.8886044	1.2198458	9.647436	38.689766	-9.335868	80.6	93.0	5.0	0.0	
10.42	2.4181437	1.1408371	10.534488	38.689766	-9.335868	80.6	93.0	5.0	0.0	
10.43	1.9069817	0.9923966	11.263522	38.689766	-9.335868	80.6	93.0	5.0	0.0	
10.44	2.2122424	0.93014735	10.637438	38.689766	-9.335868	80.6	93.0	5.0	0.0	
10.450000000000001	3.6858735	1.389834	11.025299	38.689766	-9.335868	80.6	93.0	5.0	0.0	
10.46	3.0765493	1.5310919	8.450335	38.689766	-9.335868	80.6	93.0	5.0	0.0	
10.47	3.028665	1.174356	8.1163435	38.689766	-9.335868	80.6	93.0	5.0	0.0	
10.48	2.6013002	0.8463503	8.356961	38.689766	-9.335868	80.6	93.0	5.0	0.0	
10.49	2.3630772	0.81522566	8.215703	38.689766	-9.335868	80.6	93.0	5.0	0.0	
10.5	2.918532	1.0953473	8.264784	38.689766	-9.335868	80.6	93.0	5.0	0.0	
10.51	4.1706996	1.5753847	9.497798	38.689766	-9.335868	80.6	93.0	5.0	0.0	
10.52	4.3059716	1.483208	9.639056	38.689766	-9.335868	80.6	93.0	5.0	0.0	
10.53	3.6619315	1.1408371	9.982624	38.689766	-9.335868	80.6	93.0	5.0	0.0	
10.540000000000001	2.790442	0.7386112	10.101137	38.689766	-9.335868	80.6	93.0	5.0	0.0	
10.55	1.8866309	0.32321724	9.606734	38.689766	-9.335868	80.6	93.0	5.0	0.0	
10.56	1.6998832	0.29568392	9.417592	38.689766	-9.335868	80.6	93.0	5.0	0.0	
10.57	1.7753005	0.16759412	9.1829605	38.689766	-9.335868	80.6	93.0	5.0	0.0	
10.58	2.1559787	0.47285482	8.702923	38.689766	-9.335868	80.6	93.0	5.0	0.0	
10.59	3.0561984	1.697489	8.2516165	38.689766	-9.335868	80.6	93.0	5.0	0.0	
10.6	4.343082	3.2620997	10.192117	38.689766	-9.335868	80.6	93.0	5.0	0.0	
10.61	2.0973208	-0.23822308	10.309433	38.689766	-9.335868	80.6	93.0	5.0	0.0	
10.620000000000001	0.4177882	-0.7266402	12.962208	38.689766	-9.335868	80.6	93.0	5.0	0.0	
10.63	0.33159694	-1.2366052	13.563152	38.689766	-9.335868	80.6	93.0	5.0	0.0	
10.64	-0.90021986	-1.4413095	14.057555	38.689766	-9.335868	80.6	93.0	5.0	0.0	
10.65	-1.3000516	-1.0929531	16.262615	38.689766	-9.335868	80.6	93.0	5.0	0.0	
10.66	0.7146692	0.92296475	15.382746	38.689766	-9.335868	80.6	93.0	5.0	0.0	
10.67	0.58538234	1.3910311	15.540763	38.689766	-9.335868	80.6	93.0	5.0	0.0	
10.68	0.6560113	3.4237084	14.79497	38.689766	-9.335868	80.6	93.0	5.0	0.0	
10.69	0.712275	2.0901382	13.532028	38.689766	-9.335868	80.6	93.0	5.0	0.0	
10.700000000000001	-0.21428105	0.7565677	12.376825	38.689766	-9.335868	80.6	93.0	5.0	0.0	
10.71	0.51714754	2.1523874	12.525267	38.689766	-9.335868	80.6	93.0	5.0	0.0	
10.72	3.41892	4.177882	14.578294	38.689766	-9.335868	80.6	93.0	5.0	0.0	
10.73	3.8139634	4.9176903	15.336059	38.689766	-9.335868	80.6	93.0	5.0	0.0	
10.74	3.7912183	4.6100354	14.1904335	38.689766	-9.335868	80.6	93.0	5.0	0.0	
10.75	3.064578	3.4249055	12.265495	38.689766	-9.335868	80.6	93.0	5.0	0.0	
10.76	2.3594859	2.7952304	11.043256	38.689766	-9.335868	80.6	93.0	5.0	0.0	
10.77	2.0242975	2.5881321	10.898406	38.689766	-9.335868	80.6	93.0	5.0	0.0	
10.78	1.9512744	2.4372973	10.621876	38.689766	-9.335868	80.6	93.0	5.0	0.0	
10.790000000000001	1.7872716	2.1787236	9.935937	38.689766	-9.335868	80.6	93.0	5.0	0.0	
10.8	1.5478514	2.280477	9.340978	38.689766	-9.335868	80.6	93.0	5.0	0.0	
10.81	1.2485762	2.8395233	9.137471	38.689766	-9.335868	80.6	93.0	5.0	0.0	
10.82	0.997185	3.0454245	8.893262	38.689766	-9.335868	80.6	93.0	5.0	0.0	
10.83	0.5494693	3.2225955	9.012972	38.689766	-9.335868	80.6	93.0	5.0	0.0	
10.84	-0.1592144	3.5302503	9.009381	38.689766	-9.335868	80.6	93.0	5.0	0.0	
10.85	-0.89303726	3.560178	9.194932	38.689766	-9.335868	80.6	93.0	5.0	0.0	
10.86	-1.3096284	3.527856	9.19972	38.689766	-9.335868	80.6	93.0	5.0	0.0	
10.870000000000001	-1.4065934	3.6332011	8.550891	38.689766	-9.335868	80.6	93.0	5.0	0.0	
10.88	-1.9333179	3.6044707	7.6602483	38.689766	-9.335868	80.6	93.0	5.0	0.0	
10.89	-2.6551697	3.3315318	7.5549035	38.689766	-9.335868	80.6	93.0	5.0	0.0	
10.9	-3.405752	3.0585926	7.6506715	38.689766	-9.335868	80.6	93.0	5.0	0.0	
10.91	-3.6631286	3.084929	6.8881183	38.689766	-9.335868	80.6	93.0	5.0	0.0	
10.92	-3.942053	3.8067808	5.9663506	38.689766	-9.335868	80.6	93.0	5.0	0.0	
10.93	-4.727351	5.386954	5.8562174	38.689766	-9.335868	80.6	93.0	5.0	0.0	
10.94	-5.631162	5.518635	4.486734	38.689766	-9.335868	80.6	93.0	5.0	0.0	
10.950000000000001	-6.3123126	5.079299	2.0482395	38.689766	-9.335868	80.6	93.0	5.0	0.0	
10.96	-6.944382	4.914099	0.6452374	38.689766	-9.335868	80.6	93.0	5.0	0.0	
10.97	-8.08881	4.9284644	0.5434838	38.689766	-9.335868	80.6	93.0	5.0	0.0	
10.98	-9.284714	5.2648497	0.47764325	38.689766	-9.335868	80.6	93.0	5.0	0.0	
10.99	-8.803479	5.085284	-0.1388637	38.689766	-9.335868	80.6	93.0	5.0	0.0	
11.0	-7.1730285	4.531027	0.48602295	38.689766	-9.335868	80.6	93.0	5.0	0.0	
11.01	-6.9108634	3.954024	1.9405005	38.689766	-9.335868	80.6	93.0	5.0	0.0	
11.02	-7.920019	3.3985693	3.750517	38.689766	-9.335868	80.6	93.0	5.0	0.0	
11.03	-8.826224	2.6048915	5.5868697	38.689766	-9.335868	80.6	93.0	5.0	0.0	
11.040000000000001	-9.010578	2.397793	6.9503675	38.689766	-9.335868	80.6	93.0	5.0	0.0	
11.05	-8.706514	2.6791117	8.7771435	38.689766	-9.335868	80.6	93.0	5.0	0.0	
11.06	-8.640674	2.8754363	9.096769	38.689766	-9.335868	80.6	93.0	5.0	0.0	
11.07	-9.107543	2.2421699	8.878897	38.689766	-9.335868	80.6	93.0	5.0	0.0	
11.08	-9.7240505	1.316811	8.480263	38.689766	-9.335868	80.6	93.0	5.0	0.0	
11.09	-9.965864	0.82719666	8.389283	38.689766	-9.335868	80.6	93.0	5.0	0.0	
11.1	-9.831789	0.10295067	9.23683	38.689766	-9.335868	80.6	93.0	5.0	0.0	
11.11	-7.961918	1.2629414	12.220005	38.689766	-9.335868	80.6	93.0	5.0	0.0	
11.120000000000001	-5.693412	3.5565867	14.07192	38.689766	-9.335868	80.6	93.0	5.0	0.0	
11.13	-4.620809	4.572925	12.840104	38.689766	-9.335868	80.6	93.0	5.0	0.0	
11.14	-4.796783	4.38498	9.890448	38.689766	-9.335868	80.6	93.0	5.0	0.0	
11.15	-5.0014873	4.224569	7.406463	38.689766	-9.335868	80.6	93.0	5.0	0.0	
11.16	-4.201824	5.021838	6.4906807	38.689766	-9.335868	80.6	93.0	5.0	0.0	
11.17	-2.7868507	6.147113	6.159084	38.689766	-9.335868	80.6	93.0	5.0	0.0	
11.18	-1.8064252	7.241263	5.6658783	38.689766	-9.335868	80.6	93.0	5.0	0.0	
11.19	-2.7341783	6.633136	2.682703	38.689766	-9.335868	80.6	93.0	5.0	0.0	
11.200000000000001	-3.8007953	5.0781016	0.7098808	38.689766	-9.335868	80.6	93.0	5.0	0.0	
11.21	-4.677073	3.466804	0.022744916	38.689766	-9.335868	80.6	93.0	5.0	0.0	
11.22	-4.782418	3.8893807	0.7433996	38.689766	-9.335868	80.6	93.0	5.0	0.0	
11.23	-4.542998	4.047398	1.2054806	38.689766	-9.335868	80.6	93.0	5.0	0.0	
11.24	-4.921282	3.5098996	2.112883	38.689766	-9.335868	80.6	93.0	5.0	0.0	
11.25	-5.461174	2.8981812	2.815581	38.689766	-9.335868	80.6	93.0	5.0	0.0	
11.26	-5.4168816	2.409764	3.6116533	38.689766	-9.335868	80.6	93.0	5.0	0.0	
11.27	-4.6100354	2.2972364	4.594473	38.689766	-9.335868	80.6	93.0	5.0	0.0	
11.28	-3.7840357	2.2697031	5.461174	38.689766	-9.335868	80.6	93.0	5.0	0.0	
11.290000000000001	-3.3554738	1.9752164	6.2752028	38.689766	-9.335868	80.6	93.0	5.0	0.0	
11.3	-2.823961	1.7082629	7.2628107	38.689766	-9.335868	80.6	93.0	5.0	0.0	
11.31	-2.7210102	1.9859903	10.354922	38.689766	-9.335868	80.6	93.0	5.0	0.0	
11.32	-3.7217865	2.6611552	16.090233	38.689766	-9.335868	80.6	93.0	5.0	0.0	
11.33	-3.714604	3.0561984	18.53591	38.689766	-9.335868	80.6	93.0	5.0	0.0	
11.34	-2.0901382	1.6663644	17.65604	38.689766	-9.335868	80.6	93.0	5.0	0.0	
11.35	-0.6919243	-0.8607155	13.06037	38.689766	-9.335868	80.6	93.0	5.0	0.0	
11.36	-1.2545617	-1.9069817	13.582306	38.689766	-9.335868	80.6	93.0	5.0	0.0	
11.370000000000001	-1.2545617	-1.9069817	13.582306	38.689766	-9.335868	80.6	93.0	5.0	0.0	
11.38	-2.6791117	-0.90021986	6.1076083	38.689766	-9.335868	80.6	93.0	5.0	0.0	
11.39	-2.195483	-0.90021986	6.1076083	38.689766	-9.335868	80.6	93.0	5.0	0.0	
11.4	0.49799395	4.736928	0.40581718	38.689766	-9.335868	80.6	93.0	5.0	0.0	
11.41	1.3479356	8.258799	6.2823853	38.689766	-9.335868	80.6	93.0	5.0	0.0	
11.42	-0.3172317	6.805518	8.492233	38.689766	-9.335868	80.6	93.0	5.0	0.0	
11.43	-1.0031705	4.26527	7.00304	38.689766	-9.335868	80.6	93.0	5.0	0.0	
11.44	-2.360683	2.231396	6.1447186	38.689766	-9.335868	80.6	93.0	5.0	0.0	
11.450000000000001	-3.8833952	0.9720459	6.615179	38.689766	-9.335868	80.6	93.0	5.0	0.0	
11.46	-4.497508	0.80325466	7.4926543	38.689766	-9.335868	80.6	93.0	5.0	0.0	
11.47	-4.280833	1.2892777	9.178172	38.689766	-9.335868	80.6	93.0	5.0	0.0	
11.48	-3.039439	0.92296475	8.42759	38.689766	-9.335868	80.6	93.0	5.0	0.0	
11.49	-1.8986019	1.2521675	6.279991	38.689766	-9.335868	80.6	93.0	5.0	0.0	
11.5	-1.6903064	1.2737153	7.345411	38.689766	-9.335868	80.6	93.0	5.0	0.0	
11.51	-1.3227965	1.4939818	6.363788	38.689766	-9.335868	80.6	93.0	5.0	0.0	
11.52	-2.457648	0.6344634	5.647922	38.689766	-9.335868	80.6	93.0	5.0	0.0	
11.53	-2.0266917	1.9189527	7.3106947	38.689766	-9.335868	80.6	93.0	5.0	0.0	
11.540000000000001	-1.1073183	2.9173348	7.1347213	38.689766	-9.335868	80.6	93.0	5.0	0.0	
11.55	-1.0821792	3.0011318	5.3438582	38.689766	-9.335868	80.6	93.0	5.0	0.0	
11.56	-1.5239093	2.8658595	4.4328647	38.689766	-9.335868	80.6	93.0	5.0	0.0	
11.57	-1.70946	2.8323407	4.619612	38.689766	-9.335868	80.6	93.0	5.0	0.0	
11.58	-1.4903905	2.8167782	5.1822495	38.689766	-9.335868	80.6	93.0	5.0	0.0	
11.59	-1.0007763	2.7688942	5.7269306	38.689766	-9.335868	80.6	93.0	5.0	0.0	
11.6	-0.80564886	2.6599581	5.911284	38.689766	-9.335868	80.6	93.0	5.0	0.0	
11.61	-1.0642227	2.3786395	5.74369	38.689766	-9.335868	80.6	93.0	5.0	0.0	
11.620000000000001	-1.4185646	1.9656396	6.0046577	38.689766	-9.335868	80.6	93.0	5.0	0.0	
11.63	-1.4389153	1.8926164	6.7624226	38.689766	-9.335868	80.6	93.0	5.0	0.0	
11.64	-0.9720459	2.2062569	7.9954367	38.689766	-9.335868	80.6	93.0	5.0	0.0	
11.65	-1.7944542	1.0450691	6.075287	38.689766	-9.335868	80.6	93.0	5.0	0.0	
11.66	-2.0721815	1.7010803	7.615956	38.689766	-9.335868	80.6	93.0	5.0	0.0	
11.67	-1.6927006	1.9788077	7.433996	38.689766	-9.335868	80.6	93.0	5.0	0.0	
11.68	-1.2880806	1.4341269	8.1163435	38.689766	-9.335868	80.6	93.0	5.0	0.0	
11.69	-0.6380547	1.7633295	9.411607	38.689766	-9.335868	80.6	93.0	5.0	0.0	
11.700000000000001	0.2705448	2.8491	9.600749	38.689766	-9.335868	80.6	93.0	5.0	0.0	
11.71	1.1923125	3.9001546	9.67018	38.689766	-9.335868	80.6	93.0	5.0	0.0	
11.72	1.7669208	3.9827545	10.111911	38.689766	-9.335868	80.6	93.0	5.0	0.0	
11.73	1.745373	3.3961751	10.049662	38.689766	-9.335868	80.6	93.0	5.0	0.0	
11.74	1.5993267	3.1112652	9.701305	38.689766	-9.335868	80.6	93.0	5.0	0.0	
11.75	1.5286977	3.028665	9.380483	38.689766	-9.335868	80.6	93.0	5.0	0.0	
11.76	1.4820108	3.0214825	8.987833	38.689766	-9.335868	80.6	93.0	5.0	0.0	
11.77	1.4030021	2.8886044	8.876503	38.689766	-9.335868	80.6	93.0	5.0	0.0	
11.78	1.2629414	2.504335	8.948329	38.689766	-9.335868	80.6	93.0	5.0	0.0	
11.790000000000001	1.1336545	2.1416135	9.317036	38.689766	-9.335868	80.6	93.0	5.0	0.0	
11.8	1.2186487	2.0733786	9.759963	38.689766	-9.335868	80.6	93.0	5.0	0.0	
11.81	1.6603789	2.0697873	10.023325	38.689766	-9.335868	80.6	93.0	5.0	0.0	
11.82	2.2278047	2.1296425	10.204087	38.689766	-9.335868	80.6	93.0	5.0	0.0	
11.83	2.846706	2.4648306	10.301053	38.689766	-9.335868	80.6	93.0	5.0	0.0	
11.84	3.2561142	2.7748797	10.705673	38.689766	-9.335868	80.6	93.0	5.0	0.0	
11.85	3.2860417	3.004723	10.981006	38.689766	-9.335868	80.6	93.0	5.0	0.0	
11.86	3.0561984	3.1986535	10.913968	38.689766	-9.335868	80.6	93.0	5.0	0.0	
11.870000000000001	2.6647465	3.1172507	10.333375	38.689766	-9.335868	80.6	93.0	5.0	0.0	
11.88	2.268506	2.8646624	9.92636	38.689766	-9.335868	80.6	93.0	5.0	0.0	
11.89	2.007538	2.64679	9.704897	38.689766	-9.335868	80.6	93.0	5.0	0.0	
11.9	1.8243817	2.6001031	9.653421	38.689766	-9.335868	80.6	93.0	5.0	0.0	
11.91	1.7597382	2.669535	9.508572	38.689766	-9.335868	80.6	93.0	5.0	0.0	
11.92	1.7908629	2.7150247	9.497798	38.689766	-9.335868	80.6	93.0	5.0	0.0	
11.93	1.9081788	2.6491842	9.725247	38.689766	-9.335868	80.6	93.0	5.0	0.0	
11.94	2.1511903	2.6515784	10.131064	38.689766	-9.335868	80.6	93.0	5.0	0.0	
11.950000000000001	2.3894134	2.7353754	10.478224	38.689766	-9.335868	80.6	93.0	5.0	0.0	
11.96	2.645593	2.870648	10.684125	38.689766	-9.335868	80.6	93.0	5.0	0.0	
11.97	2.944868	3.0382419	10.782288	38.689766	-9.335868	80.6	93.0	5.0	0.0	
11.98	3.3087866	3.1759086	10.939108	38.689766	-9.335868	80.6	93.0	5.0	0.0	
11.99	3.691859	3.2381577	11.071986	38.689766	-9.335868	80.6	93.0	5.0	0.0	
12.0	4.050989	3.3291376	10.964247	38.689766	-9.335868	80.6	93.0	5.0	0.0	
12.01	4.262876	3.503914	10.928333	38.689766	-9.335868	80.6	93.0	5.0	0.0	
12.02	4.298789	3.5087025	11.244369	38.689766	-9.335868	80.6	93.0	5.0	0.0	
12.030000000000001	4.3754034	3.3985693	11.453861	38.689766	-9.335868	80.6	93.0	5.0	0.0	
12.040000000000001	4.4184995	3.3411086	11.496957	38.689766	-9.335868	80.6	93.0	5.0	0.0	
12.05	4.471172	3.3411086	11.301829	38.689766	-9.335868	80.6	93.0	5.0	0.0	
12.06	4.531027	3.3746274	11.080365	38.689766	-9.335868	80.6	93.0	5.0	0.0	
12.07	4.578911	3.3901896	10.714052	38.689766	-9.335868	80.6	93.0	5.0	0.0	
12.08	4.606444	3.4033577	10.2974615	38.689766	-9.335868	80.6	67.0	5.0	0.0	
12.09	4.653131	3.3530796	10.085575	38.689766	-9.335868	80.6	67.0	5.0	0.0	
12.1	4.6232033	3.1902738	9.8677025	38.689766	-9.335868	80.6	67.0	5.0	0.0	
12.11	4.620809	3.0382419	9.874885	38.689766	-9.335868	80.6	67.0	5.0	0.0	
12.120000000000001	4.6842556	2.8179753	10.261548	38.689766	-9.335868	80.6	67.0	5.0	0.0	
12.13	4.7381253	2.2361844	10.368091	38.689766	-9.335868	80.6	67.0	5.0	0.0	
12.14	4.735731	2.1823149	10.13705	38.689766	-9.335868	80.6	67.0	5.0	0.0	
12.15	4.721366	2.1547816	9.55047	38.689766	-9.335868	80.6	67.0	5.0	0.0	
12.16	4.6160207	2.1296425	8.761581	38.689766	-9.335868	80.6	67.0	5.0	0.0	
12.17	4.6160207	2.1296425	8.761581	38.689766	-9.335868	80.6	67.0	5.0	0.0	
12.18	4.286818	2.0087352	7.135918	38.689766	-9.335868	80.6	67.0	5.0	0.0	
12.19	4.259285	1.9440918	7.135918	38.689766	-9.335868	80.6	67.0	5.0	0.0	
12.200000000000001	4.4556093	2.0398598	6.9360023	38.689766	-9.335868	80.6	67.0	5.0	0.0	
12.21	4.8841715	2.2732944	7.016208	38.689766	-9.335868	80.6	67.0	5.0	0.0	
12.22	5.33907	2.4061728	7.515399	38.689766	-9.335868	80.6	67.0	5.0	0.0	
12.23	5.7855883	2.336741	8.075643	38.689766	-9.335868	80.6	67.0	5.0	0.0	
12.24	6.105214	2.148796	8.686164	38.689766	-9.335868	80.6	67.0	5.0	0.0	
12.25	6.265626	1.8770541	9.382876	38.689766	-9.335868	80.6	67.0	5.0	0.0	
12.26	6.232107	1.5502456	9.850943	38.689766	-9.335868	80.6	67.0	5.0	0.0	
12.27	6.183026	1.4053963	10.17416	38.689766	-9.335868	80.6	67.0	5.0	0.0	
12.280000000000001	6.217742	1.401805	10.212467	38.689766	-9.335868	80.6	67.0	5.0	0.0	
12.290000000000001	6.1399302	1.3204023	10.298658	38.689766	-9.335868	80.6	67.0	5.0	0.0	
12.3	6.007052	1.103727	10.032902	38.689766	-9.335868	80.6	67.0	5.0	0.0	
12.31	5.819107	1.033098	9.200917	38.689766	-9.335868	80.6	67.0	5.0	0.0	
12.32	5.6108117	1.2473791	8.48146	38.689766	-9.335868	80.6	67.0	5.0	0.0	
12.33	5.544971	1.5574282	7.9822683	38.689766	-9.335868	80.6	67.0	5.0	0.0	
12.34	5.4312468	1.7274165	7.559692	38.689766	-9.335868	80.6	67.0	5.0	0.0	
12.35	5.234922	1.6639702	6.956353	38.689766	-9.335868	80.6	67.0	5.0	0.0	
12.36	4.981137	1.6903064	6.113594	38.689766	-9.335868	80.6	67.0	5.0	0.0	
12.370000000000001	4.7548847	1.7046716	5.109226	38.689766	-9.335868	80.6	67.0	5.0	0.0	
12.38	4.3358994	1.839944	4.349067	38.689766	-9.335868	80.6	67.0	5.0	0.0	
12.39	4.134786	2.2385786	3.394978	38.689766	-9.335868	80.6	67.0	5.0	0.0	
12.4	3.9959226	2.529474	2.385822	38.689766	-9.335868	80.6	67.0	5.0	0.0	
12.41	3.645172	2.4744074	1.6759412	38.689766	-9.335868	80.6	67.0	5.0	0.0	
12.42	3.6619315	2.4863784	1.6927006	38.689766	-9.335868	80.6	67.0	5.0	0.0	
12.43	3.7301662	2.2481554	1.3874398	38.689766	-9.335868	80.6	67.0	5.0	0.0	
12.44	2.8048072	2.2828712	1.435324	38.689766	-9.335868	80.6	67.0	5.0	0.0	
12.450000000000001	1.8231846	2.1691468	0.8690952	38.689766	-9.335868	80.6	67.0	5.0	0.0	
12.46	0.7206547	1.7202339	0.45130703	38.689766	-9.335868	80.6	67.0	5.0	0.0	
12.47	0.62608373	1.2114661	1.0737995	38.689766	-9.335868	80.6	67.0	5.0	0.0	
12.48	0.5518635	0.7278373	2.005144	38.689766	-9.335868	80.6	67.0	5.0	0.0	
12.49	0.30166942	0.29807812	2.1691468	38.689766	-9.335868	80.6	67.0	5.0	0.0	
12.5	0.39145198	0.17357962	2.3870192	38.689766	-9.335868	80.6	67.0	5.0	0.0	
12.51	0.63087213	0.47165772	2.5510218	38.689766	-9.335868	80.6	67.0	5.0	0.0	
12.52	0.7015011	0.4225766	2.574964	38.689766	-9.335868	80.6	67.0	5.0	0.0	
12.530000000000001	1.0522517	0.25617957	2.4959552	38.689766	-9.335868	80.6	67.0	5.0	0.0	
12.540000000000001	1.5765818	-0.35793316	1.6472107	38.689766	-9.335868	80.6	67.0	5.0	0.0	
12.55	1.8291701	-0.94930094	1.282095	38.689766	-9.335868	80.6	67.0	5.0	0.0	
12.56	1.9440918	-1.6950948	1.5598224	38.689766	-9.335868	80.6	67.0	5.0	0.0	
12.57	2.1404164	-2.6360161	1.6208745	38.689766	-9.335868	80.6	67.0	5.0	0.0	
12.58	2.5629928	-3.667917	1.9536686	38.689766	-9.335868	80.6	67.0	5.0	0.0	
12.59	3.0693667	-4.674679	3.9372647	38.689766	-9.335868	80.6	67.0	5.0	0.0	
12.6	4.582502	-6.005855	7.025785	38.689766	-9.335868	80.6	67.0	5.0	0.0	
12.61	5.103241	-6.9850836	10.824186	38.689766	-9.335868	80.6	67.0	5.0	0.0	
12.620000000000001	5.816713	-7.751228	12.799402	38.689766	-9.335868	80.6	67.0	5.0	0.0	
12.63	6.70975	-7.6770077	12.338518	38.689766	-9.335868	80.6	67.0	5.0	0.0	
12.64	7.575254	-7.0221934	11.09473	38.689766	-9.335868	80.6	67.0	5.0	0.0	
12.65	8.74961	-6.253655	10.809821	38.689766	-9.335868	80.6	67.0	5.0	0.0	
12.66	9.921572	-5.5365915	11.547235	38.689766	-9.335868	80.6	67.0	5.0	0.0	
12.67	10.582372	-5.1786585	13.090298	38.689766	-9.335868	80.6	67.0	5.0	0.0	
12.68	10.320207	-5.519832	14.67885	38.689766	-9.335868	80.6	67.0	5.0	0.0	
12.69	9.487024	-6.585252	15.859192	38.689766	-9.335868	80.6	67.0	5.0	0.0	
12.700000000000001	8.423999	-7.9236107	16.597803	38.689766	-9.335868	80.6	67.0	5.0	0.0	
12.71	7.4591355	-9.126697	16.460136	38.689766	-9.335868	80.6	67.0	5.0	0.0	
12.72	6.7384806	-9.706094	15.890317	38.689766	-9.335868	80.6	67.0	5.0	0.0	
12.73	6.483498	-9.673772	14.981717	38.689766	-9.335868	80.6	67.0	5.0	0.0	
12.74	6.3482256	-9.546879	14.1629	38.689766	-9.335868	80.6	67.0	5.0	0.0	
12.75	6.3111157	-9.570822	13.129802	38.689766	-9.335868	80.6	67.0	5.0	0.0	
12.76	6.7133417	-9.387665	12.089521	38.689766	-9.335868	80.6	67.0	5.0	0.0	
12.77	7.2484455	-9.303867	11.334151	38.689766	-9.335868	80.6	67.0	5.0	0.0	
12.780000000000001	7.5165963	-9.3661175	11.004948	38.689766	-9.335868	80.6	67.0	5.0	0.0	
12.790000000000001	7.6051817	-9.406818	10.849325	38.689766	-9.335868	80.6	67.0	5.0	0.0	
12.8	7.6243353	-9.360131	10.800244	38.689766	-9.335868	80.6	67.0	5.0	0.0	
12.81	7.3765354	-9.337387	11.127052	38.689766	-9.335868	80.6	67.0	5.0	0.0	
12.82	7.023391	-9.308656	11.567586	38.689766	-9.335868	80.6	67.0	5.0	0.0	
12.83	6.575675	-9.176975	11.96622	38.689766	-9.335868	80.6	67.0	5.0	0.0	
12.84	6.113594	-8.9363575	12.032061	38.689766	-9.335868	80.6	67.0	5.0	0.0	
12.85	5.6084175	-8.603564	11.719617	38.689766	-9.335868	80.6	67.0	5.0	0.0	
12.86	5.17387	-8.226477	11.123461	38.689766	-9.335868	80.6	67.0	5.0	0.0	
12.870000000000001	4.8374844	-7.7584105	10.471041	38.689766	-9.335868	80.6	67.0	5.0	0.0	
12.88	4.4675803	-7.2699933	9.816227	38.689766	-9.335868	80.6	67.0	5.0	0.0	
12.89	4.06296	-6.7229185	9.440337	38.689766	-9.335868	80.6	67.0	5.0	0.0	
12.9	3.6140475	-6.191406	9.31943	38.689766	-9.335868	80.6	67.0	5.0	0.0	
12.91	3.145981	-5.731719	9.0081835	38.689766	-9.335868	80.6	67.0	5.0	0.0	
12.92	2.718616	-5.4204726	8.488642	38.689766	-9.335868	80.6	67.0	5.0	0.0	
12.93	2.2960393	-5.305551	7.869741	38.689766	-9.335868	80.6	67.0	5.0	0.0	
12.94	1.9967642	-5.2301335	7.067683	38.689766	-9.335868	80.6	67.0	5.0	0.0	
12.950000000000001	1.6950948	-5.129577	6.159084	38.689766	-9.335868	80.6	67.0	5.0	0.0	
12.96	1.4053963	-5.04578	5.329493	38.689766	-9.335868	80.6	67.0	5.0	0.0	
12.97	1.1336545	-5.073313	4.608838	38.689766	-9.335868	80.6	67.0	5.0	0.0	
12.98	0.93493575	-5.1439424	3.7924154	38.689766	-9.335868	80.6	67.0	5.0	0.0	
12.99	0.94570965	-5.0637364	3.0478187	38.689766	-9.335868	80.6	67.0	5.0	0.0	
13.0	1.0534488	-4.853047	2.7018566	38.689766	-9.335868	80.6	67.0	5.0	0.0	
13.01	1.2246342	-4.793192	2.3989902	38.689766	-9.335868	80.6	67.0	5.0	0.0	
13.02	1.5251064	-4.88058	2.171541	38.689766	-9.335868	80.6	67.0	5.0	0.0	
13.030000000000001	1.7896658	-5.2528787	2.4121583	38.689766	-9.335868	80.6	67.0	5.0	0.0	
13.040000000000001	2.0015526	-5.8322754	2.7700913	38.689766	-9.335868	80.6	67.0	5.0	0.0	
13.05	2.291251	-6.3003416	3.288436	38.689766	-9.335868	80.6	67.0	5.0	0.0	
13.06	2.8993783	-6.467936	4.3287168	38.689766	-9.335868	80.6	67.0	5.0	0.0	
13.07	3.7588966	-6.3566055	7.3310456	38.689766	-9.335868	80.6	67.0	5.0	0.0	
13.08	5.506664	-6.0585275	8.774749	38.689766	-9.335868	80.6	67.0	5.0	0.0	
13.09	6.117185	-5.8562174	10.157401	38.689766	-9.335868	80.6	67.0	5.0	0.0	
13.1	6.421249	-5.7305217	11.025299	38.689766	-9.335868	80.6	67.0	5.0	0.0	
13.11	6.50744	-5.639542	11.33894	38.689766	-9.335868	80.6	67.0	5.0	0.0	
13.120000000000001	6.4739213	-5.603629	11.170148	38.689766	-9.335868	80.6	67.0	5.0	0.0	
13.13	6.2045736	-5.6323595	10.086772	38.689766	-9.335868	80.6	42.0	5.0	0.0	
13.14	5.813122	-5.591658	8.746018	38.689766	-9.335868	80.6	42.0	5.0	0.0	
13.15	5.2636523	-5.6156	7.7679873	38.689766	-9.335868	80.6	42.0	5.0	0.0	
13.16	4.6471453	-5.7496753	7.1969705	38.689766	-9.335868	80.6	42.0	5.0	0.0	
13.17	4.021062	-5.8741736	6.6989765	38.689766	-9.335868	80.6	42.0	5.0	0.0	
13.18	4.021062	-5.8741736	6.6989765	38.689766	-9.335868	80.6	42.0	5.0	0.0	
13.19	3.0933087	-5.9878983	5.7999535	38.689766	-9.335868	80.6	42.0	5.0	0.0	
13.200000000000001	2.8574798	-5.9627595	5.6084175	38.689766	-9.335868	80.6	42.0	5.0	0.0	
13.21	2.8538885	-5.864597	5.6886234	38.689766	-9.335868	80.6	42.0	5.0	0.0	
13.22	3.0813377	-5.7245364	6.0764837	38.689766	-9.335868	80.6	42.0	5.0	0.0	
13.23	3.4476504	-5.5509567	6.513426	38.689766	-9.335868	80.6	42.0	5.0	0.0	
13.24	3.918111	-5.3582234	6.907272	38.689766	-9.335868	80.6	42.0	5.0	0.0	
13.25	4.4161053	-5.2636523	7.3657618	38.689766	-9.335868	80.6	42.0	5.0	0.0	
13.26	4.80636	-5.2421045	7.8865004	38.689766	-9.335868	80.6	42.0	5.0	0.0	
13.27	5.1259856	-5.1343656	8.237251	38.689766	-9.335868	80.6	42.0	5.0	0.0	
13.280000000000001	5.3438582	-4.9559975	8.578424	38.689766	-9.335868	80.6	42.0	5.0	0.0	
13.290000000000001	5.4563856	-4.76087	9.283517	38.689766	-9.335868	80.6	42.0	5.0	0.0	
13.3	5.505467	-4.7668557	9.7958765	38.689766	-9.335868	80.6	42.0	5.0	0.0	
13.31	5.3678	-4.9308586	9.605537	38.689766	-9.335868	80.6	42.0	5.0	0.0	
13.32	5.171476	-4.935647	9.209297	38.689766	-9.335868	80.6	42.0	5.0	0.0	
13.33	5.149928	-4.871003	8.839393	38.689766	-9.335868	80.6	42.0	5.0	0.0	
13.34	5.233725	-4.8578353	8.281544	38.689766	-9.335868	80.6	42.0	5.0	0.0	
13.35	5.363012	-4.64116	7.6410947	38.689766	-9.335868	80.6	42.0	5.0	0.0	
13.36	5.5270147	-4.3406878	7.369353	38.689766	-9.335868	80.6	42.0	5.0	0.0	
13.370000000000001	5.5617304	-4.0880995	7.145495	38.689766	-9.335868	80.6	42.0	5.0	0.0	
13.38	5.6084175	-3.8019924	6.7121444	38.689766	-9.335868	80.6	42.0	5.0	0.0	
13.39	5.6215854	-3.5290532	6.1782374	38.689766	-9.335868	80.6	42.0	5.0	0.0	
13.4	5.6886234	-3.2800562	5.547365	38.689766	-9.335868	80.6	42.0	5.0	0.0	
13.41	5.6203885	-3.0310593	4.987122	38.689766	-9.335868	80.6	42.0	5.0	0.0	
13.42	5.674258	-2.6755204	4.3885717	38.689766	-9.335868	80.6	42.0	5.0	0.0	
13.43	5.8203044	-2.207454	3.618836	38.689766	-9.335868	80.6	42.0	5.0	0.0	
13.44	5.849035	-1.7609353	2.8119898	38.689766	-9.335868	80.6	42.0	5.0	0.0	
13.450000000000001	5.7855883	-1.4281414	2.3558946	38.689766	-9.335868	80.6	42.0	5.0	0.0	
13.46	5.7975593	-1.151611	2.4349031	38.689766	-9.335868	80.6	42.0	5.0	0.0	
13.47	6.0860605	-0.79607207	2.7569232	38.689766	-9.335868	80.6	42.0	5.0	0.0	
13.48	6.4368114	-0.4141969	2.8526914	38.689766	-9.335868	80.6	42.0	5.0	0.0	
13.49	6.8103065	-0.1328782	2.9317	38.689766	-9.335868	80.6	42.0	5.0	0.0	
13.5	7.2185183	-0.09816227	3.4213142	38.689766	-9.335868	80.6	42.0	5.0	0.0	
13.51	7.5788455	-0.1448492	4.2221746	38.689766	-9.335868	80.6	42.0	5.0	0.0	
13.52	8.050503	-0.31364042	4.959589	38.689766	-9.335868	80.6	42.0	5.0	0.0	
13.530000000000001	8.467094	-0.44771573	5.5270147	38.689766	-9.335868	80.6	42.0	5.0	0.0	
13.540000000000001	8.839393	-0.40701428	5.7400985	38.689766	-9.335868	80.6	42.0	5.0	0.0	
13.55	9.860519	-0.12090719	5.1343656	38.689766	-9.335868	80.6	42.0	5.0	0.0	
13.56	10.681731	-0.061052144	4.9548006	38.689766	-9.335868	80.6	42.0	5.0	0.0	
13.57	11.603498	-0.108936176	5.209783	38.689766	-9.335868	80.6	42.0	5.0	0.0	
13.58	12.696451	0.0011971008	6.2847795	38.689766	-9.335868	80.6	42.0	5.0	0.0	
13.59	13.798982	0.1376666	7.9930425	38.689766	-9.335868	80.6	42.0	5.0	0.0	
13.6	14.634558	0.045489833	9.854534	38.689766	-9.335868	80.6	42.0	5.0	0.0	
13.61	15.002068	-0.2741361	11.836933	38.689766	-9.335868	80.6	42.0	5.0	0.0	
13.620000000000001	14.486117	-1.1408371	14.056358	38.689766	-9.335868	80.6	42.0	5.0	0.0	
13.63	13.927072	-2.1631613	15.446193	38.689766	-9.335868	80.6	42.0	5.0	0.0	
13.64	13.421895	-2.6324248	15.395914	38.689766	-9.335868	80.6	42.0	5.0	0.0	
13.65	13.798982	-2.6024973	13.819332	38.689766	-9.335868	80.6	42.0	5.0	0.0	
13.66	14.12579	-2.2026656	12.059594	38.689766	-9.335868	80.6	42.0	5.0	0.0	
13.67	13.408727	-1.6938977	9.876082	38.689766	-9.335868	80.6	42.0	5.0	0.0	
13.68	12.339716	-1.2210429	7.6387005	38.689766	-9.335868	80.6	42.0	5.0	0.0	
13.69	11.354502	-0.8415619	6.136339	38.689766	-9.335868	80.6	42.0	5.0	0.0	
13.700000000000001	10.143036	-0.6476316	5.0996494	38.689766	-9.335868	80.6	42.0	5.0	0.0	
13.71	8.631097	-0.6392518	4.3059716	38.689766	-9.335868	80.6	42.0	5.0	0.0	
13.72	7.038953	-0.90620536	3.8295257	38.689766	-9.335868	80.6	42.0	5.0	0.0	
13.73	5.485116	-1.3012487	3.4835634	38.689766	-9.335868	80.6	42.0	5.0	0.0	
13.74	4.1012673	-1.685518	3.4560301	38.689766	-9.335868	80.6	42.0	5.0	0.0	
13.75	3.0813377	-1.9764135	3.5290532	38.689766	-9.335868	80.6	42.0	5.0	0.0	
13.76	2.4049757	-2.0015526	3.477578	38.689766	-9.335868	80.6	42.0	5.0	0.0	
13.77	1.9596541	-1.7908629	3.3387144	38.689766	-9.335868	80.6	42.0	5.0	0.0	
13.780000000000001	1.6831238	-1.532289	3.1399956	38.689766	-9.335868	80.6	42.0	5.0	0.0	
13.790000000000001	1.5514427	-1.3575124	2.9520507	38.689766	-9.335868	80.6	42.0	5.0	0.0	
13.8	1.5119383	-1.2844892	2.9508536	38.689766	-9.335868	80.6	42.0	5.0	0.0	
13.81	1.555034	-1.2270284	3.1794999	38.689766	-9.335868	80.6	42.0	5.0	0.0	
13.82	1.5837644	-1.1971009	3.3650506	38.689766	-9.335868	80.6	42.0	5.0	0.0	
13.83	1.6005238	-1.1935096	3.2920272	38.689766	-9.335868	80.6	42.0	5.0	0.0	
13.84	1.6603789	-1.1647792	3.1783028	38.689766	-9.335868	80.6	42.0	5.0	0.0	
13.85	1.7621324	-1.1228806	3.2273839	38.689766	-9.335868	80.6	42.0	5.0	0.0	
13.86	1.8674773	-1.1468226	3.2968156	38.689766	-9.335868	80.6	42.0	5.0	0.0	
13.870000000000001	2.1021092	-1.1492168	3.3758245	38.689766	-9.335868	80.6	42.0	5.0	0.0	
13.88	2.5270798	-1.0175357	3.537433	38.689766	-9.335868	80.6	42.0	5.0	0.0	
13.89	3.1495724	-0.8379706	3.8606503	38.689766	-9.335868	80.6	42.0	5.0	0.0	
13.9	3.7349546	-0.6739678	4.238934	38.689766	-9.335868	80.6	42.0	5.0	0.0	
13.91	4.370615	-0.5722142	4.6806645	38.689766	-9.335868	80.6	42.0	5.0	0.0	
13.92	5.019444	-0.47165772	5.257667	38.689766	-9.335868	80.6	42.0	5.0	0.0	
13.93	5.6551046	-0.34835634	5.8741736	38.689766	-9.335868	80.6	42.0	5.0	0.0	
13.94	6.2620344	-0.2765303	6.3985043	38.689766	-9.335868	80.6	42.0	5.0	0.0	
13.950000000000001	7.005434	-0.19752164	6.906075	38.689766	-9.335868	80.6	42.0	5.0	1.0	
13.96	8.26239	0.11492168	7.8182654	38.689766	-9.335868	80.6	42.0	5.0	0.0	
13.97	8.26239	0.11492168	7.8182654	38.689766	-9.335868	80.6	42.0	5.0	0.0	
13.98	8.588001	0.088585466	8.452729	38.689766	-9.335868	80.6	42.0	5.0	0.0	
13.99	8.671799	-0.022744916	8.963891	38.689766	-9.335868	80.6	42.0	5.0	0.0	
14.0	8.495825	-0.2801216	9.215282	38.689766	-9.335868	80.6	42.0	5.0	0.0	
14.01	8.139089	-0.6715736	9.136273	38.689766	-9.335868	80.6	42.0	5.0	0.0	
14.02	7.5968018	-1.1791444	8.215703	38.689766	-9.335868	80.6	42.0	5.0	0.0	
14.030000000000001	7.630321	-1.1085154	7.807492	38.689766	-9.335868	80.6	42.0	5.0	0.0	
14.040000000000001	7.8613615	-0.8882488	7.2807674	38.689766	-9.335868	80.6	42.0	5.0	0.0	
14.05	8.244433	-0.60333884	6.813898	38.689766	-9.335868	80.6	42.0	5.0	0.0	
14.06	8.662222	-0.45250413	6.4990606	38.689766	-9.335868	80.6	42.0	5.0	0.0	
14.07	9.094376	-0.39983168	6.31351	38.689766	-9.335868	80.6	42.0	5.0	0.0	
14.08	9.452309	-0.36631286	6.302736	38.689766	-9.335868	80.6	109.0	5.0	0.0	
14.09	9.721656	-0.29927522	6.519411	38.689766	-9.335868	80.6	109.0	5.0	0.0	
14.1	9.765948	-0.19512744	7.016208	38.689766	-9.335868	80.6	109.0	5.0	0.0	
14.11	9.57561	-0.1412579	7.6027875	38.689766	-9.335868	80.6	109.0	5.0	0.0	
14.120000000000001	9.166202	-0.06943185	8.294712	38.689766	-9.335868	80.6	109.0	5.0	0.0	
14.13	8.686164	-0.031124622	8.74123	38.689766	-9.335868	80.6	109.0	5.0	0.0	
14.14	8.307879	-0.24540567	8.737639	38.689766	-9.335868	80.6	109.0	5.0	0.0	
14.15	8.043321	-0.8283938	8.336611	38.689766	-9.335868	80.6	109.0	5.0	0.0	
14.16	8.4647	-1.9273324	8.061277	38.689766	-9.335868	80.6	109.0	5.0	0.0	
14.17	8.4647	-1.9273324	8.061277	38.689766	-9.335868	80.6	109.0	5.0	0.0	
14.18	9.26197	-2.042254	8.628703	38.689766	-9.335868	80.6	109.0	5.0	0.0	
14.19	10.3692875	-1.8052281	9.733627	38.689766	-9.335868	80.6	109.0	5.0	0.0	
14.200000000000001	11.663354	-1.5466543	11.020511	38.689766	-9.335868	80.6	109.0	5.0	0.0	
14.21	12.77546	-1.3850456	12.200851	38.689766	-9.335868	80.6	109.0	5.0	0.0	
14.22	13.517663	-1.1408371	13.041217	38.689766	-9.335868	80.6	109.0	5.0	0.0	
14.23	13.887567	-0.7182605	13.377602	38.689766	-9.335868	80.6	109.0	5.0	0.0	
14.24	13.78701	-0.36391866	13.220781	38.689766	-9.335868	80.6	109.0	5.0	0.0	
14.25	13.03164	-0.23104046	12.366052	38.689766	-9.335868	80.6	109.0	5.0	0.0	
14.26	11.702858	-0.3878607	10.948685	38.689766	-9.335868	80.6	109.0	5.0	0.0	
14.27	10.183737	-0.88944596	9.44752	38.689766	-9.335868	80.6	109.0	5.0	0.0	
14.280000000000001	8.684967	-1.4676456	7.9391727	38.689766	-9.335868	80.6	109.0	5.0	0.0	
14.290000000000001	7.369353	-2.0530279	6.5086374	38.689766	-9.335868	80.6	109.0	5.0	0.0	
14.3	6.317101	-2.7090392	5.153519	38.689766	-9.335868	80.6	109.0	5.0	0.0	
14.31	5.439626	-3.3123782	3.916914	38.689766	-9.335868	80.6	109.0	5.0	0.0	
14.32	4.6830587	-3.6894648	3.0083144	38.689766	-9.335868	80.6	109.0	5.0	0.0	
14.33	4.1132383	-3.9396589	2.2864625	38.689766	-9.335868	80.6	109.0	5.0	0.0	
14.34	3.809175	-3.965995	1.5394717	38.689766	-9.335868	80.6	109.0	5.0	0.0	
14.35	3.70383	-3.762488	0.7266402	38.689766	-9.335868	80.6	109.0	5.0	0.0	
14.36	3.8271315	-3.4680011	0.022744916	38.689766	-9.335868	80.6	109.0	5.0	0.0	
14.370000000000001	4.1826706	-3.1112652	-0.17597382	38.689766	-9.335868	80.6	109.0	5.0	0.0	
14.38	4.8458643	-2.7114334	0.20709845	38.689766	-9.335868	80.6	109.0	5.0	0.0	
14.39	5.6096144	-2.3355439	0.7062895	38.689766	-9.335868	80.6	109.0	5.0	0.0	
14.4	6.3793507	-1.9847932	1.423353	38.689766	-9.335868	80.6	109.0	5.0	0.0	
14.41	6.943185	-1.7238252	2.421735	38.689766	-9.335868	80.6	109.0	5.0	0.0	
14.42	7.4028716	-1.4532804	3.5434184	38.689766	-9.335868	80.6	109.0	5.0	0.0	
14.43	7.6482773	-1.1851299	4.689044	38.689766	-9.335868	80.6	109.0	5.0	0.0	
14.44	7.627927	-1.0378864	5.6790466	38.689766	-9.335868	80.6	109.0	5.0	0.0	
14.450000000000001	7.3442135	-1.0390835	6.43322	38.689766	-9.335868	80.6	109.0	5.0	0.0	
14.46	6.8522053	-1.1061212	6.939594	38.689766	-9.335868	80.6	109.0	5.0	0.0	
14.47	6.2883706	-1.1971009	7.147889	38.689766	-9.335868	80.6	109.0	5.0	0.0	
14.48	5.7125654	-1.2485762	7.091625	38.689766	-9.335868	80.6	109.0	5.0	0.0	
14.49	4.9045224	-1.1444284	6.1064115	38.689766	-9.335868	80.6	109.0	5.0	0.0	
14.5	4.736928	-0.90979666	5.5389857	38.689766	-9.335868	80.6	109.0	5.0	0.0	
14.51	4.6339774	-0.6344634	4.933253	38.689766	-9.335868	80.6	109.0	5.0	0.0	
14.52	4.6112323	-0.37588966	4.3382936	38.689766	-9.335868	80.6	109.0	5.0	0.0	
14.530000000000001	4.68665	-0.14963761	3.855862	38.689766	-9.335868	80.6	109.0	5.0	0.0	
14.540000000000001	4.7896004	0.06464344	3.526659	38.689766	-9.335868	80.6	109.0	5.0	0.0	
14.55	4.9105077	0.2705448	3.3770216	38.689766	-9.335868	80.6	109.0	5.0	0.0	
14.56	5.0302176	0.4261679	3.2345665	38.689766	-9.335868	80.6	109.0	5.0	0.0	
14.57	5.044583	0.45130703	3.1028855	38.689766	-9.335868	80.6	109.0	5.0	0.0	
14.58	5.0146556	0.35793316	3.0765493	38.689766	-9.335868	80.6	109.0	5.0	0.0	
14.59	4.8877625	0.16400282	3.1256304	38.689766	-9.335868	80.6	109.0	5.0	0.0	
14.6	4.799177	-0.073023155	3.1615434	38.689766	-9.335868	80.6	109.0	5.0	0.0	
14.61	4.7165775	-0.35793316	3.3674448	38.689766	-9.335868	80.6	109.0	5.0	0.0	
14.620000000000001	4.8255134	-0.51235914	3.9576154	38.689766	-9.335868	80.6	109.0	5.0	0.0	
14.63	5.1547165	-0.6500258	4.537012	38.689766	-9.335868	80.6	109.0	5.0	0.0	
14.64	5.6982	-0.724246	4.997896	38.689766	-9.335868	80.6	109.0	5.0	0.0	
14.65	6.43322	-0.8295909	5.434838	38.689766	-9.335868	80.6	109.0	5.0	0.0	
14.66	7.36217	-1.0127473	5.8717794	38.689766	-9.335868	80.6	109.0	5.0	0.0	
14.67	8.459911	-1.2557588	6.453571	38.689766	-9.335868	80.6	109.0	5.0	0.0	
14.68	9.470264	-1.6304513	7.1885905	38.689766	-9.335868	80.6	109.0	5.0	0.0	
14.69	10.516531	-1.9488802	8.166622	38.689766	-9.335868	80.6	109.0	5.0	0.0	
14.700000000000001	11.493365	-2.054225	9.369708	38.689766	-9.335868	80.6	109.0	5.0	0.0	
14.71	12.210428	-1.9656396	10.496181	38.689766	-9.335868	80.6	109.0	5.0	0.0	
14.72	12.588713	-1.780089	11.316195	38.689766	-9.335868	80.6	109.0	5.0	0.0	
14.73	12.628217	-1.5801731	11.765107	38.689766	-9.335868	80.6	109.0	5.0	0.0	
14.74	12.337321	-1.5263035	11.963826	38.689766	-9.335868	80.6	109.0	5.0	0.0	
14.75	11.668142	-1.6017209	11.803414	38.689766	-9.335868	80.6	109.0	5.0	0.0	
14.76	10.747571	-1.7429788	11.456255	38.689766	-9.335868	80.6	109.0	5.0	0.0	
14.77	9.855731	-1.8339585	11.071986	38.689766	-9.335868	80.6	109.0	5.0	0.0	
14.780000000000001	9.075222	-1.8351556	10.59554	38.689766	-9.335868	80.6	109.0	5.0	0.0	
14.790000000000001	8.395268	-1.6891093	9.898827	38.689766	-9.335868	80.6	109.0	5.0	0.0	
14.8	7.8709383	-1.3874398	9.229648	38.689766	-9.335868	80.6	109.0	5.0	0.0	
14.81	7.404069	-1.0749966	8.67539	38.689766	-9.335868	80.6	109.0	5.0	0.0	
14.82	6.9168487	-0.81642276	8.039729	38.689766	-9.335868	80.6	109.0	5.0	0.0	
14.83	6.3949127	-0.8451532	6.9647326	38.689766	-9.335868	80.6	109.0	5.0	0.0	
14.84	6.1782374	-1.3036429	5.746084	38.689766	-9.335868	80.6	109.0	5.0	0.0	
14.85	6.2967505	-2.0039468	4.9164934	38.689766	-9.335868	80.6	109.0	5.0	0.0	
14.86	6.7468605	-2.396596	4.662708	38.689766	-9.335868	80.6	109.0	5.0	0.0	
14.870000000000001	7.6410947	-2.505532	4.6938324	38.689766	-9.335868	80.6	109.0	5.0	0.0	
14.88	8.823831	-2.6276364	4.7500963	38.689766	-9.335868	80.6	109.0	5.0	0.0	
14.89	10.079589	-2.7952304	5.1822495	38.689766	-9.335868	80.6	109.0	5.0	0.0	
14.9	11.166556	-2.8550856	6.3745623	38.689766	-9.335868	80.6	109.0	5.0	0.0	
14.91	11.953052	-2.6982653	7.77517	38.689766	-9.335868	80.6	109.0	5.0	0.0	
14.92	12.221203	-2.7269957	8.848969	38.689766	-9.335868	80.6	109.0	5.0	0.0	
14.93	11.6669445	-3.3279405	9.423578	38.689766	-9.335868	80.6	109.0	5.0	0.0	
14.94	10.554838	-4.2197804	9.583989	38.689766	-9.335868	80.6	109.0	5.0	0.0	
14.950000000000001	9.556456	-5.1475334	9.610326	38.689766	-9.335868	80.6	109.0	5.0	0.0	
14.96	7.9906483	-5.768829	9.667787	38.689766	-9.335868	80.6	109.0	5.0	0.0	
14.97	7.429208	-5.483919	9.173384	38.689766	-9.335868	80.6	109.0	5.0	0.0	
14.98	7.27957	-5.019444	8.672996	38.689766	-9.335868	80.6	109.0	5.0	0.0	
14.99	7.45315	-4.4005427	8.2169	38.689766	-9.335868	80.6	109.0	5.0	0.0	
15.0	7.7320743	-3.774459	7.631518	38.689766	-9.335868	80.6	109.0	5.0	0.0	
15.01	7.9391727	-3.1244333	6.847417	38.689766	-9.335868	80.6	109.0	5.0	0.0	
15.02	7.9391727	-2.528277	5.8586116	38.689766	-9.335868	80.6	109.0	5.0	0.0	
15.030000000000001	7.8446016	-2.0147207	4.8362875	38.689766	-9.335868	80.6	109.0	5.0	0.0	
15.040000000000001	7.5668745	-1.5969325	3.9240966	38.689766	-9.335868	80.6	109.0	5.0	0.0	
15.05	7.1586633	-1.2617443	3.0753522	38.689766	-9.335868	80.6	109.0	5.0	0.0	
15.06	6.647501	-1.0402806	2.3594859	38.689766	-9.335868	80.6	109.0	5.0	0.0	
15.07	6.0920463	-0.89423436	1.8650831	38.689766	-9.335868	80.6	109.0	5.0	0.0	
15.08	5.544971	-0.7565677	1.5394717	38.689766	-9.335868	80.6	109.0	5.0	0.0	
15.09	5.052963	-0.6440403	1.3742718	38.689766	-9.335868	80.6	109.0	5.0	0.0	
15.1	4.72376	-0.5566519	1.353921	38.689766	-9.335868	80.6	109.0	5.0	0.0	
15.11	4.5274353	-0.4297592	1.5023615	38.689766	-9.335868	80.6	109.0	5.0	0.0	
15.120000000000001	4.4699745	-0.30047232	1.7262194	38.689766	-9.335868	80.6	109.0	5.0	0.0	
15.13	4.5202527	-0.15801731	1.9548657	38.689766	-9.335868	80.6	109.0	5.0	0.0	
15.14	4.6962266	0.005985504	2.291251	38.689766	-9.335868	80.6	67.0	5.0	0.0	
15.15	4.903325	0.14724341	2.7126305	38.689766	-9.335868	80.6	67.0	5.0	0.0	
15.16	4.903325	0.14724341	2.7126305	38.689766	-9.335868	80.6	67.0	5.0	0.0	
15.17	4.903325	0.14724341	2.7126305	38.689766	-9.335868	80.6	67.0	5.0	0.0	
15.18	5.3366756	0.055066638	4.0138793	38.689766	-9.335868	80.6	67.0	5.0	0.0	
15.19	5.3857565	-0.038307227	4.5382094	38.689766	-9.335868	80.6	67.0	5.0	0.0	
15.200000000000001	5.445612	-0.16280572	4.959589	38.689766	-9.335868	80.6	67.0	5.0	0.0	
15.21	5.506664	-0.3196259	5.3043537	38.689766	-9.335868	80.6	67.0	5.0	0.0	
15.22	5.6203885	-0.58657944	5.5126495	38.689766	-9.335868	80.6	67.0	5.0	0.0	
15.23	5.8226986	-0.9504981	5.5581393	38.689766	-9.335868	80.6	67.0	5.0	0.0	
15.24	6.1279593	-1.2593501	5.747281	38.689766	-9.335868	80.6	67.0	5.0	0.0	
15.25	6.6079965	-1.4425066	6.3446345	38.689766	-9.335868	80.6	67.0	5.0	0.0	
15.26	7.2831616	-1.5143325	7.2831616	38.689766	-9.335868	80.6	67.0	5.0	0.0	
15.27	7.953538	-1.435324	8.324639	38.689766	-9.335868	80.6	67.0	5.0	0.0	
15.280000000000001	8.558074	-1.282095	9.408015	38.689766	-9.335868	80.6	67.0	5.0	0.0	
15.290000000000001	8.944737	-1.1288661	10.172963	38.689766	-9.335868	80.6	67.0	5.0	0.0	
15.3	9.00579	-0.9648633	10.553641	38.689766	-9.335868	80.6	67.0	5.0	0.0	
15.31	8.708909	-0.81761986	10.662578	38.689766	-9.335868	80.6	67.0	5.0	0.0	
15.32	8.139089	-0.8738836	10.333375	38.689766	-9.335868	80.6	67.0	5.0	0.0	
15.33	7.398083	-1.1827357	9.623494	38.689766	-9.335868	80.6	67.0	5.0	0.0	
15.34	6.7205243	-1.5705963	8.902839	38.689766	-9.335868	80.6	67.0	5.0	0.0	
15.35	6.7205243	-1.5705963	8.902839	38.689766	-9.335868	80.6	67.0	5.0	0.0	
15.36	6.7205243	-1.5705963	8.902839	38.689766	-9.335868	80.6	67.0	5.0	0.0	
15.370000000000001	5.731719	-2.135628	7.3849154	38.689766	-9.335868	80.6	67.0	5.0	0.0	
15.38	5.731719	-2.135628	7.3849154	38.689766	-9.335868	80.6	67.0	5.0	0.0	
15.39	6.2644286	-1.6687586	7.1993647	38.689766	-9.335868	80.6	67.0	5.0	0.0	
15.4	6.5325794	-1.3982137	6.9491706	38.689766	-9.335868	80.6	67.0	5.0	0.0	
15.41	6.754043	-1.1360487	6.493075	38.689766	-9.335868	80.6	67.0	5.0	0.0	
15.42	6.815095	-0.9708488	5.9448028	38.689766	-9.335868	80.6	67.0	5.0	0.0	
15.43	6.7588315	-0.93852705	5.3462524	38.689766	-9.335868	80.6	67.0	5.0	0.0	
15.44	6.609194	-0.985214	4.5046906	38.689766	-9.335868	80.6	67.0	5.0	0.0	
15.450000000000001	6.7839704	-0.94810385	4.4819455	38.689766	-9.335868	80.6	67.0	5.0	0.0	
15.46	7.133524	-0.8499416	4.847061	38.689766	-9.335868	80.6	67.0	5.0	0.0	
15.47	7.513005	-0.8571242	5.2756233	38.689766	-9.335868	80.6	67.0	5.0	0.0	
