# OpenSignals Text File Format
# {"internal sensors": {"sensor": ["xAcc", "yAcc", "zAcc", "Latitude", "Longitude", "Altitude", "Light", "distance", "SigMotion"], "device name": "internal sensors", "column": ["nSeq", "xAcc", "yAcc", "zAcc", "Latitude", "Longitude", "Altitude", "Light", "distance", "SigMotion"], "sync interval": 2, "time": "14:55:57", "comments": "", "keywords": "", "device connection": "UNKNOWNinternal sensors", "channels": [0, 1, 2, 3, 4, 5, 6, 7, 8], "date": "2020-07-17", "mode": 0, "digital IO": [], "firmware version": 0, "device": "android", "position": 0, "sampling rate": 100, "label": ["xAcc", "yAcc", "zAcc", "Latitude", "Longitude", "Altitude", "Light", "distance", "SigMotion"], "resolution": [1, 1, 1, 1, 1, 1, 1, 1, 1], "special": [{}, {}, {}, {}, {}, {}, {}, {}, {}], "sleeve color": ["UNKNOWN", "UNKNOWN", "UNKNOWN", "UNKNOWN", "UNKNOWN", "UNKNOWN", "UNKNOWN", "UNKNOWN", "UNKNOWN"]}}
# EndOfHeader
0.0	0.147243409	-0.28371289	9.6606039	38.689762	-9.3358679	80.59	114.0	5.0	0.0	
0.01	0.147243409	-0.28371289	9.6606039	38.689762	-9.3358679	80.59	114.0	5.0	0.0	
0.02	0.147243409	-0.28371289	9.6606039	38.689762	-9.3358679	80.59	114.0	5.0	0.0	
0.03	0.147243409	-0.28371289	9.6606039	38.689762	-9.3358679	80.59	114.0	5.0	0.0	
0.04	0.147243409	-0.28371289	9.6606039	38.689762	-9.3358679	80.59	114.0	5.0	0.0	
0.05	0.147243409	-0.28371289	9.6606039	38.689762	-9.3358679	80.59	114.0	5.0	0.0	
0.06	0.147243409	-0.28371289	9.6606039	38.689762	-9.3358679	80.59	114.0	5.0	0.0	
0.07	0.147243409	-0.28371289	9.6606039	38.689762	-9.3358679	80.59	114.0	5.0	0.0	
0.08	0.147243409	-0.28371289	9.6606039	38.689762	-9.3358679	80.59	114.0	5.0	0.0	
0.09	0.147243409	-0.28371289	9.6606039	38.689762	-9.3358679	80.59	114.0	5.0	0.0	
0.1	0.164002819	-0.2789245	9.607931	38.689762	-9.3358679	80.59	114.0	5.0	0.0	
0.11	0.164002819	-0.2789245	9.607931	38.689762	-9.3358679	80.59	114.0	5.0	0.0	
0.12	0.202310039	-0.26216509	9.615114	38.689762	-9.3358679	80.59	114.0	5.0	0.0	
0.13	0.205901339	-0.26336219	9.6330709	38.689762	-9.3358679	80.59	114.0	5.0	0.0	
0.14	0.205901339	-0.26336219	9.6330709	38.689762	-9.3358679	80.59	114.0	5.0	0.0	
0.15	0.205901339	-0.26336219	9.6330709	38.689762	-9.3358679	80.59	114.0	5.0	0.0	
0.16	0.205901339	-0.26336219	9.6330709	38.689762	-9.3358679	80.59	114.0	5.0	0.0	
0.17	0.205901339	-0.26336219	9.6330709	38.689762	-9.3358679	80.59	114.0	5.0	0.0	
0.18	0.185550629	-0.23582886	9.691729	38.689762	-9.3358679	80.59	114.0	5.0	0.0	
0.19	0.17717093	-0.207098449	9.692925	38.689762	-9.3358679	80.59	114.0	5.0	0.0	
0.2	0.17717093	-0.207098449	9.692925	38.689762	-9.3358679	80.59	114.0	5.0	0.0	
0.21	0.17118542	-0.196324539	9.680955	38.689762	-9.3358679	80.59	114.0	5.0	0.0	
0.22	0.17238252	-0.20350714	9.6845455	38.689762	-9.3358679	80.59	114.0	5.0	0.0	
0.23	0.174776719	-0.22625206	9.689334	38.689762	-9.3358679	80.59	114.0	5.0	0.0	
0.24	0.174776719	-0.22625206	9.694122	38.689762	-9.3358679	80.59	114.0	5.0	0.0	
0.25	0.208295549	-0.26336219	9.6210989	38.689762	-9.3358679	80.59	114.0	5.0	0.0	
0.26	0.208295549	-0.26336219	9.6210989	38.689762	-9.3358679	80.59	114.0	5.0	0.0	
0.27	0.22266077	-0.26336219	9.6210989	38.689762	-9.3358679	80.59	114.0	5.0	0.0	
0.28	0.21667525	-0.2765303	9.5923689	38.689762	-9.3358679	80.59	114.0	5.0	0.0	
0.29	0.21667525	-0.2765303	9.5923689	38.689762	-9.3358679	80.59	114.0	5.0	0.0	
0.3	0.19512744	-0.2777274	9.5552589	38.689762	-9.3358679	80.59	114.0	5.0	0.0	
0.31	0.164002819	-0.296881019	9.558849	38.689762	-9.3358679	80.59	114.0	5.0	0.0	
0.32	0.13646949	-0.296881019	9.5660329	38.689762	-9.3358679	80.59	114.0	5.0	0.0	
0.33	0.120907189	-0.294486819	9.5923689	38.689762	-9.3358679	80.59	114.0	5.0	0.0	
0.34	0.120907189	-0.27174189	9.6163109	38.689762	-9.3358679	80.59	114.0	5.0	0.0	
0.35	0.11971009	-0.257376669	9.622296	38.689762	-9.3358679	80.59	114.0	5.0	0.0	
0.36	0.13527239	-0.234631759	9.631873	38.689762	-9.3358679	80.59	114.0	5.0	0.0	
0.37	0.147243409	-0.22266077	9.6282829	38.689762	-9.3358679	80.59	114.0	5.0	0.0	
0.38	0.16160862	-0.22026655	9.6594069	38.689762	-9.3358679	80.59	114.0	5.0	0.0	
0.39	0.18674773	-0.23582886	9.692925	38.689762	-9.3358679	80.59	114.0	5.0	0.0	
0.4	0.205901339	-0.23582886	9.692925	38.689762	-9.3358679	80.59	114.0	5.0	0.0	
0.41	0.228646259	-0.233434659	9.698911	38.689762	-9.3358679	80.59	114.0	5.0	0.0	
0.42	0.257376669	-0.25258827	9.6881369	38.689762	-9.3358679	80.59	114.0	5.0	0.0	
0.43	0.259770869	-0.250194069	9.685743	38.689762	-9.3358679	80.59	114.0	5.0	0.0	
0.44	0.24899697	-0.24181437	9.67018	38.689762	-9.3358679	80.59	114.0	5.0	0.0	
0.45	0.23104046	-0.23822308	9.64145	38.689762	-9.3358679	80.59	114.0	5.0	0.0	
0.46	0.18914193	-0.233434659	9.613917	38.689762	-9.3358679	80.59	114.0	5.0	0.0	
0.47	0.168791219	-0.25617957	9.5995519	38.689762	-9.3358679	80.59	114.0	5.0	0.0	
0.48	0.13168109	-0.2681506	9.5947639	38.689762	-9.3358679	80.59	114.0	5.0	0.0	
0.49	0.1089361759	-0.2753332	9.600749	38.689762	-9.3358679	80.59	114.0	5.0	0.0	
0.5	0.104147779	-0.28371289	9.6067339	38.689762	-9.3358679	80.59	114.0	5.0	0.0	
0.51	0.11133038	-0.28371289	9.6067339	38.689762	-9.3358679	80.59	114.0	5.0	0.0	
0.52	0.12689269	-0.27413609	9.589975	38.689762	-9.3358679	80.59	114.0	5.0	0.0	
0.53	0.158017309	-0.2657564	9.595961	38.689762	-9.3358679	80.59	114.0	5.0	0.0	
0.54	0.184353529	-0.26216509	9.5935659	38.689762	-9.3358679	80.59	114.0	5.0	0.0	
0.55	0.22026655	-0.2693477	9.6258879	38.689762	-9.3358679	80.59	114.0	5.0	0.0	
0.56	0.24420857	-0.2669535	9.6270849	38.689762	-9.3358679	80.59	114.0	5.0	0.0	
0.57	0.23822308	-0.257376669	9.643845	38.689762	-9.3358679	80.59	114.0	5.0	0.0	
0.58	0.23822308	-0.26216509	9.6522249	38.689762	-9.3358679	80.59	114.0	5.0	0.0	
0.59	0.22625206	-0.251391169	9.661801	38.689762	-9.3358679	80.59	114.0	5.0	0.0	
0.6	0.19991584	-0.246602769	9.665392	38.689762	-9.3358679	80.59	114.0	5.0	0.0	
0.61	0.17836803	-0.23582886	9.671378	38.689762	-9.3358679	80.59	114.0	5.0	0.0	
0.62	0.1592144	-0.229843359	9.668983	38.689762	-9.3358679	80.59	114.0	5.0	0.0	
0.63	0.1436521	-0.225054959	9.645041	38.689762	-9.3358679	80.59	114.0	5.0	0.0	
0.64	0.13527239	-0.21547815	9.6402529	38.689762	-9.3358679	80.59	114.0	5.0	0.0	
0.65	0.1304839	-0.22625206	9.6210989	38.689762	-9.3358679	80.59	114.0	5.0	0.0	
0.66	0.13527239	-0.240617279	9.6354649	38.689762	-9.3358679	80.59	114.0	5.0	0.0	
0.67	0.15442601	-0.2609679	9.6426479	38.689762	-9.3358679	80.59	114.0	5.0	0.0	
0.68	0.17717093	-0.2789245	9.6270849	38.689762	-9.3358679	80.59	114.0	5.0	0.0	
0.69	0.191536129	-0.2885013	9.598354	38.689762	-9.3358679	80.59	114.0	5.0	0.0	
0.7	0.21428105	-0.29089549	9.6019459	38.689762	-9.3358679	80.59	114.0	5.0	0.0	
0.71	0.225054959	-0.284909	9.583989	38.689762	-9.3358679	80.59	114.0	5.0	0.0	
0.72	0.219069449	-0.2777274	9.5792009	38.689762	-9.3358679	80.59	114.0	5.0	0.0	
0.73	0.19512744	-0.27413609	9.5827919	38.689762	-9.3358679	80.59	114.0	5.0	0.0	
0.74	0.174776719	-0.2669535	9.5887779	38.689762	-9.3358679	80.59	114.0	5.0	0.0	
0.75	0.16759412	-0.2729389	9.6055369	38.689762	-9.3358679	80.59	114.0	5.0	0.0	
0.76	0.14604631	-0.27174189	9.634268	38.689762	-9.3358679	80.59	114.0	5.0	0.0	
0.77	0.14125789	-0.24899697	9.655815	38.689762	-9.3358679	80.59	114.0	5.0	0.0	
0.78	0.1592144	-0.24181437	9.655815	38.689762	-9.3358679	80.59	114.0	5.0	0.0	
0.79	0.169988319	-0.22625206	9.6570129	38.689762	-9.3358679	80.59	114.0	5.0	0.0	
0.8	0.18794483	-0.217872349	9.6510269	38.689762	-9.3358679	80.59	114.0	5.0	0.0	
0.81	0.205901339	-0.225054959	9.6594069	38.689762	-9.3358679	80.59	114.0	5.0	0.0	
0.82	0.21068975	-0.24301147	9.6773629	38.689762	-9.3358679	80.59	114.0	5.0	0.0	
0.83	0.20350714	-0.24181437	9.671378	38.689762	-9.3358679	80.59	114.0	5.0	0.0	
0.84	0.19273324	-0.25498247	9.67018	38.689762	-9.3358679	80.59	114.0	5.0	0.0	
0.85	0.191536129	-0.2669535	9.6210989	38.689762	-9.3358679	80.59	114.0	5.0	0.0	
0.86	0.17597382	-0.258573769	9.6055369	38.689762	-9.3358679	80.59	114.0	5.0	0.0	
0.87	0.164002819	-0.259770869	9.600749	38.689762	-9.3358679	80.59	114.0	5.0	0.0	
0.88	0.156820209	-0.258573769	9.591172	38.689762	-9.3358679	80.59	114.0	5.0	0.0	
0.89	0.1436521	-0.2789245	9.5803989	38.689762	-9.3358679	80.59	114.0	5.0	0.0	
0.9	0.153228909	-0.2777274	9.581595	38.689762	-9.3358679	80.59	114.0	5.0	0.0	
0.91	0.15442601	-0.28251579	9.598354	38.689762	-9.3358679	80.59	114.0	5.0	0.0	
0.92	0.16639702	-0.2777274	9.595961	38.689762	-9.3358679	80.59	114.0	5.0	0.0	
0.93	0.174776719	-0.2609679	9.6031429	38.689762	-9.3358679	80.59	114.0	5.0	0.0	
0.94	0.18914193	-0.26216509	9.631873	38.689762	-9.3358679	80.59	114.0	5.0	0.0	
0.95	0.202310039	-0.2669535	9.6258879	38.689762	-9.3358679	80.59	114.0	5.0	0.0	
0.96	0.202310039	-0.250194069	9.6354649	38.689762	-9.3358679	80.59	114.0	5.0	0.0	
0.97	0.202310039	-0.24420857	9.6522249	38.689762	-9.3358679	80.59	114.0	5.0	0.0	
0.98	0.18195933	-0.228646259	9.671378	38.689762	-9.3358679	80.59	114.0	5.0	0.0	
0.99	0.17118542	-0.22625206	9.692925	38.689762	-9.3358679	80.59	114.0	5.0	0.0	
1.0	0.174776719	-0.233434659	9.7001089	38.689762	-9.3358679	80.59	114.0	5.0	0.0	
1.01	0.164002819	-0.225054959	9.682152	38.689762	-9.3358679	80.59	114.0	5.0	0.0	
1.02	0.17118542	-0.229843359	9.665392	38.689762	-9.3358679	80.59	114.0	5.0	0.0	
1.03	0.16759412	-0.23104046	9.6426479	38.689762	-9.3358679	80.59	114.0	5.0	0.0	
1.04	0.17597382	-0.24779987	9.6306759	38.689762	-9.3358679	80.59	114.0	5.0	0.0	
1.05	0.18914193	-0.257376669	9.6187059	38.689762	-9.3358679	80.59	114.0	5.0	0.0	
1.06	0.184353529	-0.27174189	9.631873	38.689762	-9.3358679	80.59	114.0	5.0	0.0	
1.07	0.190339029	-0.293289719	9.6187059	38.689762	-9.3358679	80.59	114.0	5.0	0.0	
1.08	0.20350714	-0.28251579	9.6067339	38.689762	-9.3358679	80.59	114.0	5.0	0.0	
1.09	0.19991584	-0.293289719	9.612719	38.689762	-9.3358679	80.59	114.0	5.0	0.0	
1.1	0.179565129	-0.2765303	9.5995519	38.689762	-9.3358679	80.59	114.0	5.0	0.0	
1.11	0.16759412	-0.259770869	9.6067339	38.689762	-9.3358679	80.59	114.0	5.0	0.0	
1.12	0.16759412	-0.257376669	9.615114	38.689762	-9.3358679	80.59	114.0	5.0	0.0	
1.13	0.15442601	-0.25498247	9.607931	38.689762	-9.3358679	80.59	114.0	5.0	0.0	
1.14	0.156820209	-0.259770869	9.6366619	38.689762	-9.3358679	80.59	112.0	5.0	0.0	
1.15	0.1604115	-0.26455929	9.6534209	38.689762	-9.3358679	80.59	112.0	5.0	0.0	
1.16	0.174776719	-0.25378537	9.665392	38.689762	-9.3358679	80.59	112.0	5.0	0.0	
1.17	0.174776719	-0.25378537	9.665392	38.689762	-9.3358679	80.59	112.0	5.0	0.0	
1.18	0.197521639	-0.245405669	9.6546179	38.689762	-9.3358679	80.59	112.0	5.0	0.0	
1.19	0.19991584	-0.24420857	9.623494	38.689762	-9.3358679	80.59	112.0	5.0	0.0	
1.2	0.19871874	-0.240617279	9.6330709	38.689762	-9.3358679	80.59	112.0	5.0	0.0	
1.21	0.169988319	-0.24301147	9.645041	38.689762	-9.3358679	80.59	112.0	5.0	0.0	
1.22	0.16519992	-0.25258827	9.655815	38.689762	-9.3358679	80.59	112.0	5.0	0.0	
1.23	0.14963761	-0.2693477	9.65821	38.689762	-9.3358679	80.59	112.0	5.0	0.0	
1.24	0.152031809	-0.2657564	9.661801	38.689762	-9.3358679	80.59	112.0	5.0	0.0	
1.25	0.1592144	-0.24779987	9.637859	38.689762	-9.3358679	80.59	112.0	5.0	0.0	
1.26	0.17836803	-0.23582886	9.5947639	38.689762	-9.3358679	80.59	112.0	5.0	0.0	
1.27	0.201112939	-0.2609679	9.5935659	38.689762	-9.3358679	80.59	112.0	5.0	0.0	
1.28	0.22266077	-0.26455929	9.598354	38.689762	-9.3358679	80.59	112.0	5.0	0.0	
1.29	0.23223756	-0.29089549	9.624691	38.689762	-9.3358679	80.59	112.0	5.0	0.0	
1.3	0.234631759	-0.304063619	9.637859	38.689762	-9.3358679	80.59	112.0	5.0	0.0	
1.31	0.22625206	-0.31244332	9.6282829	38.689762	-9.3358679	80.59	112.0	5.0	0.0	
1.32	0.21547815	-0.2885013	9.6366619	38.689762	-9.3358679	80.59	112.0	5.0	0.0	
1.33	0.18794483	-0.251391169	9.622296	38.689762	-9.3358679	80.59	112.0	5.0	0.0	
1.34	0.162805719	-0.24301147	9.6187059	38.689762	-9.3358679	80.59	112.0	5.0	0.0	
1.35	0.1376666	-0.22146365	9.617508	38.689762	-9.3358679	80.59	112.0	5.0	0.0	
1.36	0.13527239	-0.22146365	9.64145	38.689762	-9.3358679	80.59	112.0	5.0	0.0	
1.37	0.1340753	-0.233434659	9.679757	38.689762	-9.3358679	80.59	112.0	5.0	0.0	
1.38	0.13646949	-0.24420857	9.672575	38.689762	-9.3358679	80.59	112.0	5.0	0.0	
1.39	0.153228909	-0.23822308	9.6594069	38.689762	-9.3358679	80.59	112.0	5.0	0.0	
1.4	0.169988319	-0.251391169	9.661801	38.689762	-9.3358679	80.59	112.0	5.0	0.0	
1.41	0.18674773	-0.24301147	9.648633	38.689762	-9.3358679	80.59	112.0	5.0	0.0	
1.42	0.18794483	-0.25617957	9.646238	38.689762	-9.3358679	80.59	112.0	5.0	0.0	
1.43	0.201112939	-0.257376669	9.6294789	38.689762	-9.3358679	80.59	112.0	5.0	0.0	
1.44	0.20350714	-0.258573769	9.624691	38.689762	-9.3358679	80.59	112.0	5.0	0.0	
1.45	0.207098449	-0.26455929	9.623494	38.689762	-9.3358679	80.59	112.0	5.0	0.0	
1.46	0.190339029	-0.2669535	9.6270849	38.689762	-9.3358679	80.59	112.0	5.0	0.0	
1.47	0.173579619	-0.26336219	9.631873	38.689762	-9.3358679	80.59	112.0	5.0	0.0	
1.48	0.179565129	-0.27174189	9.6402529	38.689762	-9.3358679	80.59	112.0	5.0	0.0	
1.49	0.185550629	-0.259770869	9.6570129	38.689762	-9.3358679	80.59	112.0	5.0	0.0	
1.5	0.197521639	-0.2609679	9.6522249	38.689762	-9.3358679	80.59	112.0	5.0	0.0	
1.51	0.201112939	-0.24301147	9.631873	38.689762	-9.3358679	80.59	112.0	5.0	0.0	
1.52	0.207098449	-0.250194069	9.6091289	38.689762	-9.3358679	80.59	112.0	5.0	0.0	
1.53	0.190339029	-0.23942018	9.631873	38.689762	-9.3358679	80.59	112.0	5.0	0.0	
1.54	0.17717093	-0.25258827	9.643845	38.689762	-9.3358679	80.59	112.0	5.0	0.0	
1.55	0.17118542	-0.2609679	9.655815	38.689762	-9.3358679	80.59	112.0	5.0	0.0	
1.56	0.1592144	-0.2657564	9.6546179	38.689762	-9.3358679	80.59	112.0	5.0	0.0	
1.57	0.1448492	-0.259770869	9.643845	38.689762	-9.3358679	80.59	112.0	5.0	0.0	
1.58	0.1424549	-0.246602769	9.6534209	38.689762	-9.3358679	80.59	112.0	5.0	0.0	
1.59	0.1388637	-0.23223756	9.6522249	38.689762	-9.3358679	80.59	112.0	5.0	0.0	
1.6	0.13646949	-0.234631759	9.617508	38.689762	-9.3358679	80.59	112.0	5.0	0.0	
1.61	0.1592144	-0.24899697	9.5780039	38.689762	-9.3358679	80.59	112.0	5.0	0.0	
1.62	0.17118542	-0.2609679	9.5851869	38.689762	-9.3358679	80.59	112.0	5.0	0.0	
1.63	0.18195933	-0.2801216	9.649829	38.689762	-9.3358679	80.59	112.0	5.0	0.0	
1.64	0.197521639	-0.2777274	9.6594069	38.689762	-9.3358679	80.59	112.0	5.0	0.0	
1.65	0.207098449	-0.295683919	9.674969	38.689762	-9.3358679	80.59	112.0	5.0	0.0	
1.66	0.213083949	-0.2801216	9.6546179	38.689762	-9.3358679	80.59	112.0	5.0	0.0	
1.67	0.22146365	-0.24899697	9.64145	38.689762	-9.3358679	80.59	112.0	5.0	0.0	
1.68	0.19393034	-0.22026655	9.6055369	38.689762	-9.3358679	80.59	112.0	5.0	0.0	
1.69	0.16759412	-0.22266077	9.586384	38.689762	-9.3358679	80.59	112.0	5.0	0.0	
1.7	0.153228909	-0.23702596	9.607931	38.689762	-9.3358679	80.59	112.0	5.0	0.0	
1.71	0.129286889	-0.25258827	9.623494	38.689762	-9.3358679	80.59	112.0	5.0	0.0	
1.72	0.11611878	-0.2789245	9.6641949	38.689762	-9.3358679	80.59	112.0	5.0	0.0	
1.73	0.13527239	-0.27413609	9.6977139	38.689762	-9.3358679	80.59	112.0	5.0	0.0	
1.74	0.156820209	-0.24779987	9.661801	38.689762	-9.3358679	80.59	112.0	5.0	0.0	
1.75	0.184353529	-0.217872349	9.624691	38.689762	-9.3358679	80.59	112.0	5.0	0.0	
1.76	0.211886849	-0.22146365	9.5995519	38.689762	-9.3358679	80.59	112.0	5.0	0.0	
1.77	0.22146365	-0.21667525	9.6031429	38.689762	-9.3358679	80.59	112.0	5.0	0.0	
1.78	0.22146365	-0.246602769	9.6282829	38.689762	-9.3358679	80.59	112.0	5.0	0.0	
1.79	0.22266077	-0.2789245	9.6510269	38.689762	-9.3358679	80.59	112.0	5.0	0.0	
1.8	0.21667525	-0.306457819	9.6606039	38.689762	-9.3358679	80.59	112.0	5.0	0.0	
1.81	0.20470424	-0.302866519	9.665392	38.689762	-9.3358679	80.59	112.0	5.0	0.0	
1.82	0.197521639	-0.2885013	9.643845	38.689762	-9.3358679	80.59	112.0	5.0	0.0	
1.83	0.17238252	-0.2753332	9.6270849	38.689762	-9.3358679	80.59	112.0	5.0	0.0	
1.84	0.17118542	-0.24420857	9.6055369	38.689762	-9.3358679	80.59	112.0	5.0	0.0	
1.85	0.16519992	-0.228646259	9.6055369	38.689762	-9.3358679	80.59	112.0	5.0	0.0	
1.86	0.152031809	-0.22026655	9.613917	38.689762	-9.3358679	80.59	112.0	5.0	0.0	
1.87	0.169988319	-0.25258827	9.637859	38.689762	-9.3358679	80.59	112.0	5.0	0.0	
1.88	0.17238252	-0.2609679	9.6761669	38.689762	-9.3358679	80.59	112.0	5.0	0.0	
1.89	0.18914193	-0.2669535	9.680955	38.689762	-9.3358679	80.59	112.0	5.0	0.0	
1.9	0.190339029	-0.27413609	9.6737719	38.689762	-9.3358679	80.59	112.0	5.0	0.0	
1.91	0.191536129	-0.240617279	9.6546179	38.689762	-9.3358679	80.59	112.0	5.0	0.0	
1.92	0.19273324	-0.23702596	9.6282829	38.689762	-9.3358679	80.59	112.0	5.0	0.0	
1.93	0.17597382	-0.23104046	9.6294789	38.689762	-9.3358679	80.59	112.0	5.0	0.0	
1.94	0.17238252	-0.245405669	9.6258879	38.689762	-9.3358679	80.59	112.0	5.0	0.0	
1.95	0.15442601	-0.2609679	9.631873	38.689762	-9.3358679	80.59	112.0	5.0	0.0	
1.96	0.147243409	-0.2681506	9.6426479	38.689762	-9.3358679	80.59	112.0	5.0	0.0	
1.97	0.1328782	-0.27413609	9.645041	38.689762	-9.3358679	80.59	112.0	5.0	0.0	
1.98	0.1340753	-0.27054479	9.619903	38.689762	-9.3358679	80.59	112.0	5.0	0.0	
1.99	0.1388637	-0.258573769	9.6091289	38.689762	-9.3358679	80.59	112.0	5.0	0.0	
2.0	0.1436521	-0.24301147	9.6426479	38.689762	-9.3358679	80.59	112.0	5.0	0.0	
2.01	0.147243409	-0.24420857	9.6426479	38.689762	-9.3358679	80.59	112.0	5.0	0.0	
2.02	0.16639702	-0.22744916	9.643845	38.689762	-9.3358679	80.59	112.0	5.0	0.0	
2.03	0.197521639	-0.251391169	9.6629979	38.689762	-9.3358679	80.59	112.0	5.0	0.0	
2.04	0.223857859	-0.25378537	9.692925	38.689762	-9.3358679	80.59	112.0	5.0	0.0	
2.05	0.22266077	-0.258573769	9.718064	38.689762	-9.3358679	80.59	112.0	5.0	0.0	
2.06	0.205901339	-0.24301147	9.7312329	38.689762	-9.3358679	80.59	112.0	5.0	0.0	
2.07	0.19991584	-0.223857859	9.727641	38.689762	-9.3358679	80.59	112.0	5.0	0.0	
2.08	0.191536129	-0.201112939	9.738416	38.689762	-9.3358679	80.59	112.0	5.0	0.0	
2.09	0.201112939	-0.19991584	9.794679	38.689762	-9.3358679	80.59	112.0	5.0	0.0	
2.1	0.20949265	-0.174776719	9.8593229	38.689762	-9.3358679	80.59	112.0	5.0	0.0	
2.11	0.213083949	-0.17118542	9.9072069	38.689762	-9.3358679	80.59	111.0	5.0	0.0	
2.12	0.233434659	-0.16160862	9.90601	38.689762	-9.3358679	80.59	111.0	5.0	0.0	
2.13	0.24420857	-0.14963761	9.858126	38.689762	-9.3358679	80.59	111.0	5.0	0.0	
2.14	0.251391169	-0.14963761	9.787497	38.689762	-9.3358679	80.59	111.0	5.0	0.0	
2.15	0.24301147	-0.17717093	9.6845455	38.689762	-9.3358679	80.59	111.0	5.0	0.0	
2.16	0.18794483	-0.30885202	9.506178	38.689762	-9.3358679	80.59	111.0	5.0	0.0	
2.17	0.18794483	-0.30885202	9.506178	38.689762	-9.3358679	80.59	111.0	5.0	0.0	
2.18	0.13168109	-0.36511576	9.400833	38.689762	-9.3358679	80.59	111.0	5.0	0.0	
2.19	0.093373865	-0.457292529	9.3074589	38.689762	-9.3358679	80.59	111.0	5.0	0.0	
2.2	0.18794483	-0.591367839	9.1853549	38.689762	-9.3358679	80.59	111.0	5.0	0.0	
2.21	0.098162269	-0.586579439	9.3086559	38.689762	-9.3358679	80.59	111.0	5.0	0.0	
2.22	0.0071826049	-0.53989249	9.3481609	38.689762	-9.3358679	80.59	111.0	5.0	0.0	
2.23	-0.0203507149	-0.46567222	9.4056219	38.689762	-9.3358679	80.59	111.0	5.0	0.0	
2.24	0.0251391179	-0.36391866	9.475053	38.689762	-9.3358679	80.59	111.0	5.0	0.0	
2.25	0.10534488	-0.2777274	9.558849	38.689762	-9.3358679	80.59	111.0	5.0	0.0	
2.26	0.15083471	-0.184353529	9.7324295	38.689762	-9.3358679	80.59	111.0	5.0	0.0	
2.27	0.18794483	-0.14963761	9.8090449	38.689762	-9.3358679	80.59	111.0	5.0	0.0	
2.28	0.225054959	-0.11372458	9.895236	38.689762	-9.3358679	80.59	111.0	5.0	0.0	
2.29	0.28371289	-0.11133038	9.922769	38.689762	-9.3358679	80.59	111.0	5.0	0.0	
2.3	0.33399114	-0.13527239	9.9419219	38.689762	-9.3358679	80.59	111.0	5.0	0.0	
2.31	0.35673606	-0.1592144	9.937134	38.689762	-9.3358679	80.59	111.0	5.0	0.0	
2.32	0.33518824	-0.17836803	9.8641109	38.689762	-9.3358679	80.59	111.0	5.0	0.0	
2.33	0.2669535	-0.20350714	9.752781	38.689762	-9.3358679	80.59	111.0	5.0	0.0	
2.34	0.190339029	-0.25617957	9.631873	38.689762	-9.3358679	80.59	111.0	5.0	0.0	
2.35	0.147243409	-0.29927522	9.537302	38.689762	-9.3358679	80.59	111.0	5.0	0.0	
2.36	0.11611878	-0.36391866	9.475053	38.689762	-9.3358679	80.59	111.0	5.0	0.0	
2.37	0.07182605	-0.4213795	9.4427319	38.689762	-9.3358679	80.59	111.0	5.0	0.0	
2.38	0.0502782349	-0.457292529	9.430759	38.689762	-9.3358679	80.59	111.0	5.0	0.0	
2.39	0.0383072269	-0.47165772	9.4235779	38.689762	-9.3358679	80.59	111.0	5.0	0.0	
2.4	0.073023155	-0.460883829	9.4128039	38.689762	-9.3358679	80.59	111.0	5.0	0.0	
2.41	0.13646949	-0.4225766	9.4068179	38.689762	-9.3358679	80.59	111.0	5.0	0.0	
2.42	0.208295549	-0.380678059	9.4499139	38.689762	-9.3358679	80.59	111.0	5.0	0.0	
2.43	0.26336219	-0.359130259	9.509769	38.689762	-9.3358679	80.59	111.0	5.0	0.0	
2.44	0.28251579	-0.32202014	9.5684269	38.689762	-9.3358679	80.59	111.0	5.0	0.0	
2.45	0.28371289	-0.304063619	9.607931	38.689762	-9.3358679	80.59	111.0	5.0	0.0	
2.46	0.2729389	-0.27413609	9.6282829	38.689762	-9.3358679	80.59	111.0	5.0	0.0	
2.47	0.2801216	-0.2753332	9.6366619	38.689762	-9.3358679	80.59	111.0	5.0	0.0	
2.48	0.2681506	-0.26216509	9.6426479	38.689762	-9.3358679	80.59	111.0	5.0	0.0	
2.49	0.229843359	-0.2681506	9.838972	38.689762	-9.3358679	80.59	111.0	5.0	0.0	
2.5	0.120907189	-0.250194069	10.0209309	38.689762	-9.3358679	80.59	111.0	5.0	0.0	
2.51	-0.0395043269	-0.16519992	10.080787	38.689762	-9.3358679	80.59	111.0	5.0	0.0	
2.52	-0.169988319	-0.045489833	10.012551	38.689762	-9.3358679	80.59	111.0	5.0	0.0	
2.53	-0.18195933	0.04189853	9.882068	38.689762	-9.3358679	80.59	111.0	5.0	0.0	
2.54	-0.061052144	0.088585466	9.753978	38.689762	-9.3358679	80.59	111.0	5.0	0.0	
2.55	0.12210429	0.0071826049	9.65821	38.689762	-9.3358679	80.59	111.0	5.0	0.0	
2.56	0.296881019	-0.156820209	9.6163109	38.689762	-9.3358679	80.59	111.0	5.0	0.0	
2.57	0.38546649	-0.349553439	9.54927349	38.689762	-9.3358679	80.59	111.0	5.0	0.0	
2.58	0.4189853	-0.55425769	9.479841	38.689762	-9.3358679	80.59	111.0	5.0	0.0	
2.59	0.4189853	-0.6572084	9.479841	38.689762	-9.3358679	80.59	111.0	5.0	0.0	
2.6	0.4189853	-0.6572084	9.479841	38.689762	-9.3358679	80.59	111.0	5.0	0.0	
2.61	0.41778819	-0.6883329	9.419987	38.689762	-9.3358679	80.59	111.0	5.0	0.0	
2.62	0.37828386	-0.63566049	9.376891	38.689762	-9.3358679	80.59	111.0	5.0	0.0	
2.63	0.2861071	-0.511162039	9.27872849	38.689762	-9.3358679	80.59	111.0	5.0	0.0	
2.64	0.114921679	-0.37469256	9.2284509	38.689762	-9.3358679	80.59	111.0	5.0	0.0	
2.65	-0.0395043269	-0.2681506	9.291897	38.689762	-9.3358679	80.59	111.0	5.0	0.0	
2.66	-0.14963761	-0.219069449	9.470264	38.689762	-9.3358679	80.59	111.0	5.0	0.0	
2.67	-0.148440509	-0.217872349	9.722853	38.689762	-9.3358679	80.59	111.0	5.0	0.0	
2.68	0.015562311	-0.184353529	10.0233249	38.689762	-9.3358679	80.59	111.0	5.0	0.0	
2.69	0.1388637	-0.120907189	9.953894	38.689762	-9.3358679	80.59	111.0	5.0	0.0	
2.7	0.2693477	-0.08619126	9.858126	38.689762	-9.3358679	80.59	111.0	5.0	0.0	
2.71	0.3878607	-0.0766144539	9.800665	38.689762	-9.3358679	80.59	111.0	5.0	0.0	
2.72	0.460883829	-0.107739076	9.788693	38.689762	-9.3358679	80.59	111.0	5.0	0.0	
2.73	0.466869319	-0.179565129	9.775525	38.689762	-9.3358679	80.59	111.0	5.0	0.0	
2.74	0.41060558	-0.28371289	9.743204	38.689762	-9.3358679	80.59	111.0	5.0	0.0	
2.75	0.295683919	-0.36391866	9.680955	38.689762	-9.3358679	80.59	111.0	5.0	0.0	
2.76	0.174776719	-0.39743748	9.6258879	38.689762	-9.3358679	80.59	111.0	5.0	0.0	
2.77	0.065840549	-0.39624038	9.5708219	38.689762	-9.3358679	80.59	111.0	5.0	0.0	
2.78	-0.022744916	-0.359130259	9.4535055	38.689762	-9.3358679	80.59	111.0	5.0	0.0	
2.79	-0.073023155	-0.339976639	9.352949	38.689762	-9.3358679	80.59	111.0	5.0	0.0	
2.8	-0.075417355	-0.33518824	9.3074589	38.689762	-9.3358679	80.59	111.0	5.0	0.0	
2.81	-0.032321719	-0.34117374	9.364919	38.689762	-9.3358679	80.59	111.0	5.0	0.0	
2.82	0.0239420159	-0.36631286	9.481039	38.689762	-9.3358679	80.59	111.0	5.0	0.0	
2.83	0.107739076	-0.383072259	9.5660329	38.689762	-9.3358679	80.59	111.0	5.0	0.0	
2.84	0.225054959	-0.379480959	9.6522249	38.689762	-9.3358679	80.59	111.0	5.0	0.0	
2.85	0.33039984	-0.34356794	9.7144739	38.689762	-9.3358679	80.59	111.0	5.0	0.0	
2.86	0.39983168	-0.293289719	9.7240505	38.689762	-9.3358679	80.59	111.0	5.0	0.0	
2.87	0.4213795	-0.21428105	9.692925	38.689762	-9.3358679	80.59	111.0	5.0	0.0	
2.88	0.38546649	-0.162805719	9.719262	38.689762	-9.3358679	80.59	111.0	5.0	0.0	
2.89	0.325611439	-0.13646949	9.7719345	38.689762	-9.3358679	80.59	111.0	5.0	0.0	
2.9	0.23104046	-0.1376666	9.8162269	38.689762	-9.3358679	80.59	111.0	5.0	0.0	
2.91	0.1376666	-0.180762229	9.7587659	38.689762	-9.3358679	80.59	111.0	5.0	0.0	
2.92	0.055066638	-0.19393034	9.781511	38.689762	-9.3358679	80.59	111.0	5.0	0.0	
2.93	-0.0059855039	-0.22625206	9.726444	38.689762	-9.3358679	80.59	111.0	5.0	0.0	
2.94	-0.02633622	-0.258573769	9.680955	38.689762	-9.3358679	80.59	111.0	5.0	0.0	
2.95	0.0011971008	-0.2765303	9.586384	38.689762	-9.3358679	80.59	111.0	5.0	0.0	
2.96	0.045489833	-0.30166942	9.518148	38.689762	-9.3358679	80.59	111.0	5.0	0.0	
2.97	0.11971009	-0.35194764	9.430759	38.689762	-9.3358679	80.59	111.0	5.0	0.0	
2.98	0.17836803	-0.3878607	9.4259719	38.689762	-9.3358679	80.59	111.0	5.0	0.0	
2.99	0.24181437	-0.4225766	9.4535055	38.689762	-9.3358679	80.59	111.0	5.0	0.0	
3.0	0.29807812	-0.43574469	9.51336	38.689762	-9.3358679	80.59	111.0	5.0	0.0	
3.01	0.304063619	-0.439336	9.5648359	38.689762	-9.3358679	80.59	111.0	5.0	0.0	
3.02	0.296881019	-0.401028779	9.5792009	38.689762	-9.3358679	80.59	111.0	5.0	0.0	
3.03	0.259770869	-0.325611439	9.591172	38.689762	-9.3358679	80.59	111.0	5.0	0.0	
3.04	0.211886849	-0.258573769	9.6043409	38.689762	-9.3358679	80.59	111.0	5.0	0.0	
3.05	0.156820209	-0.19991584	9.637859	38.689762	-9.3358679	80.59	111.0	5.0	0.0	
3.06	0.100556469	-0.168791219	9.7072909	38.689762	-9.3358679	80.59	118.0	5.0	0.0	
3.07	0.065840549	-0.15442601	9.751583	38.689762	-9.3358679	80.59	118.0	5.0	0.0	
3.08	0.062249243	-0.1604115	9.783905	38.689762	-9.3358679	80.59	118.0	5.0	0.0	
3.09	0.06943185	-0.179565129	9.807847	38.689762	-9.3358679	80.59	118.0	5.0	0.0	
3.1	0.09696517	-0.208295549	9.7719345	38.689762	-9.3358679	80.59	118.0	5.0	0.0	
3.11	0.1388637	-0.225054959	9.726444	38.689762	-9.3358679	80.59	118.0	5.0	0.0	
3.12	0.17238252	-0.22744916	9.702502	38.689762	-9.3358679	80.59	118.0	5.0	0.0	
3.13	0.21667525	-0.26216509	9.6294789	38.689762	-9.3358679	80.59	118.0	5.0	0.0	
3.14	0.245405669	-0.304063619	9.521739	38.689762	-9.3358679	80.59	118.0	5.0	0.0	
3.15	0.250194069	-0.36391866	9.5073749	38.689762	-9.3358679	80.59	118.0	5.0	0.0	
3.16	0.21547815	-0.381875159	9.5205429	38.689762	-9.3358679	80.59	118.0	5.0	0.0	
3.17	0.21547815	-0.381875159	9.5205429	38.689762	-9.3358679	80.59	118.0	5.0	0.0	
3.18	0.14963761	-0.349553439	9.515755	38.689762	-9.3358679	80.59	118.0	5.0	0.0	
3.19	0.11851298	-0.349553439	9.515755	38.689762	-9.3358679	80.59	118.0	5.0	0.0	
3.2	0.10534488	-0.31004912	9.5408939	38.689762	-9.3358679	80.59	118.0	5.0	0.0	
3.21	0.087388359	-0.2789245	9.591172	38.689762	-9.3358679	80.59	118.0	5.0	0.0	
3.22	0.093373865	-0.246602769	9.639056	38.689762	-9.3358679	80.59	118.0	5.0	0.0	
3.23	0.10534488	-0.22744916	9.680955	38.689762	-9.3358679	80.59	118.0	5.0	0.0	
3.24	0.13168109	-0.22026655	9.709685	38.689762	-9.3358679	80.59	118.0	5.0	0.0	
3.25	0.16160862	-0.211886849	9.728839	38.689762	-9.3358679	80.59	118.0	5.0	0.0	
3.26	0.18674773	-0.219069449	9.7324295	38.689762	-9.3358679	80.59	118.0	5.0	0.0	
3.27	0.211886849	-0.22266077	9.7216559	38.689762	-9.3358679	80.59	118.0	5.0	0.0	
3.28	0.229843359	-0.223857859	9.692925	38.689762	-9.3358679	80.59	118.0	5.0	0.0	
3.29	0.23702596	-0.23942018	9.698911	38.689762	-9.3358679	80.59	118.0	5.0	0.0	
3.3	0.21667525	-0.25498247	9.67018	38.689762	-9.3358679	80.59	118.0	5.0	0.0	
3.31	0.205901339	-0.2861071	9.6330709	38.689762	-9.3358679	80.59	118.0	5.0	0.0	
3.32	0.18195933	-0.30047232	9.607931	38.689762	-9.3358679	80.59	118.0	5.0	0.0	
3.33	0.156820209	-0.30885202	9.5947639	38.689762	-9.3358679	80.59	118.0	5.0	0.0	
3.34	0.15083471	-0.3184288	9.581595	38.689762	-9.3358679	80.59	118.0	5.0	0.0	
3.35	0.123301389	-0.3172317	9.551667	38.689762	-9.3358679	80.59	118.0	5.0	0.0	
3.36	0.12210429	-0.3184288	9.53012	38.689762	-9.3358679	80.59	118.0	5.0	0.0	
3.37	0.123301389	-0.337582439	9.5361049	38.689762	-9.3358679	80.59	118.0	5.0	0.0	
3.38	0.1328782	-0.33279404	9.5480769	38.689762	-9.3358679	80.59	118.0	5.0	0.0	
3.39	0.148440509	-0.328005639	9.5660329	38.689762	-9.3358679	80.59	118.0	5.0	0.0	
3.4	0.158017309	-0.325611439	9.615114	38.689762	-9.3358679	80.59	118.0	5.0	0.0	
3.41	0.164002819	-0.295683919	9.645041	38.689762	-9.3358679	80.59	118.0	5.0	0.0	
3.42	0.180762229	-0.26216509	9.6546179	38.689762	-9.3358679	80.59	118.0	5.0	0.0	
3.43	0.180762229	-0.246602769	9.671378	38.689762	-9.3358679	80.59	118.0	5.0	0.0	
3.44	0.18315643	-0.211886849	9.7324295	38.689762	-9.3358679	80.59	118.0	5.0	0.0	
3.45	0.197521639	-0.196324539	9.762358	38.689762	-9.3358679	80.59	118.0	5.0	0.0	
3.46	0.19991584	-0.18195933	9.763555	38.689762	-9.3358679	80.59	118.0	5.0	0.0	
3.47	0.191536129	-0.17717093	9.751583	38.689762	-9.3358679	80.59	118.0	5.0	0.0	
3.48	0.19273324	-0.208295549	9.746795	38.689762	-9.3358679	80.59	118.0	5.0	0.0	
3.49	0.197521639	-0.229843359	9.7144739	38.689762	-9.3358679	80.59	118.0	5.0	0.0	
3.5	0.19991584	-0.2681506	9.6606039	38.689762	-9.3358679	80.59	118.0	5.0	0.0	
3.51	0.190339029	-0.307654919	9.598354	38.689762	-9.3358679	80.59	118.0	5.0	0.0	
3.52	0.174776719	-0.33518824	9.5408939	38.689762	-9.3358679	80.59	118.0	5.0	0.0	
3.53	0.158017309	-0.359130259	9.4882209	38.689762	-9.3358679	80.59	118.0	5.0	0.0	
3.54	0.14604631	-0.38546649	9.4355489	38.689762	-9.3358679	80.59	118.0	5.0	0.0	
3.55	0.1424549	-0.411802679	9.437943	38.689762	-9.3358679	80.59	118.0	5.0	0.0	
3.56	0.129286889	-0.4189853	9.455899	38.689762	-9.3358679	80.59	118.0	5.0	0.0	
3.57	0.125695589	-0.40821138	9.491813	38.689762	-9.3358679	80.59	118.0	5.0	0.0	
3.58	0.11133038	-0.37708676	9.5241349	38.689762	-9.3358679	80.59	118.0	5.0	0.0	
3.59	0.114921679	-0.35553896	9.54927349	38.689762	-9.3358679	80.59	118.0	5.0	0.0	
3.6	0.123301389	-0.295683919	9.5851869	38.689762	-9.3358679	80.59	118.0	5.0	0.0	
3.61	0.173579619	-0.258573769	9.6366619	38.689762	-9.3358679	80.59	118.0	5.0	0.0	
3.62	0.18794483	-0.207098449	9.718064	38.689762	-9.3358679	80.59	118.0	5.0	0.0	
3.63	0.19871874	-0.208295549	9.739613	38.689762	-9.3358679	80.59	118.0	5.0	0.0	
3.64	0.22266077	-0.22266077	9.7444009	38.689762	-9.3358679	80.59	118.0	5.0	0.0	
3.65	0.22625206	-0.23104046	9.757569	38.689762	-9.3358679	80.59	118.0	5.0	0.0	
3.66	0.22266077	-0.250194069	9.7348239	38.689762	-9.3358679	80.59	118.0	5.0	0.0	
3.67	0.213083949	-0.2669535	9.680955	38.689762	-9.3358679	80.59	118.0	5.0	0.0	
3.68	0.19871874	-0.28131869	9.6258879	38.689762	-9.3358679	80.59	118.0	5.0	0.0	
3.69	0.180762229	-0.30166942	9.587581	38.689762	-9.3358679	80.59	118.0	5.0	0.0	
3.7	0.1604115	-0.325611439	9.54927349	38.689762	-9.3358679	80.59	118.0	5.0	0.0	
3.71	0.1304839	-0.34356794	9.5361049	38.689762	-9.3358679	80.59	118.0	5.0	0.0	
3.72	0.12808979	-0.36511576	9.4870239	38.689762	-9.3358679	80.59	118.0	5.0	0.0	
3.73	0.0957680639	-0.36391866	9.489418	38.689762	-9.3358679	80.59	118.0	5.0	0.0	
3.74	0.102950669	-0.37828386	9.496601	38.689762	-9.3358679	80.59	118.0	5.0	0.0	
3.75	0.110133275	-0.360327359	9.542089	38.689762	-9.3358679	80.59	118.0	5.0	0.0	
3.76	0.125695589	-0.350750539	9.543288	38.689762	-9.3358679	80.59	118.0	5.0	0.0	
3.77	0.13527239	-0.3172317	9.615114	38.689762	-9.3358679	80.59	118.0	5.0	0.0	
3.78	0.162805719	-0.2885013	9.7324295	38.689762	-9.3358679	80.59	118.0	5.0	0.0	
3.79	0.18315643	-0.23942018	9.7072909	38.689762	-9.3358679	80.59	118.0	5.0	0.0	
3.8	0.184353529	-0.19512744	9.7144739	38.689762	-9.3358679	80.59	118.0	5.0	0.0	
3.81	0.211886849	-0.185550629	9.689334	38.689762	-9.3358679	80.59	118.0	5.0	0.0	
3.82	0.24779987	-0.19273324	9.7013049	38.689762	-9.3358679	80.59	118.0	5.0	0.0	
3.83	0.25258827	-0.22026655	9.716867	38.689762	-9.3358679	80.59	118.0	5.0	0.0	
3.84	0.229843359	-0.26455929	9.698911	38.689762	-9.3358679	80.59	118.0	5.0	0.0	
3.85	0.19273324	-0.30047232	9.67018	38.689762	-9.3358679	80.59	118.0	5.0	0.0	
3.86	0.16519992	-0.33039984	9.649829	38.689762	-9.3358679	80.59	118.0	5.0	0.0	
3.87	0.162805719	-0.33279404	9.607931	38.689762	-9.3358679	80.59	118.0	5.0	0.0	
3.88	0.16160862	-0.336385339	9.54927349	38.689762	-9.3358679	80.59	118.0	5.0	0.0	
3.89	0.13527239	-0.34356794	9.4977979	38.689762	-9.3358679	80.59	118.0	5.0	0.0	
3.9	0.117315879	-0.33159694	9.479841	38.689762	-9.3358679	80.59	118.0	5.0	0.0	
3.91	0.094570965	-0.32441434	9.5085719	38.689762	-9.3358679	80.59	118.0	5.0	0.0	
3.92	0.11372458	-0.33399114	9.5456819	38.689762	-9.3358679	80.59	118.0	5.0	0.0	
3.93	0.1328782	-0.345962139	9.5696239	38.689762	-9.3358679	80.59	118.0	5.0	0.0	
3.94	0.15442601	-0.347159239	9.5947639	38.689762	-9.3358679	80.59	118.0	5.0	0.0	
3.95	0.17836803	-0.320823	9.624691	38.689762	-9.3358679	80.59	118.0	5.0	0.0	
3.96	0.196324539	-0.306457819	9.6366619	38.689762	-9.3358679	80.59	118.0	5.0	0.0	
3.97	0.207098449	-0.26336219	9.6282829	38.689762	-9.3358679	80.59	118.0	5.0	0.0	
3.98	0.217872349	-0.23822308	9.6330709	38.689762	-9.3358679	80.59	118.0	5.0	0.0	
3.99	0.23223756	-0.22625206	9.6641949	38.689762	-9.3358679	80.59	118.0	5.0	0.0	
4.0	0.225054959	-0.23223756	9.704897	38.689762	-9.3358679	80.59	118.0	5.0	0.0	
4.01	0.19991584	-0.25498247	9.709685	38.689762	-9.3358679	80.59	118.0	5.0	0.0	
4.02	0.17597382	-0.2861071	9.7108819	38.689762	-9.3358679	80.59	118.0	5.0	0.0	
4.03	0.13527239	-0.2753332	9.65821	38.689762	-9.3358679	80.59	118.0	5.0	0.0	
4.04	0.11611878	-0.2753332	9.575609	38.689762	-9.3358679	80.59	118.0	5.0	0.0	
4.05	0.1388637	-0.294486819	9.522937	38.689762	-9.3358679	80.59	118.0	5.0	0.0	
4.06	0.153228909	-0.32321724	9.59715749	38.689762	-9.3358679	80.59	118.0	5.0	0.0	
4.07	0.129286889	-0.35553896	9.617508	38.689762	-9.3358679	80.59	118.0	5.0	0.0	
4.08	0.129286889	-0.36511576	9.617508	38.689762	-9.3358679	80.59	118.0	5.0	0.0	
4.09	0.1436521	-0.313640419	9.5827919	38.689762	-9.3358679	80.59	118.0	5.0	0.0	
4.1	0.19273324	-0.2873042	9.574412	38.689762	-9.3358679	80.59	118.0	5.0	0.0	
4.11	0.22026655	-0.2693477	9.57321549	38.689762	-9.3358679	80.59	118.0	5.0	0.0	
4.12	0.201112939	-0.26336219	9.5780039	38.689762	-9.3358679	80.59	118.0	5.0	0.0	
4.13	0.17118542	-0.28131869	9.6163109	38.689762	-9.3358679	80.59	118.0	5.0	0.0	
4.14	0.162805719	-0.296881019	9.6761669	38.689762	-9.3358679	80.59	118.0	5.0	0.0	
4.15	0.174776719	-0.304063619	9.6977139	38.689762	-9.3358679	80.59	118.0	5.0	0.0	
4.16	0.174776719	-0.304063619	9.6977139	38.689762	-9.3358679	80.59	118.0	5.0	0.0	
4.17	0.18914193	-0.23942018	9.643845	38.689762	-9.3358679	80.59	118.0	5.0	0.0	
4.18	0.18914193	-0.23942018	9.643845	38.689762	-9.3358679	80.59	118.0	5.0	0.0	
4.19	0.13646949	-0.207098449	9.600749	38.689762	-9.3358679	80.59	118.0	5.0	0.0	
4.2	0.1400608	-0.225054959	9.5696239	38.689762	-9.3358679	80.59	118.0	5.0	0.0	
4.21	0.156820209	-0.26216509	9.6091289	38.689762	-9.3358679	80.59	118.0	5.0	0.0	
4.22	0.168791219	-0.29927522	9.65821	38.689762	-9.3358679	80.59	118.0	5.0	0.0	
4.23	0.17717093	-0.33279404	9.666589	38.689762	-9.3358679	80.59	118.0	5.0	0.0	
4.24	0.15562311	-0.34356794	9.6282829	38.689762	-9.3358679	80.59	118.0	5.0	0.0	
4.25	0.156820209	-0.33518824	9.5660329	38.689762	-9.3358679	80.59	118.0	5.0	0.0	
4.26	0.174776719	-0.325611439	9.53012	38.689762	-9.3358679	80.59	118.0	5.0	0.0	
4.27	0.197521639	-0.31004912	9.5013895	38.689762	-9.3358679	80.59	118.0	5.0	0.0	
4.28	0.208295549	-0.325611439	9.494206	38.689762	-9.3358679	80.59	118.0	5.0	0.0	
4.29	0.180762229	-0.33518824	9.537302	38.689762	-9.3358679	80.59	118.0	5.0	0.0	
4.3	0.162805719	-0.339976639	9.57321549	38.689762	-9.3358679	80.59	118.0	5.0	0.0	
4.31	0.1436521	-0.32441434	9.6258879	38.689762	-9.3358679	80.59	118.0	5.0	0.0	
4.32	0.148440509	-0.31124622	9.65821	38.689762	-9.3358679	80.59	118.0	5.0	0.0	
4.33	0.16160862	-0.27054479	9.665392	38.689762	-9.3358679	80.59	118.0	5.0	0.0	
4.34	0.17118542	-0.23104046	9.655815	38.689762	-9.3358679	80.59	118.0	5.0	0.0	
4.35	0.162805719	-0.207098449	9.647436	38.689762	-9.3358679	80.59	118.0	5.0	0.0	
4.36	0.1592144	-0.20350714	9.6570129	38.689762	-9.3358679	80.59	118.0	5.0	0.0	
4.37	0.1592144	-0.20350714	9.6570129	38.689762	-9.3358679	80.59	118.0	5.0	0.0	
4.38	0.179565129	-0.258573769	9.685743	38.689762	-9.3358679	80.59	118.0	5.0	0.0	
4.39	0.19393034	-0.30166942	9.685743	38.689762	-9.3358679	80.59	118.0	5.0	0.0	
4.4	0.197521639	-0.328005639	9.6163109	38.689762	-9.3358679	80.59	118.0	5.0	0.0	
4.41	0.190339029	-0.3184288	9.674969	38.689762	-9.3358679	80.59	118.0	5.0	0.0	
4.42	0.185550629	-0.30047232	9.5480769	38.689762	-9.3358679	80.59	118.0	5.0	0.0	
4.43	0.17118542	-0.2896984	9.5349079	38.689762	-9.3358679	80.59	118.0	5.0	0.0	
4.44	0.17597382	-0.314837519	9.4259719	38.689762	-9.3358679	80.59	118.0	5.0	0.0	
4.45	0.152031809	-0.33279404	9.4834329	38.689762	-9.3358679	80.59	118.0	5.0	0.0	
4.46	0.152031809	-0.345962139	9.5947639	38.689762	-9.3358679	80.59	118.0	5.0	0.0	
4.47	0.125695589	-0.34476504	9.6330709	38.689762	-9.3358679	80.59	118.0	5.0	0.0	
4.48	0.11851298	-0.3184288	9.634268	38.689762	-9.3358679	80.59	118.0	5.0	0.0	
4.49	0.129286889	-0.294486819	9.6055369	38.689762	-9.3358679	80.59	118.0	5.0	0.0	
4.5	0.15562311	-0.250194069	9.6306759	38.689762	-9.3358679	80.59	118.0	5.0	0.0	
4.51	0.17238252	-0.22026655	9.639056	38.689762	-9.3358679	80.59	118.0	5.0	0.0	
4.52	0.17836803	-0.20470424	9.6641949	38.689762	-9.3358679	80.59	118.0	5.0	0.0	
4.53	0.17597382	-0.21547815	9.686939	38.689762	-9.3358679	80.59	118.0	5.0	0.0	
4.54	0.184353529	-0.23942018	9.757569	38.689762	-9.3358679	80.59	118.0	5.0	0.0	
4.55	0.19991584	-0.2729389	9.7348239	38.689762	-9.3358679	80.59	118.0	5.0	0.0	
4.56	0.17836803	-0.28131869	9.6270849	38.689762	-9.3358679	80.59	118.0	5.0	0.0	
4.57	0.16519992	-0.2657564	9.586384	38.689762	-9.3358679	80.59	118.0	5.0	0.0	
4.58	0.152031809	-0.2693477	9.589975	38.689762	-9.3358679	80.59	118.0	5.0	0.0	
4.59	0.152031809	-0.30166942	9.542089	38.689762	-9.3358679	80.59	118.0	5.0	0.0	
4.6	0.13527239	-0.31244332	9.5073749	38.689762	-9.3358679	80.59	118.0	5.0	0.0	
4.61	0.13168109	-0.347159239	9.522937	38.689762	-9.3358679	80.59	118.0	5.0	0.0	
4.62	0.14963761	-0.361524459	9.64145	38.689762	-9.3358679	80.59	118.0	5.0	0.0	
4.63	0.184353529	-0.357933159	9.646238	38.689762	-9.3358679	80.59	118.0	5.0	0.0	
4.64	0.20350714	-0.32441434	9.600749	38.689762	-9.3358679	80.59	118.0	5.0	0.0	
4.65	0.21428105	-0.284909	9.5145579	38.689762	-9.3358679	80.59	118.0	5.0	0.0	
4.66	0.228646259	-0.2765303	9.5241349	38.689762	-9.3358679	80.59	118.0	5.0	0.0	
4.67	0.22744916	-0.27054479	9.5684269	38.689762	-9.3358679	80.59	118.0	5.0	0.0	
4.68	0.190339029	-0.2861071	9.607931	38.689762	-9.3358679	80.59	118.0	5.0	0.0	
4.69	0.164002819	-0.313640419	9.6294789	38.689762	-9.3358679	80.59	118.0	5.0	0.0	
4.7	0.120907189	-0.31124622	9.643845	38.689762	-9.3358679	80.59	118.0	5.0	0.0	
4.71	0.120907189	-0.30885202	9.6522249	38.689762	-9.3358679	80.59	118.0	5.0	0.0	
4.72	0.117315879	-0.2896984	9.617508	38.689762	-9.3358679	80.59	118.0	5.0	0.0	
4.73	0.12808979	-0.2669535	9.5708219	38.689762	-9.3358679	80.59	118.0	5.0	0.0	
4.74	0.125695589	-0.258573769	9.558849	38.689762	-9.3358679	80.59	118.0	5.0	0.0	
4.75	0.1436521	-0.2669535	9.5851869	38.689762	-9.3358679	80.59	118.0	5.0	0.0	
4.76	0.15442601	-0.29209262	9.6210989	38.689762	-9.3358679	80.59	118.0	5.0	0.0	
4.77	0.169988319	-0.304063619	9.615114	38.689762	-9.3358679	80.59	118.0	5.0	0.0	
4.78	0.190339029	-0.32202014	9.6366619	38.689762	-9.3358679	80.59	118.0	5.0	0.0	
4.79	0.190339029	-0.32202014	9.6366619	38.689762	-9.3358679	80.59	118.0	5.0	0.0	
4.8	0.190339029	-0.32202014	9.6366619	38.689762	-9.3358679	80.59	118.0	5.0	0.0	
4.81	0.190339029	-0.32202014	9.6366619	38.689762	-9.3358679	80.59	118.0	5.0	0.0	
4.82	0.20470424	-0.2789245	9.5408939	38.689762	-9.3358679	80.59	118.0	5.0	0.0	
4.83	0.19273324	-0.2753332	9.5361049	38.689762	-9.3358679	80.59	118.0	5.0	0.0	
4.84	0.18315643	-0.307654919	9.575609	38.689762	-9.3358679	80.59	118.0	5.0	0.0	
4.85	0.152031809	-0.313640419	9.6294789	38.689762	-9.3358679	80.59	118.0	5.0	0.0	
4.86	0.123301389	-0.3196259	9.623494	38.689762	-9.3358679	80.59	118.0	5.0	0.0	
4.87	0.107739076	-0.305260719	9.6163109	38.689762	-9.3358679	80.59	118.0	5.0	0.0	
4.88	0.12808979	-0.2873042	9.5923689	38.689762	-9.3358679	80.59	118.0	5.0	0.0	
4.89	0.15083471	-0.2789245	9.5935659	38.689762	-9.3358679	80.59	118.0	5.0	0.0	
4.9	0.17118542	-0.258573769	9.6019459	38.689762	-9.3358679	80.59	118.0	5.0	0.0	
4.91	0.17118542	-0.2729389	9.560047	38.689762	-9.3358679	80.59	118.0	5.0	0.0	
4.92	0.164002819	-0.28251579	9.623494	38.689762	-9.3358679	80.59	118.0	5.0	0.0	
4.93	0.179565129	-0.306457819	9.64145	38.689762	-9.3358679	80.59	118.0	5.0	0.0	
4.94	0.18674773	-0.3172317	9.686939	38.689762	-9.3358679	80.59	118.0	5.0	0.0	
4.95	0.201112939	-0.31124622	9.631873	38.689762	-9.3358679	80.59	118.0	5.0	0.0	
4.96	0.19991584	-0.302866519	9.5995519	38.689762	-9.3358679	80.59	118.0	5.0	0.0	
4.97	0.225054959	-0.2801216	9.589975	38.689762	-9.3358679	80.59	118.0	5.0	0.0	
4.98	0.225054959	-0.2777274	9.581595	38.689762	-9.3358679	80.59	118.0	5.0	0.0	
4.99	0.197521639	-0.2801216	9.5851869	38.689762	-9.3358679	80.59	118.0	5.0	0.0	
5.0	0.174776719	-0.29927522	9.5995519	38.689762	-9.3358679	80.59	118.0	5.0	0.0	
5.01	0.14963761	-0.316034619	9.5887779	38.689762	-9.3358679	80.59	118.0	5.0	0.0	
5.02	0.12808979	-0.328005639	9.6294789	38.689762	-9.3358679	80.59	118.0	5.0	0.0	
5.03	0.10175357	-0.3184288	9.639056	38.689762	-9.3358679	80.59	118.0	5.0	0.0	
5.04	0.12689269	-0.2765303	9.574412	38.689762	-9.3358679	80.59	118.0	5.0	0.0	
5.05	0.1592144	-0.2765303	9.54927349	38.689762	-9.3358679	80.59	118.0	5.0	0.0	
5.06	0.179565129	-0.2765303	9.576807	38.689762	-9.3358679	80.59	118.0	5.0	0.0	
5.07	0.18794483	-0.294486819	9.581595	38.689762	-9.3358679	80.59	118.0	5.0	0.0	
5.08	0.19871874	-0.3172317	9.6270849	38.689762	-9.3358679	80.59	118.0	5.0	0.0	
5.09	0.19393034	-0.3184288	9.649829	38.689762	-9.3358679	80.59	118.0	5.0	0.0	
5.1	0.19991584	-0.3172317	9.6522249	38.689762	-9.3358679	80.59	118.0	5.0	0.0	
5.11	0.19393034	-0.30047232	9.611523	38.689762	-9.3358679	80.59	118.0	5.0	0.0	
5.12	0.18195933	-0.29209262	9.56723	38.689762	-9.3358679	80.59	118.0	5.0	0.0	
5.13	0.1592144	-0.2873042	9.560047	38.689762	-9.3358679	80.59	118.0	5.0	0.0	
5.14	0.156820209	-0.30166942	9.586384	38.689762	-9.3358679	80.59	118.0	5.0	0.0	
5.15	0.148440509	-0.359130259	9.6258879	38.689762	-9.3358679	80.59	119.0	5.0	0.0	
5.16	0.148440509	-0.359130259	9.6258879	38.689762	-9.3358679	80.59	119.0	5.0	0.0	
5.17	0.72065469	3.06936669	9.704897	38.689762	-9.3358679	80.59	119.0	5.0	0.0	
5.18	0.72065469	3.06936669	9.704897	38.689762	-9.3358679	80.59	119.0	5.0	0.0	
5.19	2.0111294	3.28125329	9.716867	38.689762	-9.3358679	80.59	119.0	5.0	0.0	
5.2	1.34434429	1.5658079	9.7587659	38.689762	-9.3358679	80.59	119.0	5.0	0.0	
5.21	0.75896189	0.71586629	9.811439	38.689762	-9.3358679	80.59	119.0	5.0	0.0	
5.22	0.23942018	0.065840549	9.953894	38.689762	-9.3358679	80.59	119.0	5.0	0.0	
5.23	-1.9381063	-1.02950669	9.424775	38.689762	-9.3358679	80.59	119.0	5.0	0.0	
5.24	-2.72460149	-1.64481649	8.8657289	38.689762	-9.3358679	80.59	119.0	5.0	0.0	
5.25	-2.7605145	-2.3127987	10.559627	38.689762	-9.3358679	80.59	119.0	5.0	0.0	
5.26	-1.8519149	-2.67192909	8.6765869	38.689762	-9.3358679	80.59	119.0	5.0	0.0	
5.27	-1.21146609	-3.0142999	9.6067339	38.689762	-9.3358679	80.59	119.0	5.0	0.0	
5.28	-1.5670049	-3.0573955	9.4403369	38.689762	-9.3358679	80.59	119.0	5.0	0.0	
5.29	-0.7661445	-2.4384944	9.65821	38.689762	-9.3358679	80.59	119.0	5.0	0.0	
5.3	-0.36391866	-1.86987149	9.1985229	38.689762	-9.3358679	80.59	119.0	5.0	0.0	
5.31	-0.306457819	-1.4652514	9.467871	38.689762	-9.3358679	80.59	119.0	5.0	0.0	
5.32	-0.21428105	-1.3287819	9.5205429	38.689762	-9.3358679	80.59	119.0	5.0	0.0	
5.33	2.9376855	-1.02471829	10.5991309	38.689762	-9.3358679	80.59	119.0	5.0	0.0	
5.34	3.23336939	-0.93373865	9.445126	38.689762	-9.3358679	80.59	119.0	5.0	0.0	
5.35	3.23336939	-0.93373865	9.445126	38.689762	-9.3358679	80.59	119.0	5.0	0.0	
5.36	1.2461819	-1.2366052	9.526528	38.689762	-9.3358679	80.59	119.0	5.0	0.0	
5.37	-0.16160862	-1.0833763	9.777919	38.689762	-9.3358679	80.59	119.0	5.0	0.0	
5.38	0.059855044	0.63805469	9.437943	38.689762	-9.3358679	80.59	119.0	5.0	0.0	
5.39	0.357933159	0.89064306	9.750386	38.689762	-9.3358679	80.59	119.0	5.0	0.0	
5.4	0.294486819	0.5710171	9.610326	38.689762	-9.3358679	80.59	119.0	5.0	0.0	
5.41	0.065840549	-0.368707059	9.4882209	38.689762	-9.3358679	80.59	119.0	5.0	0.0	
5.42	0.08259996	-0.628477929	9.715671	38.689762	-9.3358679	80.59	119.0	5.0	0.0	
5.43	0.046686932	-0.652419	9.5923689	38.689762	-9.3358679	80.59	119.0	5.0	0.0	
5.44	0.208295549	-0.38666359	9.4511109	38.689762	-9.3358679	80.59	119.0	5.0	0.0	
5.45	0.2896984	0.234631759	9.575609	38.689762	-9.3358679	80.59	119.0	5.0	0.0	
5.46	0.125695589	-0.624886629	9.694122	38.689762	-9.3358679	80.59	119.0	5.0	0.0	
5.47	0.18195933	-1.3204023	9.3481609	38.689762	-9.3358679	80.59	119.0	5.0	0.0	
5.48	0.506373639	-1.0737995	9.7827079	38.689762	-9.3358679	80.59	119.0	5.0	0.0	
5.49	0.12449849	-0.934935749	9.471462	38.689762	-9.3358679	80.59	119.0	5.0	0.0	
5.5	0.67157359	-0.23702596	9.5145579	38.689762	-9.3358679	80.59	119.0	5.0	0.0	
5.51	0.924161849	0.52911859	9.044097	38.689762	-9.3358679	80.59	119.0	5.0	0.0	
5.52	1.2916719	0.87148939	9.785102	38.689762	-9.3358679	80.59	119.0	5.0	0.0	
5.53	0.878672	0.926556049	9.7659479	38.689762	-9.3358679	80.59	119.0	5.0	0.0	
5.54	0.24301147	-0.16519992	9.940725	38.689762	-9.3358679	80.59	119.0	5.0	0.0	
5.55	0.26336219	-0.788889469	9.6294789	38.689762	-9.3358679	80.59	119.0	5.0	0.0	
5.56	0.98401689	-0.362721559	9.6330709	38.689762	-9.3358679	80.59	119.0	5.0	0.0	
5.57	0.104147779	-1.32279649	9.562442	38.689762	-9.3358679	80.59	119.0	5.0	0.0	
5.58	-0.86550389	-1.21745159	9.59715749	38.689762	-9.3358679	80.59	119.0	5.0	0.0	
5.59	-0.588973639	0.54827219	9.623494	38.689762	-9.3358679	80.59	119.0	5.0	0.0	
5.6	-1.3299791	-0.45609543	9.4762509	38.689762	-9.3358679	80.59	119.0	5.0	0.0	
5.61	-1.08696759	-1.21146609	9.615114	38.689762	-9.3358679	80.59	119.0	5.0	0.0	
5.62	-0.44412439	-0.599747539	9.589975	38.689762	-9.3358679	80.59	119.0	5.0	0.0	
5.63	-0.197521639	-0.357933159	9.6091289	38.689762	-9.3358679	80.59	119.0	5.0	0.0	
5.64	0.316034619	-0.08379706	9.622296	38.689762	-9.3358679	80.59	119.0	5.0	0.0	
5.65	0.5363012	0.307654919	9.615114	38.689762	-9.3358679	80.59	119.0	5.0	0.0	
5.66	0.80325466	0.82121116	9.6270849	38.689762	-9.3358679	80.59	119.0	5.0	0.0	
5.67	1.14083709	1.87944829	9.634268	38.689762	-9.3358679	80.59	119.0	5.0	0.0	
5.68	0.228646259	2.30561609	9.65821	38.689762	-9.3358679	80.59	119.0	5.0	0.0	
5.69	-0.9720459	0.50757074	9.646238	38.689762	-9.3358679	80.59	119.0	5.0	0.0	
5.7	-0.4297592	-0.33399114	9.561244	38.689762	-9.3358679	80.59	119.0	5.0	0.0	
5.71	0.1424549	-1.3239936	9.5780039	38.689762	-9.3358679	80.59	119.0	5.0	0.0	
5.72	0.8571242	-0.8307879	9.496601	38.689762	-9.3358679	80.59	119.0	5.0	0.0	
5.73	1.2258313	0.191536129	9.600749	38.689762	-9.3358679	80.59	119.0	5.0	0.0	
5.74	1.1935096	0.021547815	9.7108819	38.689762	-9.3358679	80.59	119.0	5.0	0.0	
5.75	1.27850369	-0.7697359	9.7863	38.689762	-9.3358679	80.59	119.0	5.0	0.0	
5.76	1.6747441	0.25617957	9.8293949	38.689762	-9.3358679	80.59	119.0	5.0	0.0	
5.77	2.100912	0.6955156	9.69532	38.689762	-9.3358679	80.59	119.0	5.0	0.0	
5.78	2.7868507	-0.169988319	9.4056219	38.689762	-9.3358679	80.59	119.0	5.0	0.0	
5.79	3.86543869	0.081402859	9.130288	38.689762	-9.3358679	80.59	119.0	5.0	0.0	
5.8	4.3490669	0.028730419	8.6251119	38.689762	-9.3358679	80.59	119.0	5.0	0.0	
5.81	3.751714	-0.1592144	8.7316529	38.689762	-9.3358679	80.59	119.0	5.0	0.0	
5.82	2.6120741	-0.19991584	8.978256	38.689762	-9.3358679	80.59	119.0	5.0	0.0	
5.83	1.90937589	-0.6739678	9.1482449	38.689762	-9.3358679	80.59	119.0	5.0	0.0	
5.84	2.44926829	-0.55665189	8.9722709	38.689762	-9.3358679	80.59	119.0	5.0	0.0	
5.85	2.78565359	-0.360327359	8.9112189	38.689762	-9.3358679	80.59	119.0	5.0	0.0	
5.86	3.2154129	-1.7944542	9.0620539	38.689762	-9.3358679	80.59	119.0	5.0	0.0	
5.87	4.177882	-1.8231846	8.89446	38.689762	-9.3358679	80.59	119.0	5.0	0.0	
5.88	3.5338416	-1.0953473	9.1255	38.689762	-9.3358679	80.59	119.0	5.0	0.0	
5.89	2.73417829	-0.153228909	9.3721029	38.689762	-9.3358679	80.59	119.0	5.0	0.0	
5.9	2.5965118	-0.458489629	9.34217549	38.689762	-9.3358679	80.59	119.0	5.0	0.0	
5.91	3.39138669	-1.15639939	9.0572649	38.689762	-9.3358679	80.59	119.0	5.0	0.0	
5.92	3.8295257	-0.61171854	8.836999	38.689762	-9.3358679	80.59	119.0	5.0	0.0	
5.93	2.99993469	-1.03668929	9.132683	38.689762	-9.3358679	80.59	119.0	5.0	0.0	
5.94	2.955642	-1.06063139	9.2296479	38.689762	-9.3358679	80.59	119.0	5.0	0.0	
5.95	3.016694	-0.19871874	9.236829	38.689762	-9.3358679	80.59	119.0	5.0	0.0	
5.96	3.0454245	-0.0059855039	9.3577379	38.689762	-9.3358679	80.59	119.0	5.0	0.0	
5.97	3.21182159	-0.08379706	9.208099	38.689762	-9.3358679	80.59	119.0	5.0	0.0	
5.98	2.9305029	-0.33039984	9.3146419	38.689762	-9.3358679	80.59	119.0	5.0	0.0	
5.99	1.9333179	-1.0630256	9.4128039	38.689762	-9.3358679	80.59	119.0	5.0	0.0	
6.0	1.82677589	-1.11450089	9.367314	38.689762	-9.3358679	80.59	119.0	5.0	0.0	
6.01	2.05183079	-0.72664019	9.31943	38.689762	-9.3358679	80.59	119.0	5.0	0.0	
6.02	2.3678656	-0.39624038	9.2284509	38.689762	-9.3358679	80.59	119.0	5.0	0.0	
6.03	2.5187001	-0.60333884	9.186552	38.689762	-9.3358679	80.59	119.0	5.0	0.0	
6.04	2.5510218	-0.8487445	9.255983	38.689762	-9.3358679	80.59	119.0	5.0	0.0	
6.05	2.56179569	-0.7326257	9.28232	38.689762	-9.3358679	80.59	119.0	5.0	0.0	
6.06	2.48877259	-0.38426939	9.3373869	38.689762	-9.3358679	80.59	119.0	5.0	0.0	
6.07	2.7042508	-0.246602769	9.2811229	38.689762	-9.3358679	80.59	119.0	5.0	0.0	
6.08	2.8227639	-0.156820209	9.2272529	38.689762	-9.3358679	80.59	119.0	5.0	0.0	
6.09	2.92332029	0.02633622	9.2380279	38.689762	-9.3358679	80.59	119.0	5.0	0.0	
6.1	2.9005754	0.173579619	9.3074589	38.689762	-9.3358679	80.59	112.0	5.0	0.0	
6.11	2.7114334	-0.42497079	9.3409779	38.689762	-9.3358679	80.59	112.0	5.0	0.0	
6.12	2.5115175	-1.1935096	9.4092129	38.689762	-9.3358679	80.59	112.0	5.0	0.0	
6.13	2.89818119	-1.2713209	9.2021139	38.689762	-9.3358679	80.59	112.0	5.0	0.0	
6.14	3.2920272	-1.1815386	9.119514	38.689762	-9.3358679	80.59	112.0	5.0	0.0	
6.15	3.7169979	-0.928950249	8.908825	38.689762	-9.3358679	80.59	112.0	5.0	0.0	
6.16	3.7169979	-0.928950249	8.908825	38.689762	-9.3358679	80.59	112.0	5.0	0.0	
6.17	3.7169979	-0.928950249	8.908825	38.689762	-9.3358679	80.59	112.0	5.0	0.0	
6.18	3.5398269	0.7673417	9.07163049	38.689762	-9.3358679	80.59	112.0	5.0	0.0	
6.19	2.64439579	0.035913024	9.4535055	38.689762	-9.3358679	80.59	112.0	5.0	0.0	
6.2	2.1200657	-0.380678059	9.9107979	38.689762	-9.3358679	80.59	112.0	5.0	0.0	
6.21	2.0111294	-0.82240826	10.1861315	38.689762	-9.3358679	80.59	112.0	5.0	0.0	
6.22	2.33554389	-0.83916769	10.6170869	38.689762	-9.3358679	80.59	112.0	5.0	0.0	
6.23	2.858677	-0.7110779	11.2264119	38.689762	-9.3358679	80.59	112.0	5.0	0.0	
6.24	2.9987376	-0.569819	11.3090109	38.689762	-9.3358679	80.59	112.0	5.0	0.0	
6.25	3.03704479	-0.125695589	10.7248269	38.689762	-9.3358679	80.59	112.0	5.0	0.0	
6.26	2.62045379	0.0191536139	9.929952	38.689762	-9.3358679	80.59	112.0	5.0	0.0	
6.27	2.15238739	0.0095768069	9.561244	38.689762	-9.3358679	80.59	112.0	5.0	0.0	
6.28	1.9285295	-0.0011971008	9.1614129	38.689762	-9.3358679	80.59	112.0	5.0	0.0	
6.29	1.6651673	0.0047884034	9.1386679	38.689762	-9.3358679	80.59	112.0	5.0	0.0	
6.3	1.6364368	0.044292733	8.6598269	38.689762	-9.3358679	80.59	112.0	5.0	0.0	
6.31	1.8495208	0.015562311	8.498219	38.689762	-9.3358679	80.59	112.0	5.0	0.0	
6.32	2.385822	-0.2896984	8.834604	38.689762	-9.3358679	80.59	112.0	5.0	0.0	
6.33	2.2242134	-1.1324574	9.740809	38.689762	-9.3358679	80.59	112.0	5.0	0.0	
6.34	2.5019407	-0.924161849	7.5010339	38.689762	-9.3358679	80.59	112.0	5.0	0.0	
6.35	2.64200159	-0.185550629	7.884106	38.689762	-9.3358679	80.59	112.0	5.0	0.0	
6.36	2.8000188	0.37828386	8.244433	38.689762	-9.3358679	80.59	112.0	5.0	0.0	
6.37	2.97599269	0.5817909	9.0859959	38.689762	-9.3358679	80.59	112.0	5.0	0.0	
6.38	3.0897174	0.483628749	9.774328	38.689762	-9.3358679	80.59	112.0	5.0	0.0	
6.39	3.30280109	0.205901339	9.8677025	38.689762	-9.3358679	80.59	112.0	5.0	0.0	
6.4	3.3722332	0.20350714	9.4906159	38.689762	-9.3358679	80.59	112.0	5.0	0.0	
6.41	3.17830279	0.5817909	9.239224	38.689762	-9.3358679	80.59	112.0	5.0	0.0	
6.42	2.8083985	0.7242459	9.6055369	38.689762	-9.3358679	80.59	112.0	5.0	0.0	
6.43	2.28406829	0.59495914	10.2603509	38.689762	-9.3358679	80.59	112.0	5.0	0.0	
6.44	2.135628	0.69431849	10.1801449	38.689762	-9.3358679	80.59	112.0	5.0	0.0	
6.45	2.03985979	0.6979098	9.495404	38.689762	-9.3358679	80.59	112.0	5.0	0.0	
6.46	2.1691468	0.903811159	8.37372	38.689762	-9.3358679	80.59	112.0	5.0	0.0	
6.47	2.28406829	0.98880529	8.0361379	38.689762	-9.3358679	80.59	112.0	5.0	0.0	
6.48	2.29005379	0.96246909	8.312668	38.689762	-9.3358679	80.59	112.0	5.0	0.0	
6.49	2.2828712	0.934935749	8.576031	38.689762	-9.3358679	80.59	112.0	5.0	0.0	
6.5	2.22900179	0.915782149	8.516175	38.689762	-9.3358679	80.59	112.0	5.0	0.0	
6.51	2.22660759	0.89423436	8.359355	38.689762	-9.3358679	80.59	112.0	5.0	0.0	
6.52	2.2625206	0.8678981	8.4970219	38.689762	-9.3358679	80.59	112.0	5.0	0.0	
6.53	2.37624529	0.8678981	8.655039	38.689762	-9.3358679	80.59	112.0	5.0	0.0	
6.54	2.51032039	0.8702923	8.8298159	38.689762	-9.3358679	80.59	112.0	5.0	0.0	
6.55	2.6683378	0.8343793	9.0812069	38.689762	-9.3358679	80.59	112.0	5.0	0.0	
6.56	2.8634653	0.82240826	9.1781719	38.689762	-9.3358679	80.59	112.0	5.0	0.0	
6.57	2.99754049	0.8619126	9.1745809	38.689762	-9.3358679	80.59	112.0	5.0	0.0	
6.58	3.0729579	0.85233579	9.1099379	38.689762	-9.3358679	80.59	112.0	5.0	0.0	
6.59	3.0023289	0.8343793	9.0704329	38.689762	-9.3358679	80.59	112.0	5.0	0.0	
6.6	2.82755229	0.81881696	8.990228	38.689762	-9.3358679	80.59	112.0	5.0	0.0	
6.61	2.6455929	0.79846627	8.9710739	38.689762	-9.3358679	80.59	112.0	5.0	0.0	
6.62	2.5546129	0.628477929	9.0812069	38.689762	-9.3358679	80.59	112.0	5.0	0.0	
6.63	2.52588269	0.42497079	9.145849	38.6897659	-9.3358679	80.59	112.0	5.0	0.0	
6.64	2.7820623	0.514753339	9.236829	38.6897659	-9.3358679	80.59	112.0	5.0	0.0	
6.65	3.0717609	0.57341129	9.2607719	38.6897659	-9.3358679	80.59	112.0	5.0	0.0	
6.66	3.3195608	0.53270989	9.2703489	38.6897659	-9.3358679	80.59	112.0	5.0	0.0	
6.67	3.67509959	0.5530606	9.69532	38.6897659	-9.3358679	80.59	112.0	5.0	0.0	
6.68	3.7361517	0.5506664	10.041282	38.6897659	-9.3358679	80.59	112.0	5.0	0.0	
6.69	3.55419229	0.5746084	10.3956239	38.6897659	-9.3358679	80.59	112.0	5.0	0.0	
6.7	3.2728736	0.508767839	9.903615	38.6897659	-9.3358679	80.59	112.0	5.0	0.0	
6.71	3.4871547	0.8379706	9.4570969	38.6897659	-9.3358679	80.59	112.0	5.0	0.0	
6.72	3.56855769	0.78529817	9.221268	38.6897659	-9.3358679	80.59	112.0	5.0	0.0	
6.73	3.57454319	0.6739678	8.9459339	38.6897659	-9.3358679	80.59	112.0	5.0	0.0	
6.74	3.1794999	0.44412439	8.8633349	38.6897659	-9.3358679	80.59	112.0	5.0	0.0	
6.75	2.6348189	0.320823	8.990228	38.6897659	-9.3358679	80.59	112.0	5.0	0.0	
6.76	2.41574949	0.502782339	9.001001	38.6897659	-9.3358679	80.59	112.0	5.0	0.0	
6.77	2.2828712	0.69671269	9.0512789	38.6897659	-9.3358679	80.59	112.0	5.0	0.0	
6.78	2.3092074	0.59615624	9.400833	38.6897659	-9.3358679	80.59	112.0	5.0	0.0	
6.79	2.43729729	0.43694179	9.691729	38.6897659	-9.3358679	80.59	112.0	5.0	0.0	
6.8	2.4660277	0.458489629	9.615114	38.6897659	-9.3358679	80.59	112.0	5.0	0.0	
6.81	2.4253263	0.53989249	9.329007	38.6897659	-9.3358679	80.59	112.0	5.0	0.0	
6.82	2.58334369	0.626083729	8.886079	38.6897659	-9.3358679	80.59	112.0	5.0	0.0	
6.83	2.8000188	0.622492429	8.485051	38.6897659	-9.3358679	80.59	112.0	5.0	0.0	
6.84	2.9735985	0.66917939	8.437167	38.6897659	-9.3358679	80.59	112.0	5.0	0.0	
6.85	3.18428829	0.6811504	8.6969379	38.6897659	-9.3358679	80.59	112.0	5.0	0.0	
6.86	3.22139839	0.66678519	8.7316529	38.6897659	-9.3358679	80.59	112.0	5.0	0.0	
6.87	3.22020129	0.60094464	8.9243869	38.6897659	-9.3358679	80.59	112.0	5.0	0.0	
6.88	3.1926679	0.45250413	9.4367459	38.6897659	-9.3358679	80.59	112.0	5.0	0.0	
6.89	3.0933087	0.41778819	9.903615	38.6897659	-9.3358679	80.59	112.0	5.0	0.0	
6.9	3.0394389	0.3890578	10.103531	38.6897659	-9.3358679	80.59	112.0	5.0	0.0	
6.91	2.9712043	0.41419689	9.868899	38.6897659	-9.3358679	80.59	112.0	5.0	0.0	
6.92	2.8634653	0.4153939	9.539697	38.6897659	-9.3358679	80.59	112.0	5.0	0.0	
6.93	2.8263552	0.44651863	9.0895869	38.6897659	-9.3358679	80.59	112.0	5.0	0.0	
6.94	2.90536379	0.51834464	8.834604	38.6897659	-9.3358679	80.59	112.0	5.0	0.0	
6.95	2.9245174	0.599747539	8.688558	38.6897659	-9.3358679	80.59	112.0	5.0	0.0	
6.96	2.85269139	0.6739678	8.607155	38.6897659	-9.3358679	80.59	112.0	5.0	0.0	
6.97	2.7078419	0.7493851	8.588001	38.6897659	-9.3358679	80.59	112.0	5.0	0.0	
6.98	2.6348189	0.78290397	8.8381959	38.6897659	-9.3358679	80.59	112.0	5.0	0.0	
6.99	2.5905263	0.7254431	9.1817639	38.6897659	-9.3358679	80.59	112.0	5.0	0.0	
7.0	2.574964	0.624886629	9.4666739	38.6897659	-9.3358679	80.59	112.0	5.0	0.0	
7.01	2.76171159	0.5746084	9.9359369	38.6897659	-9.3358679	80.59	112.0	5.0	0.0	
7.02	3.01908829	0.59615624	9.9012209	38.6897659	-9.3358679	80.59	112.0	5.0	0.0	
7.03	2.6671407	0.129286889	9.7108819	38.6897659	-9.3358679	80.59	112.0	5.0	0.0	
7.04	2.51391169	0.11372458	9.1554269	38.6897659	-9.3358679	80.59	112.0	5.0	0.0	
7.05	2.75213479	0.586579439	8.7136969	38.6897659	-9.3358679	80.59	112.0	5.0	0.0	
7.06	2.7688942	0.620098229	8.506598	38.6897659	-9.3358679	80.59	112.0	5.0	0.0	
7.07	2.7533319	0.46208093	8.736442	38.6897659	-9.3358679	80.59	112.0	5.0	0.0	
7.08	2.9161377	0.5710171	9.04768849	38.6897659	-9.3358679	80.59	112.0	5.0	0.0	
7.09	3.0729579	0.506373639	9.295488	38.6897659	-9.3358679	80.59	93.0	5.0	0.0	
7.1	3.3219549	0.47884035	9.3804829	38.6897659	-9.3358679	80.59	93.0	5.0	0.0	
7.11	3.47039529	0.47405192	9.2643629	38.6897659	-9.3358679	80.59	93.0	5.0	0.0	
7.12	3.44884749	0.4333505	9.0740239	38.6897659	-9.3358679	80.59	93.0	5.0	0.0	
7.13	3.32075789	0.4273649	8.9926209	38.6897659	-9.3358679	80.59	93.0	5.0	0.0	
7.14	3.19625929	0.380678059	9.01776	38.6897659	-9.3358679	80.59	93.0	5.0	0.0	
7.15	3.12922169	0.34476504	9.2332389	38.6897659	-9.3358679	80.59	93.0	5.0	0.0	
7.16	2.99993469	0.345962139	9.289502	38.6897659	-9.3358679	80.59	93.0	5.0	0.0	
7.17	2.870648	0.395043279	9.2260559	38.6897659	-9.3358679	80.59	93.0	5.0	0.0	
7.18	2.80480719	0.4225766	9.082404	38.6897659	-9.3358679	80.59	93.0	5.0	0.0	
7.19	2.7186159	0.39624038	9.1243029	38.6897659	-9.3358679	80.59	93.0	5.0	0.0	
7.2	2.6611552	0.37469256	9.2188739	38.6897659	-9.3358679	80.59	93.0	5.0	0.0	
7.21	2.7305869	0.379480959	9.311049	38.6897659	-9.3358679	80.59	93.0	5.0	0.0	
7.22	2.93648839	0.481234549	9.469068	38.6897659	-9.3358679	80.59	93.0	5.0	0.0	
7.23	3.1304188	0.54827219	9.491813	38.6897659	-9.3358679	80.59	93.0	5.0	0.0	
7.24	3.1974564	0.54348379	9.3469639	38.6897659	-9.3358679	80.59	93.0	5.0	0.0	
7.25	3.1483753	0.41778819	8.990228	38.6897659	-9.3358679	80.59	93.0	5.0	0.0	
7.26	2.9927519	0.338779539	8.7101059	38.6897659	-9.3358679	80.59	93.0	5.0	0.0	
7.27	2.85508559	0.36511576	8.623915	38.6897659	-9.3358679	80.59	93.0	5.0	0.0	
7.28	2.88022469	0.4189853	8.898049	38.6897659	-9.3358679	80.59	93.0	5.0	0.0	
7.29	2.8143839	0.24899697	9.518148	38.6897659	-9.3358679	80.59	93.0	5.0	0.0	
7.3	2.7665	0.173579619	9.9778359	38.6897659	-9.3358679	80.59	93.0	5.0	0.0	
7.31	2.85628269	0.217872349	9.900024	38.6897659	-9.3358679	80.59	93.0	5.0	0.0	
7.32	3.15316369	0.33518824	9.5361049	38.6897659	-9.3358679	80.59	93.0	5.0	0.0	
7.33	3.29681559	0.369904159	9.106346	38.6897659	-9.3358679	80.59	93.0	5.0	0.0	
7.34	3.23815769	0.37708676	9.0093809	38.6897659	-9.3358679	80.59	93.0	5.0	0.0	
7.35	3.23336939	0.92296475	8.827422	38.6897659	-9.3358679	80.59	93.0	5.0	0.0	
7.36	3.3470939	-0.098162269	8.9483289	38.6897659	-9.3358679	80.59	93.0	5.0	0.0	
7.37	3.3662477	0.0371101279	8.784326	38.6897659	-9.3358679	80.59	93.0	5.0	0.0	
7.38	3.30280109	0.51235914	8.7939019	38.6897659	-9.3358679	80.59	93.0	5.0	0.0	
7.39	3.205836	0.569819	9.0045929	38.6897659	-9.3358679	80.59	93.0	5.0	0.0	
7.4	3.06936669	0.493205549	9.4882209	38.6897659	-9.3358679	80.59	93.0	5.0	0.0	
7.41	2.8634653	0.259770869	9.455899	38.6897659	-9.3358679	80.59	93.0	5.0	0.0	
7.42	2.92930579	0.2753332	9.3314009	38.6897659	-9.3358679	80.59	93.0	5.0	0.0	
7.43	2.9257145	0.21547815	9.1518359	38.6897659	-9.3358679	80.59	93.0	5.0	0.0	
7.44	2.9376855	0.25378537	9.01776	38.6897659	-9.3358679	80.59	93.0	5.0	0.0	
7.45	3.01310279	0.350750539	9.0405049	38.6897659	-9.3358679	80.59	93.0	5.0	0.0	
7.46	3.06936669	0.392649079	9.1314849	38.6897659	-9.3358679	80.59	93.0	5.0	0.0	
7.47	3.0813377	0.37708676	9.1829605	38.6897659	-9.3358679	80.59	93.0	5.0	0.0	
7.48	3.040636	0.2657564	9.224859	38.6897659	-9.3358679	80.59	93.0	5.0	0.0	
7.49	2.9652188	0.24779987	9.3086559	38.6897659	-9.3358679	80.59	93.0	5.0	0.0	
7.5	2.9532478	0.326808539	9.20690249	38.6897659	-9.3358679	80.59	93.0	5.0	0.0	
7.51	2.99754049	0.34356794	9.0273369	38.6897659	-9.3358679	80.59	93.0	5.0	0.0	
7.52	2.99754049	0.33279404	8.902839	38.6897659	-9.3358679	80.59	93.0	5.0	0.0	
7.53	2.9915549	0.338779539	9.0285349	38.6897659	-9.3358679	80.59	93.0	5.0	0.0	
7.54	2.91374349	0.3184288	9.248801	38.6897659	-9.3358679	80.59	93.0	5.0	0.0	
7.55	2.81917239	0.296881019	9.4235779	38.6897659	-9.3358679	80.59	93.0	5.0	0.0	
7.56	2.7964275	0.240617279	9.491813	38.6897659	-9.3358679	80.59	93.0	5.0	0.0	
7.57	2.778471	0.169988319	9.400833	38.6897659	-9.3358679	80.59	93.0	5.0	0.0	
7.58	2.77368259	0.17836803	9.2930939	38.6897659	-9.3358679	80.59	93.0	5.0	0.0	
7.59	2.729389	0.18674773	9.156625	38.6897659	-9.3358679	80.59	93.0	5.0	0.0	
7.6	2.7473464	0.2789245	9.1362729	38.6897659	-9.3358679	80.59	93.0	5.0	0.0	
7.61	2.7808652	0.350750539	9.2033109	38.6897659	-9.3358679	80.59	93.0	5.0	0.0	
7.62	2.84072039	0.360327359	9.248801	38.6897659	-9.3358679	80.59	93.0	5.0	0.0	
7.63	2.8969839	0.35314476	9.077616	38.6897659	-9.3358679	80.59	93.0	5.0	0.0	
7.64	2.9963434	0.350750539	8.9614969	38.6897659	-9.3358679	80.59	93.0	5.0	0.0	
7.65	3.04303029	0.37708676	8.9794529	38.6897659	-9.3358679	80.59	93.0	5.0	0.0	
7.66	3.0154969	0.44412439	9.0464909	38.6897659	-9.3358679	80.59	93.0	5.0	0.0	
7.67	2.9197289	0.411802679	9.2164789	38.6897659	-9.3358679	80.59	93.0	5.0	0.0	
7.68	2.8730419	0.379480959	9.3098539	38.6897659	-9.3358679	80.59	93.0	5.0	0.0	
7.69	2.88621019	0.37469256	9.315839	38.6897659	-9.3358679	80.59	93.0	5.0	0.0	
7.7	2.8850129	0.33518824	9.2380279	38.6897659	-9.3358679	80.59	93.0	5.0	0.0	
7.71	2.99394919	0.2789245	9.186552	38.6897659	-9.3358679	80.59	93.0	5.0	0.0	
7.72	3.1759086	0.296881019	9.258378	38.6897659	-9.3358679	80.59	93.0	5.0	0.0	
7.73	3.205836	0.2801216	9.3733	38.6897659	-9.3358679	80.59	93.0	5.0	0.0	
7.74	3.12563039	0.302866519	9.2930939	38.6897659	-9.3358679	80.59	93.0	5.0	0.0	
7.75	3.0382419	0.33039984	9.095572	38.6897659	-9.3358679	80.59	93.0	5.0	0.0	
7.76	3.0442274	0.34237084	8.9387519	38.6897659	-9.3358679	80.59	93.0	5.0	0.0	
7.77	3.0969	0.37469256	8.9698759	38.6897659	-9.3358679	80.59	93.0	5.0	0.0	
7.78	3.1112652	0.3878607	9.106346	38.6897659	-9.3358679	80.59	93.0	5.0	0.0	
7.79	3.0717609	0.371101259	9.163807	38.6897659	-9.3358679	80.59	93.0	5.0	0.0	
7.8	3.0226796	0.336385339	9.119514	38.6897659	-9.3358679	80.59	93.0	5.0	0.0	
7.81	2.99754049	0.361524459	9.1937339	38.6897659	-9.3358679	80.59	93.0	5.0	0.0	
7.82	3.0178912	0.41060558	9.108741	38.6897659	-9.3358679	80.59	93.0	5.0	0.0	
7.83	3.00711729	0.4153939	9.026139	38.6897659	-9.3358679	80.59	93.0	5.0	0.0	
7.84	2.97599269	0.379480959	9.053674	38.6897659	-9.3358679	80.59	93.0	5.0	0.0	
7.85	2.9245174	0.360327359	9.106346	38.6897659	-9.3358679	80.59	93.0	5.0	0.0	
7.86	2.9616275	0.35434186	9.2033109	38.6897659	-9.3358679	80.59	93.0	5.0	0.0	
7.87	3.0226796	0.35434186	9.1949319	38.6897659	-9.3358679	80.59	93.0	5.0	0.0	
7.88	3.074155	0.371101259	9.1793689	38.6897659	-9.3358679	80.59	93.0	5.0	0.0	
7.89	3.0957029	0.37828386	9.187749	38.6897659	-9.3358679	80.59	93.0	5.0	0.0	
7.9	3.0597897	0.36750996	9.119514	38.6897659	-9.3358679	80.59	93.0	5.0	0.0	
7.91	3.07894349	0.381875159	9.0668419	38.6897659	-9.3358679	80.59	93.0	5.0	0.0	
7.92	3.19865349	0.39624038	9.1506389	38.6897659	-9.3358679	80.59	93.0	5.0	0.0	
7.93	3.25012869	0.380678059	9.3349919	38.6897659	-9.3358679	80.59	93.0	5.0	0.0	
7.94	3.1723173	0.357933159	9.350554	38.6897659	-9.3358679	80.59	93.0	5.0	0.0	
7.95	3.0729579	0.35673606	9.108741	38.6897659	-9.3358679	80.59	93.0	5.0	0.0	
7.96	3.06936669	0.35314476	8.898049	38.6897659	-9.3358679	80.59	93.0	5.0	0.0	
7.97	3.11365939	0.35553896	8.93635749	38.6897659	-9.3358679	80.59	93.0	5.0	0.0	
7.98	3.134009	0.350750539	9.2033109	38.6897659	-9.3358679	80.59	93.0	5.0	0.0	
7.99	3.10647679	0.34476504	9.402029	38.6897659	-9.3358679	80.59	93.0	5.0	0.0	
8.0	3.040636	0.345962139	9.26556	38.6897659	-9.3358679	80.59	93.0	5.0	0.0	
8.01	3.040636	0.329202739	9.167398	38.6897659	-9.3358679	80.59	93.0	5.0	0.0	
8.02	3.0142999	0.339976639	9.1314849	38.6897659	-9.3358679	80.59	93.0	5.0	0.0	
8.029	3.06098679	0.348356339	9.0608559	38.6897659	-9.3358679	80.59	93.0	5.0	0.0	
8.04	3.04303029	0.314837519	9.0812069	38.6897659	-9.3358679	80.59	93.0	5.0	0.0	
8.05	3.0011318	0.2885013	9.129091	38.6897659	-9.3358679	80.59	93.0	5.0	0.0	
8.06	2.9915549	0.328005639	9.3457659	38.6897659	-9.3358679	80.59	93.0	5.0	0.0	
8.07	2.98796369	0.37588966	9.402029	38.6897659	-9.3358679	80.59	98.0	5.0	0.0	
8.08	2.9340942	0.34476504	9.313444	38.6897659	-9.3358679	80.59	98.0	5.0	0.0	
8.09	2.7940333	0.328005639	9.2835169	38.6897659	-9.3358679	80.59	98.0	5.0	0.0	
8.1	2.9005754	0.460883829	9.105149	38.6897659	-9.3358679	80.59	98.0	5.0	0.0	
8.109	2.97838689	0.4189853	8.989029	38.6897659	-9.3358679	80.59	98.0	5.0	0.0	
8.12	3.0597897	0.4189853	8.9962129	38.6897659	-9.3358679	80.59	98.0	5.0	0.0	
8.13	3.0801406	0.403422979	9.03452	38.6897659	-9.3358679	80.59	98.0	5.0	0.0	
8.14	2.99035789	0.345962139	9.1039519	38.6897659	-9.3358679	80.59	98.0	5.0	0.0	
8.15	2.8838159	0.57580549	8.9375549	38.6897659	-9.3358679	80.59	98.0	5.0	0.0	
8.16	2.2888567	0.7410054	9.9155859	38.6897659	-9.3358679	80.59	98.0	5.0	0.0	
8.17	2.4025815	0.70988079	9.9215719	38.6897659	-9.3358679	80.59	98.0	5.0	0.0	
8.18	2.79523039	-0.1328782	9.976639	38.6897659	-9.3358679	80.59	98.0	5.0	0.0	
8.189	2.79523039	-0.1328782	9.976639	38.6897659	-9.3358679	80.59	98.0	5.0	0.0	
8.2	2.79523039	-0.1328782	9.976639	38.6897659	-9.3358679	80.59	98.0	5.0	0.0	
8.21	2.79523039	-0.1328782	9.976639	38.6897659	-9.3358679	80.59	98.0	5.0	0.0	
8.22	3.12563039	0.6440403	8.655039	38.6897659	-9.3358679	80.59	98.0	5.0	0.0	
8.23	3.12563039	0.6440403	8.655039	38.6897659	-9.3358679	80.59	98.0	5.0	0.0	
8.24	2.943671	0.5793968	8.352173	38.6897659	-9.3358679	80.59	98.0	5.0	0.0	
8.25	3.0394389	0.51235914	8.1307089	38.6897659	-9.3358679	80.59	98.0	5.0	0.0	
8.26	3.1974564	0.48841715	8.301894	38.6897659	-9.3358679	80.59	98.0	5.0	0.0	
8.27	3.0597897	0.371101259	8.4838529	38.6897659	-9.3358679	80.59	98.0	5.0	0.0	
8.28	3.1052797	0.40821138	8.446744	38.6897659	-9.3358679	80.59	98.0	5.0	0.0	
8.29	3.1507695	0.4189853	8.576031	38.6897659	-9.3358679	80.59	98.0	5.0	0.0	
8.3	3.2249897	0.40701428	8.8501659	38.6897659	-9.3358679	80.59	98.0	5.0	0.0	
8.31	3.53264449	0.45370123	9.0405049	38.6897659	-9.3358679	80.59	98.0	5.0	0.0	
8.32	3.8510735	0.53749829	9.1925369	38.6897659	-9.3358679	80.59	98.0	5.0	0.0	
8.33	3.98275449	0.62129533	9.3589339	38.6897659	-9.3358679	80.59	98.0	5.0	0.0	
8.34	3.92050529	0.67516489	9.57321549	38.6897659	-9.3358679	80.59	98.0	5.0	0.0	
8.35	3.31477239	0.59017074	9.6091289	38.6897659	-9.3358679	80.59	98.0	5.0	0.0	
8.36	3.0083144	0.69671269	9.30267049	38.6897659	-9.3358679	80.59	98.0	5.0	0.0	
8.37	2.9568389	0.7410054	9.005789	38.6897659	-9.3358679	80.59	98.0	5.0	0.0	
8.38	2.9568389	0.7410054	9.005789	38.6897659	-9.3358679	80.59	98.0	5.0	0.0	
8.39	3.0418332	0.6811504	8.651448	38.6897659	-9.3358679	80.59	98.0	5.0	0.0	
8.4	2.83114359	0.63566049	8.566454	38.6897659	-9.3358679	80.59	98.0	5.0	0.0	
8.41	2.60489149	0.60932434	8.554482	38.6897659	-9.3358679	80.59	98.0	5.0	0.0	
8.42	2.51989719	0.597353339	8.59279	38.6897659	-9.3358679	80.59	98.0	5.0	0.0	
8.43	2.5701754	0.51235914	8.640674	38.6897659	-9.3358679	80.59	98.0	5.0	0.0	
8.44	2.6527755	0.4309563	8.6741919	38.6897659	-9.3358679	80.59	98.0	5.0	0.0	
8.45	2.7545289	0.372298359	8.8393929	38.6897659	-9.3358679	80.59	98.0	5.0	0.0	
8.46	2.87663339	0.37469256	9.25478649	38.6897659	-9.3358679	80.59	98.0	5.0	0.0	
8.47	3.063381	0.506373639	9.6067339	38.6897659	-9.3358679	80.59	98.0	5.0	0.0	
8.48	3.3351229	0.57819969	10.0029745	38.6897659	-9.3358679	80.59	98.0	5.0	0.0	
8.49	3.76727629	0.7254431	10.4195659	38.6897659	-9.3358679	80.59	98.0	5.0	0.0	
8.5	3.6343982	0.460883829	9.986216	38.6897659	-9.3358679	80.59	98.0	5.0	0.0	
8.51	3.4081461	0.482431649	9.326612	38.6897659	-9.3358679	80.59	98.0	5.0	0.0	
8.52	3.1567549	0.53270989	8.8130559	38.6897659	-9.3358679	80.59	98.0	5.0	0.0	
8.53	3.0083144	0.54108959	8.450335	38.6897659	-9.3358679	80.59	98.0	5.0	0.0	
8.54	2.6192567	0.9636662	9.1255	38.6897659	-9.3358679	80.59	98.0	5.0	0.0	
8.55	2.60489149	0.39025488	8.9447369	38.6897659	-9.3358679	80.59	98.0	5.0	0.0	
8.56	3.3255463	-0.022744916	9.1578219	38.6897659	-9.3358679	80.59	98.0	5.0	0.0	
8.57	3.62960979	0.508767839	9.396045	38.6897659	-9.3358679	80.59	98.0	5.0	0.0	
8.58	3.43927069	0.506373639	9.291897	38.6897659	-9.3358679	80.59	98.0	5.0	0.0	
8.59	3.35547379	0.45489833	9.217676	38.6897659	-9.3358679	80.59	98.0	5.0	0.0	
8.6	3.2896329	0.47285482	9.006987	38.6897659	-9.3358679	80.59	98.0	5.0	0.0	
8.61	3.26329679	0.48722005	8.835801	38.6897659	-9.3358679	80.59	98.0	5.0	0.0	
8.62	3.2393548	0.519541739	8.983045	38.6897659	-9.3358679	80.59	98.0	5.0	0.0	
8.63	2.9065609	0.25498247	9.9119949	38.6897659	-9.3358679	80.59	98.0	5.0	0.0	
8.64	2.9532478	0.46208093	10.1681749	38.6897659	-9.3358679	80.59	98.0	5.0	0.0	
8.65	2.94127679	0.58418524	9.871294	38.6897659	-9.3358679	80.59	98.0	5.0	0.0	
8.66	2.837129	0.519541739	9.586384	38.6897659	-9.3358679	80.59	98.0	5.0	0.0	
8.67	2.847903	0.52911859	9.25478649	38.6897659	-9.3358679	80.59	98.0	5.0	0.0	
8.68	2.968809	0.58059389	8.7220759	38.6897659	-9.3358679	80.59	98.0	5.0	0.0	
8.69	3.132813	0.75896189	8.38209	38.6897659	-9.3358679	80.59	98.0	5.0	0.0	
8.7	3.1806969	0.88705169	8.457518	38.6897659	-9.3358679	80.59	98.0	5.0	0.0	
8.71	3.1974564	0.784101069	8.735245	38.6897659	-9.3358679	80.59	98.0	5.0	0.0	
8.72	3.34829119	0.7625532	9.054871	38.6897659	-9.3358679	80.59	98.0	5.0	0.0	
8.73	3.39138669	0.7625532	9.1985229	38.6897659	-9.3358679	80.59	98.0	5.0	0.0	
8.74	3.41293449	0.7469909	9.1410619	38.6897659	-9.3358679	80.59	98.0	5.0	0.0	
8.75	3.3387144	0.7469909	9.094376	38.6897659	-9.3358679	80.59	98.0	5.0	0.0	
8.76	3.25012869	0.760159	8.95192049	38.6897659	-9.3358679	80.59	98.0	5.0	0.0	
8.77	3.13760139	0.78529817	8.6322949	38.6897659	-9.3358679	80.59	98.0	5.0	0.0	
8.78	3.04303029	0.794874969	8.562862	38.6897659	-9.3358679	80.59	98.0	5.0	0.0	
8.79	3.0753522	0.812831459	8.8669259	38.6897659	-9.3358679	80.59	98.0	5.0	0.0	
8.8	3.18428829	0.80325466	9.234436	38.6897659	-9.3358679	80.59	98.0	5.0	0.0	
8.81	3.22618679	0.794874969	9.279925	38.6897659	-9.3358679	80.59	98.0	5.0	0.0	
8.82	3.11964489	0.81402856	8.9674829	38.6897659	-9.3358679	80.59	98.0	5.0	0.0	
8.83	2.7629087	0.82480246	9.020155	38.6897659	-9.3358679	80.59	98.0	5.0	0.0	
8.84	2.64439579	0.79607207	9.0883889	38.6897659	-9.3358679	80.59	98.0	5.0	0.0	
8.85	2.66354939	0.7757214	9.2224649	38.6897659	-9.3358679	80.59	98.0	5.0	0.0	
8.86	2.77607679	0.7386112	9.311049	38.6897659	-9.3358679	80.59	98.0	5.0	0.0	
8.87	2.8323407	0.72065469	9.16261	38.6897659	-9.3358679	80.59	98.0	5.0	0.0	
8.88	2.73657249	0.797269169	8.96029949	38.6897659	-9.3358679	80.59	98.0	5.0	0.0	
8.89	2.60130019	0.8379706	8.854955	38.6897659	-9.3358679	80.59	98.0	5.0	0.0	
8.9	2.5330653	0.7553706	8.8645315	38.6897659	-9.3358679	80.59	98.0	5.0	0.0	
8.91	2.63242479	0.69671269	9.1135289	38.6897659	-9.3358679	80.59	98.0	5.0	0.0	
8.92	2.9568389	0.87986909	8.9172039	38.6897659	-9.3358679	80.59	98.0	5.0	0.0	
8.93	2.4660277	1.24977329	9.985018	38.6897659	-9.3358679	80.59	98.0	5.0	0.0	
8.94	2.5210943	0.4405331	9.622296	38.6897659	-9.3358679	80.59	98.0	5.0	0.0	
8.95	3.38181	0.6847417	9.0907839	38.6897659	-9.3358679	80.59	98.0	5.0	0.0	
8.96	3.4105403	1.0007763	8.694544	38.6897659	-9.3358679	80.59	98.0	5.0	0.0	
8.97	3.04662159	1.40779049	8.99741	38.6897659	-9.3358679	80.59	98.0	5.0	0.0	
8.98	2.8658595	0.83557639	8.880095	38.6897659	-9.3358679	80.59	98.0	5.0	0.0	
8.99	3.57813449	0.95648359	8.9243869	38.6897659	-9.3358679	80.59	98.0	5.0	0.0	
9.0	3.5793316	1.0211269	9.2595749	38.6897659	-9.3358679	80.59	98.0	5.0	0.0	
9.01	3.60566779	0.82719666	9.2356329	38.6897659	-9.3358679	80.59	98.0	5.0	0.0	
9.02	3.7541082	0.86071549	9.1650039	38.6897659	-9.3358679	80.59	98.0	5.0	0.0	
9.03	3.7050269	0.8295909	9.0931779	38.6897659	-9.3358679	80.59	98.0	5.0	0.0	
9.04	3.5889084	0.76853879	8.856153	38.6897659	-9.3358679	80.59	98.0	5.0	0.0	
9.05	3.62721559	0.77332719	8.702923	38.6897659	-9.3358679	80.59	95.0	5.0	0.0	
9.06	3.5637693	0.8307879	8.801085	38.6897659	-9.3358679	80.59	95.0	5.0	0.0	
9.07	3.4452562	0.7553706	8.8501659	38.6897659	-9.3358679	80.59	95.0	5.0	0.0	
9.08	3.5087025	0.8451532	9.053674	38.6897659	-9.3358679	80.59	95.0	5.0	0.0	
9.09	3.52306769	0.842759	9.2978819	38.6897659	-9.3358679	80.59	95.0	5.0	0.0	
9.1	3.513491	0.87388359	9.4092129	38.6897659	-9.3358679	80.59	95.0	5.0	0.0	
9.11	3.43448229	0.88226329	9.3948479	38.6897659	-9.3358679	80.59	95.0	5.0	0.0	
9.12	3.3865983	0.88824879	9.236829	38.6897659	-9.3358679	80.59	95.0	5.0	0.0	
9.13	3.2980127	0.90141696	9.1757779	38.6897659	-9.3358679	80.59	95.0	5.0	0.0	
9.14	3.2190042	0.9911995	9.31943	38.6897659	-9.3358679	80.59	95.0	5.0	0.0	
9.15	3.2309752	0.95408939	9.443929	38.6897659	-9.3358679	80.59	95.0	5.0	0.0	
9.16	3.3171666	1.0462662	9.470264	38.6897659	-9.3358679	80.59	95.0	5.0	0.0	
9.17	3.35188249	1.0283096	9.1374709	38.6897659	-9.3358679	80.59	95.0	5.0	0.0	
9.18	3.42131419	1.0163386	8.90643	38.6897659	-9.3358679	80.59	95.0	5.0	0.0	
9.19	3.4225113	1.0175357	8.740033	38.6897659	-9.3358679	80.59	95.0	5.0	0.0	
9.2	3.3662477	1.0342951	8.528147	38.6897659	-9.3358679	80.59	95.0	5.0	0.0	
9.21	3.31477239	1.1228806	8.473079	38.6897659	-9.3358679	80.59	95.0	5.0	0.0	
9.22	3.23336939	1.0893618	8.611943	38.6897659	-9.3358679	80.59	95.0	5.0	0.0	
9.23	3.16154339	1.07619369	8.550891	38.6897659	-9.3358679	80.59	95.0	5.0	0.0	
9.24	3.3602622	1.0510546	8.498219	38.6897659	-9.3358679	80.59	95.0	5.0	0.0	
9.25	3.5793316	1.07140529	8.4156189	38.6897659	-9.3358679	80.59	95.0	5.0	0.0	
9.26	3.703829	1.1324574	8.2025349	38.6897659	-9.3358679	80.59	95.0	5.0	0.0	
9.27	3.6870706	1.1587936	7.93438429	38.6897659	-9.3358679	80.59	95.0	5.0	0.0	
9.28	3.62362429	1.1013328	7.70693539	38.6897659	-9.3358679	80.59	95.0	5.0	0.0	
9.29	3.7349546	1.15639939	7.645883	38.6897659	-9.3358679	80.59	95.0	5.0	0.0	
9.3	3.9276879	0.903811159	8.31506249	38.6897659	-9.3358679	80.59	95.0	5.0	0.0	
9.31	4.08211369	0.94092125	8.835801	38.6897659	-9.3358679	80.59	95.0	5.0	0.0	
9.32	4.3095629	1.11330379	9.1889459	38.6897659	-9.3358679	80.59	95.0	5.0	0.0	
9.33	4.938041	1.2856863	10.8541139	38.6897659	-9.3358679	80.59	95.0	5.0	0.0	
9.34	4.53940629	1.7621324	12.6820859	38.6897659	-9.3358679	80.59	95.0	5.0	0.0	
9.35	4.11683	3.1459809	10.9606549	38.6897659	-9.3358679	80.59	95.0	5.0	0.0	
9.36	3.0729579	3.23815769	9.7084875	38.6897659	-9.3358679	80.59	95.0	5.0	0.0	
9.37	2.3475149	2.29963059	8.3725229	38.6897659	-9.3358679	80.59	95.0	5.0	0.0	
9.38	2.3475149	2.29963059	8.3725229	38.6897659	-9.3358679	80.59	95.0	5.0	0.0	
9.39	3.0502129	1.82677589	8.11634349	38.6897659	-9.3358679	80.59	95.0	5.0	0.0	
9.4	3.47039529	1.76452659	8.841787	38.6897659	-9.3358679	80.59	95.0	5.0	0.0	
9.41	3.988739	1.21146609	9.3337959	38.6897659	-9.3358679	80.59	95.0	5.0	0.0	
9.42	4.4580035	1.6304513	9.0285349	38.6897659	-9.3358679	80.59	95.0	5.0	0.0	
9.43	4.253299	1.7944542	9.350554	38.6897659	-9.3358679	80.59	95.0	5.0	0.0	
9.44	4.23414559	1.96683669	9.2404209	38.6897659	-9.3358679	80.59	95.0	5.0	0.0	
9.45	3.75530529	1.11809219	9.5408939	38.6897659	-9.3358679	80.59	95.0	5.0	0.0	
9.46	3.95522119	1.25695589	9.998186	38.6897659	-9.3358679	80.59	95.0	5.0	0.0	
9.47	3.8307228	1.0618285	9.767146	38.6897659	-9.3358679	80.59	95.0	5.0	0.0	
9.48	3.6691139	0.7410054	9.2236619	38.6897659	-9.3358679	80.59	95.0	5.0	0.0	
9.49	3.60447069	0.96725749	8.892065	38.6897659	-9.3358679	80.59	95.0	5.0	0.0	
9.5	3.57693739	0.9983821	8.556877	38.6897659	-9.3358679	80.59	95.0	5.0	0.0	
9.51	3.29322429	0.66678519	8.3677349	38.6897659	-9.3358679	80.59	95.0	5.0	0.0	
9.52	3.52306769	0.9911995	7.727286	38.6897659	-9.3358679	80.59	95.0	5.0	0.0	
9.53	4.1240125	1.7214309	7.1730285	38.6897659	-9.3358679	80.59	95.0	5.0	0.0	
9.54	4.605247	2.3535004	7.17901369	38.6897659	-9.3358679	80.59	95.0	5.0	0.0	
9.55	4.21858359	2.231396	7.36097339	38.6897659	-9.3358679	80.59	95.0	5.0	0.0	
9.56	3.76727629	2.09133529	7.89727449	38.6897659	-9.3358679	80.59	95.0	5.0	0.0	
9.57	3.4320881	2.019509	8.5173719	38.6897659	-9.3358679	80.59	95.0	5.0	0.0	
9.58	3.2656909	1.92014979	8.827422	38.6897659	-9.3358679	80.59	95.0	5.0	0.0	
9.59	3.15914919	2.067393	8.7220759	38.6897659	-9.3358679	80.59	95.0	5.0	0.0	
9.6	3.253719	2.2613235	8.590396	38.6897659	-9.3358679	80.59	95.0	5.0	0.0	
9.61	3.0083144	1.73819039	8.285135	38.6897659	-9.3358679	80.59	95.0	5.0	0.0	
9.62	3.03345349	1.7405846	7.7284829	38.6897659	-9.3358679	80.59	95.0	5.0	0.0	
9.63	2.99993469	1.79924259	7.44836139	38.6897659	-9.3358679	80.59	95.0	5.0	0.0	
9.64	3.1854854	2.0039468	7.69496439	38.6897659	-9.3358679	80.59	95.0	5.0	0.0	
9.65	3.406949	1.81959329	8.033744	38.6897659	-9.3358679	80.59	95.0	5.0	0.0	
9.66	3.3291376	1.15759649	7.9523409	38.6897659	-9.3358679	80.59	95.0	5.0	0.0	
9.67	3.51947639	0.64763159	8.305486	38.6897659	-9.3358679	80.59	95.0	5.0	0.0	
9.68	4.0402155	0.107739076	9.4283669	38.6897659	-9.3358679	80.59	95.0	5.0	0.0	
9.69	4.7656584	0.055066638	9.7863	38.6897659	-9.3358679	80.59	95.0	5.0	0.0	
9.7	5.15232229	0.30166942	9.6606039	38.6897659	-9.3358679	80.59	95.0	5.0	0.0	
9.71	5.0792989	0.93014735	9.3577379	38.6897659	-9.3358679	80.59	95.0	5.0	0.0	
9.72	4.6303859	1.3096284	9.3577379	38.6897659	-9.3358679	80.59	95.0	5.0	0.0	
9.73	4.1970359	1.4592659	9.85214	38.6897659	-9.3358679	80.59	95.0	5.0	0.0	
9.74	3.90254879	1.6795325	10.26514	38.6897659	-9.3358679	80.59	95.0	5.0	0.0	
9.75	3.49553439	1.8495208	10.5189249	38.6897659	-9.3358679	80.59	95.0	5.0	0.0	
9.76	3.13161589	1.98958159	9.8533369	38.6897659	-9.3358679	80.59	95.0	5.0	0.0	
9.77	2.56897829	2.02429749	9.6091289	38.6897659	-9.3358679	80.59	95.0	5.0	0.0	
9.78	2.46123929	1.94528889	9.363723	38.6897659	-9.3358679	80.59	95.0	5.0	0.0	
9.79	2.2457612	1.7118542	9.0644469	38.6897659	-9.3358679	80.59	95.0	5.0	0.0	
9.8	1.9931729	1.5933412	8.4670939	38.6897659	-9.3358679	80.59	95.0	5.0	0.0	
9.81	1.543063	1.270124	7.642292	38.6897659	-9.3358679	80.59	95.0	5.0	0.0	
9.82	0.70988079	0.63805469	7.560889	38.6897659	-9.3358679	80.59	95.0	5.0	0.0	
9.83	-0.093373865	0.26455929	8.0983879	38.6897659	-9.3358679	80.59	95.0	5.0	0.0	
9.84	-0.17717093	0.153228909	8.5748329	38.6897659	-9.3358679	80.59	95.0	5.0	0.0	
9.85	0.614112729	0.481234549	8.281544	38.6897659	-9.3358679	80.59	95.0	5.0	0.0	
9.86	1.3766659	0.8535329	7.6470804	38.6897659	-9.3358679	80.59	95.0	5.0	0.0	
9.87	1.424549	0.7661445	6.981492	38.6897659	-9.3358679	80.59	95.0	5.0	0.0	
9.88	0.92775315	0.44651863	7.19697049	38.6897659	-9.3358679	80.59	95.0	5.0	0.0	
9.89	0.7026982	0.36391866	8.352173	38.6897659	-9.3358679	80.59	95.0	5.0	0.0	
9.9	1.56820209	0.98162269	11.3257709	38.6897659	-9.3358679	80.59	95.0	5.0	0.0	
9.91	2.90536379	1.1372458	11.123461	38.6897659	-9.3358679	80.59	95.0	5.0	0.0	
9.92	4.581305	2.066196	11.1150819	38.6897659	-9.3358679	80.59	95.0	5.0	0.0	
9.93	6.561309	2.8538885	11.449073	38.6897659	-9.3358679	80.59	95.0	5.0	0.0	
9.94	7.171831	2.9101522	12.230779	38.6897659	-9.3358679	80.59	95.0	5.0	0.0	
9.95	5.0888759	2.0470424	10.86369	38.6897659	-9.3358679	80.59	95.0	5.0	0.0	
9.96	3.217807	1.63164839	8.79509	38.6897659	-9.3358679	80.59	95.0	5.0	0.0	
9.97	3.2417489	2.06140759	7.3430166	38.6897659	-9.3358679	80.59	95.0	5.0	0.0	
9.98	3.3446999	1.87346279	6.813898	38.6897659	-9.3358679	80.59	95.0	5.0	0.0	
9.99	2.86226819	1.1228806	7.153875	38.6897659	-9.3358679	80.59	95.0	5.0	0.0	
10.0	3.43328519	1.23301389	8.189367	38.6897659	-9.3358679	80.59	95.0	5.0	0.0	
10.01	3.83790539	0.934935749	8.9040365	38.6897659	-9.3358679	80.59	95.0	5.0	0.0	
10.02	4.31195739	0.906205359	9.458294	38.6897659	-9.3358679	80.59	95.0	5.0	0.0	
10.03	4.607641	1.0271125	9.5887779	38.6897659	-9.3358679	80.59	95.0	5.0	0.0	
10.04	4.3370959	1.412579	9.552865	38.6897659	-9.3358679	80.59	95.0	5.0	0.0	
10.05	3.2154129	1.4508862	9.2272529	38.6897659	-9.3358679	80.59	95.0	5.0	0.0	
10.06	2.134431	1.2713209	9.1039519	38.6897659	-9.3358679	80.59	95.0	5.0	0.0	
10.07	2.0015526	1.1731589	8.784326	38.6897659	-9.3358679	80.59	95.0	5.0	0.0	
10.08	1.982399	1.1264719	8.513782	38.6897659	-9.3358679	80.59	95.0	5.0	0.0	
10.09	1.8507179	1.2593501	8.884883	38.6897659	-9.3358679	80.59	95.0	5.0	0.0	
10.1	2.35110619	0.8810662	9.672575	38.6897659	-9.3358679	80.59	93.0	5.0	0.0	
10.11	2.9927519	0.912190849	10.466252	38.6897659	-9.3358679	80.59	93.0	5.0	0.0	
10.12	2.920926	1.10731829	10.777499	38.6897659	-9.3358679	80.59	93.0	5.0	0.0	
10.13	2.58334369	0.9528923	10.364499	38.6897659	-9.3358679	80.59	93.0	5.0	0.0	
10.14	2.70065949	1.16837049	9.431957	38.6897659	-9.3358679	80.59	93.0	5.0	0.0	
10.15	2.72819279	1.3730747	8.327033	38.6897659	-9.3358679	80.59	93.0	5.0	0.0	
10.16	2.574964	1.2761095	7.6614456	38.6897659	-9.3358679	80.59	93.0	5.0	0.0	
10.17	2.790442	1.2270284	7.5812397	38.6897659	-9.3358679	80.59	93.0	5.0	0.0	
10.18	3.1016884	1.03190089	8.5149779	38.6897659	-9.3358679	80.59	93.0	5.0	0.0	
10.19	2.7545289	1.1336545	9.67018	38.6897659	-9.3358679	80.59	93.0	5.0	0.0	
10.2	2.5462334	1.1947067	8.4263929	38.6897659	-9.3358679	80.59	93.0	5.0	0.0	
10.21	2.77009129	1.18034149	9.277532	38.6897659	-9.3358679	80.59	93.0	5.0	0.0	
10.22	2.6252422	1.12886609	9.2296479	38.6897659	-9.3358679	80.59	93.0	5.0	0.0	
10.23	1.97401929	1.13604869	9.8162269	38.6897659	-9.3358679	80.59	93.0	5.0	0.0	
10.24	2.79283619	1.08577049	9.7204589	38.6897659	-9.3358679	80.59	93.0	5.0	0.0	
10.25	3.6092591	1.28927769	9.7719345	38.6897659	-9.3358679	80.59	93.0	5.0	0.0	
10.26	3.4356794	1.32758489	9.880871	38.6897659	-9.3358679	80.59	93.0	5.0	0.0	
10.27	3.490746	1.10851539	9.929952	38.6897659	-9.3358679	80.59	93.0	5.0	0.0	
10.28	3.4811692	1.2461819	9.8784759	38.6897659	-9.3358679	80.59	93.0	5.0	0.0	
10.29	2.823961	1.1767502	9.2978819	38.6897659	-9.3358679	80.59	93.0	5.0	0.0	
10.3	2.7198129	0.9696517	8.856153	38.6897659	-9.3358679	80.59	93.0	5.0	0.0	
10.31	3.11964489	1.23540809	8.556877	38.6897659	-9.3358679	80.59	93.0	5.0	0.0	
10.32	3.2656909	1.3287819	8.872911	38.6897659	-9.3358679	80.59	93.0	5.0	0.0	
10.33	3.13161589	0.81402856	8.9746649	38.6897659	-9.3358679	80.59	93.0	5.0	0.0	
10.34	3.13161589	0.81402856	8.9746649	38.6897659	-9.3358679	80.59	93.0	5.0	0.0	
10.35	2.8179753	1.1037269	8.3102739	38.6897659	-9.3358679	80.59	93.0	5.0	0.0	
10.36	2.42412919	0.9876082	8.3749179	38.6897659	-9.3358679	80.59	93.0	5.0	0.0	
10.37	2.1332338	0.7122749	7.5561004	38.6897659	-9.3358679	80.59	93.0	5.0	0.0	
10.38	2.08534979	0.736217	8.4287869	38.6897659	-9.3358679	80.59	93.0	5.0	0.0	
10.39	2.516306	0.72065469	7.9798739	38.6897659	-9.3358679	80.59	93.0	5.0	0.0	
10.4	2.9735985	0.9744401	8.516175	38.6897659	-9.3358679	80.59	93.0	5.0	0.0	
10.41	2.8886044	1.2198458	9.647436	38.6897659	-9.3358679	80.59	93.0	5.0	0.0	
10.42	2.41814369	1.14083709	10.5344879	38.6897659	-9.3358679	80.59	93.0	5.0	0.0	
10.43	1.9069817	0.99239659	11.263522	38.6897659	-9.3358679	80.59	93.0	5.0	0.0	
10.44	2.2122424	0.93014735	10.6374379	38.6897659	-9.3358679	80.59	93.0	5.0	0.0	
10.45	3.6858735	1.389834	11.025299	38.6897659	-9.3358679	80.59	93.0	5.0	0.0	
10.46	3.07654929	1.5310919	8.450335	38.6897659	-9.3358679	80.59	93.0	5.0	0.0	
10.47	3.028665	1.1743559	8.11634349	38.6897659	-9.3358679	80.59	93.0	5.0	0.0	
10.48	2.60130019	0.84635029	8.356961	38.6897659	-9.3358679	80.59	93.0	5.0	0.0	
10.49	2.3630772	0.815225659	8.2157029	38.6897659	-9.3358679	80.59	93.0	5.0	0.0	
10.5	2.9185319	1.0953473	8.264784	38.6897659	-9.3358679	80.59	93.0	5.0	0.0	
10.51	4.17069959	1.5753847	9.4977979	38.6897659	-9.3358679	80.59	93.0	5.0	0.0	
10.52	4.3059716	1.483208	9.639056	38.6897659	-9.3358679	80.59	93.0	5.0	0.0	
10.53	3.6619315	1.14083709	9.9826239	38.6897659	-9.3358679	80.59	93.0	5.0	0.0	
10.54	2.790442	0.7386112	10.1011369	38.6897659	-9.3358679	80.59	93.0	5.0	0.0	
10.55	1.8866309	0.32321724	9.6067339	38.6897659	-9.3358679	80.59	93.0	5.0	0.0	
10.56	1.69988319	0.295683919	9.417592	38.6897659	-9.3358679	80.59	93.0	5.0	0.0	
10.57	1.77530049	0.16759412	9.1829605	38.6897659	-9.3358679	80.59	93.0	5.0	0.0	
10.58	2.15597869	0.47285482	8.702923	38.6897659	-9.3358679	80.59	93.0	5.0	0.0	
10.59	3.05619839	1.697489	8.2516165	38.6897659	-9.3358679	80.59	93.0	5.0	0.0	
10.6	4.3430819	3.26209969	10.1921169	38.6897659	-9.3358679	80.59	93.0	5.0	0.0	
10.61	2.09732079	-0.23822308	10.309433	38.6897659	-9.3358679	80.59	93.0	5.0	0.0	
10.62	0.41778819	-0.72664019	12.962208	38.6897659	-9.3358679	80.59	93.0	5.0	0.0	
10.63	0.33159694	-1.2366052	13.563152	38.6897659	-9.3358679	80.59	93.0	5.0	0.0	
10.64	-0.900219859	-1.4413095	14.057555	38.6897659	-9.3358679	80.59	93.0	5.0	0.0	
10.65	-1.30005159	-1.09295309	16.262615	38.6897659	-9.3358679	80.59	93.0	5.0	0.0	
10.66	0.7146692	0.92296475	15.3827459	38.6897659	-9.3358679	80.59	93.0	5.0	0.0	
10.67	0.58538234	1.39103109	15.540763	38.6897659	-9.3358679	80.59	93.0	5.0	0.0	
10.68	0.65601129	3.4237084	14.794969	38.6897659	-9.3358679	80.59	93.0	5.0	0.0	
10.69	0.7122749	2.0901382	13.532028	38.6897659	-9.3358679	80.59	93.0	5.0	0.0	
10.7	-0.21428105	0.75656769	12.376825	38.6897659	-9.3358679	80.59	93.0	5.0	0.0	
10.71	0.517147539	2.15238739	12.5252669	38.6897659	-9.3358679	80.59	93.0	5.0	0.0	
10.72	3.418919	4.177882	14.5782939	38.6897659	-9.3358679	80.59	93.0	5.0	0.0	
10.73	3.8139634	4.9176903	15.336059	38.6897659	-9.3358679	80.59	93.0	5.0	0.0	
10.74	3.7912183	4.6100354	14.19043349	38.6897659	-9.3358679	80.59	93.0	5.0	0.0	
10.75	3.064578	3.42490549	12.2654949	38.6897659	-9.3358679	80.59	93.0	5.0	0.0	
10.76	2.3594859	2.79523039	11.0432559	38.6897659	-9.3358679	80.59	93.0	5.0	0.0	
10.77	2.02429749	2.5881321	10.8984059	38.6897659	-9.3358679	80.59	93.0	5.0	0.0	
10.78	1.95127439	2.43729729	10.621876	38.6897659	-9.3358679	80.59	93.0	5.0	0.0	
10.79	1.78727159	2.1787236	9.9359369	38.6897659	-9.3358679	80.59	93.0	5.0	0.0	
10.8	1.5478514	2.2804769	9.3409779	38.6897659	-9.3358679	80.59	93.0	5.0	0.0	
10.81	1.2485762	2.8395233	9.1374709	38.6897659	-9.3358679	80.59	93.0	5.0	0.0	
10.82	0.9971849	3.0454245	8.893262	38.6897659	-9.3358679	80.59	93.0	5.0	0.0	
10.83	0.5494693	3.2225955	9.0129719	38.6897659	-9.3358679	80.59	93.0	5.0	0.0	
10.84	-0.1592144	3.5302503	9.0093809	38.6897659	-9.3358679	80.59	93.0	5.0	0.0	
10.85	-0.89303726	3.560178	9.1949319	38.6897659	-9.3358679	80.59	93.0	5.0	0.0	
10.86	-1.3096284	3.5278559	9.199719	38.6897659	-9.3358679	80.59	93.0	5.0	0.0	
10.87	-1.40659339	3.63320109	8.550891	38.6897659	-9.3358679	80.59	93.0	5.0	0.0	
10.88	-1.9333179	3.60447069	7.6602483	38.6897659	-9.3358679	80.59	93.0	5.0	0.0	
10.89	-2.6551697	3.3315318	7.55490349	38.6897659	-9.3358679	80.59	93.0	5.0	0.0	
10.9	-3.405752	3.05859259	7.65067149	38.6897659	-9.3358679	80.59	93.0	5.0	0.0	
10.91	-3.66312859	3.0849289	6.8881183	38.6897659	-9.3358679	80.59	93.0	5.0	0.0	
10.92	-3.942053	3.80678079	5.9663506	38.6897659	-9.3358679	80.59	93.0	5.0	0.0	
10.93	-4.7273509	5.386954	5.8562174	38.6897659	-9.3358679	80.59	93.0	5.0	0.0	
10.94	-5.6311619	5.5186349	4.486734	38.6897659	-9.3358679	80.59	93.0	5.0	0.0	
10.95	-6.3123126	5.0792989	2.0482395	38.6897659	-9.3358679	80.59	93.0	5.0	0.0	
10.96	-6.944382	4.914099	0.64523739	38.6897659	-9.3358679	80.59	93.0	5.0	0.0	
10.97	-8.08881	4.9284644	0.54348379	38.6897659	-9.3358679	80.59	93.0	5.0	0.0	
10.98	-9.2847139	5.2648497	0.47764325	38.6897659	-9.3358679	80.59	93.0	5.0	0.0	
10.99	-8.8034789	5.0852839	-0.1388637	38.6897659	-9.3358679	80.59	93.0	5.0	0.0	
11.0	-7.1730285	4.5310269	0.48602295	38.6897659	-9.3358679	80.59	93.0	5.0	0.0	
11.01	-6.9108634	3.9540239	1.94050049	38.6897659	-9.3358679	80.59	93.0	5.0	0.0	
11.02	-7.9200189	3.3985693	3.7505169	38.6897659	-9.3358679	80.59	93.0	5.0	0.0	
11.03	-8.8262239	2.60489149	5.5868697	38.6897659	-9.3358679	80.59	93.0	5.0	0.0	
11.04	-9.010578	2.397793	6.95036749	38.6897659	-9.3358679	80.59	93.0	5.0	0.0	
11.05	-8.706514	2.67911169	8.77714349	38.6897659	-9.3358679	80.59	93.0	5.0	0.0	
11.06	-8.640674	2.8754363	9.096769	38.6897659	-9.3358679	80.59	93.0	5.0	0.0	
11.07	-9.1075429	2.24216989	8.878897	38.6897659	-9.3358679	80.59	93.0	5.0	0.0	
11.08	-9.7240505	1.3168109	8.480263	38.6897659	-9.3358679	80.59	93.0	5.0	0.0	
11.09	-9.9658639	0.82719666	8.389283	38.6897659	-9.3358679	80.59	93.0	5.0	0.0	
11.1	-9.831789	0.102950669	9.236829	38.6897659	-9.3358679	80.59	93.0	5.0	0.0	
11.11	-7.9619179	1.2629414	12.220005	38.6897659	-9.3358679	80.59	93.0	5.0	0.0	
11.12	-5.693412	3.55658669	14.07192	38.6897659	-9.3358679	80.59	93.0	5.0	0.0	
11.13	-4.620809	4.5729249	12.840104	38.6897659	-9.3358679	80.59	93.0	5.0	0.0	
11.14	-4.7967829	4.384979	9.8904479	38.6897659	-9.3358679	80.59	93.0	5.0	0.0	
11.15	-5.00148729	4.2245689	7.4064629	38.6897659	-9.3358679	80.59	93.0	5.0	0.0	
11.16	-4.201824	5.0218379	6.4906807	38.6897659	-9.3358679	80.59	93.0	5.0	0.0	
11.17	-2.7868507	6.147113	6.159084	38.6897659	-9.3358679	80.59	93.0	5.0	0.0	
11.18	-1.8064252	7.241263	5.6658783	38.6897659	-9.3358679	80.59	93.0	5.0	0.0	
11.19	-2.73417829	6.633136	2.682703	38.6897659	-9.3358679	80.59	93.0	5.0	0.0	
11.2	-3.80079529	5.0781016	0.70988079	38.6897659	-9.3358679	80.59	93.0	5.0	0.0	
11.21	-4.677073	3.466804	0.022744916	38.6897659	-9.3358679	80.59	93.0	5.0	0.0	
11.22	-4.7824179	3.88938069	0.7433996	38.6897659	-9.3358679	80.59	93.0	5.0	0.0	
11.23	-4.5429979	4.047398	1.2054806	38.6897659	-9.3358679	80.59	93.0	5.0	0.0	
11.24	-4.9212819	3.50989959	2.112883	38.6897659	-9.3358679	80.59	93.0	5.0	0.0	
11.25	-5.4611739	2.89818119	2.8155809	38.6897659	-9.3358679	80.59	93.0	5.0	0.0	
11.26	-5.41688159	2.409764	3.61165329	38.6897659	-9.3358679	80.59	93.0	5.0	0.0	
11.27	-4.6100354	2.2972364	4.5944729	38.6897659	-9.3358679	80.59	93.0	5.0	0.0	
11.28	-3.7840357	2.2697031	5.4611739	38.6897659	-9.3358679	80.59	93.0	5.0	0.0	
11.29	-3.35547379	1.9752164	6.27520279	38.6897659	-9.3358679	80.59	93.0	5.0	0.0	
11.3	-2.823961	1.7082629	7.2628107	38.6897659	-9.3358679	80.59	93.0	5.0	0.0	
11.31	-2.72101019	1.9859903	10.354922	38.6897659	-9.3358679	80.59	93.0	5.0	0.0	
11.32	-3.72178649	2.6611552	16.090233	38.6897659	-9.3358679	80.59	93.0	5.0	0.0	
11.33	-3.714604	3.05619839	18.53591	38.6897659	-9.3358679	80.59	93.0	5.0	0.0	
11.34	-2.0901382	1.66636439	17.65604	38.6897659	-9.3358679	80.59	93.0	5.0	0.0	
11.35	-0.6919243	-0.86071549	13.06037	38.6897659	-9.3358679	80.59	93.0	5.0	0.0	
11.36	-1.2545617	-1.9069817	13.582306	38.6897659	-9.3358679	80.59	93.0	5.0	0.0	
11.37	-1.2545617	-1.9069817	13.582306	38.6897659	-9.3358679	80.59	93.0	5.0	0.0	
11.38	-2.67911169	-0.900219859	6.10760829	38.6897659	-9.3358679	80.59	93.0	5.0	0.0	
11.39	-2.1954829	-0.900219859	6.10760829	38.6897659	-9.3358679	80.59	93.0	5.0	0.0	
11.4	0.49799395	4.7369279	0.405817179	38.6897659	-9.3358679	80.59	93.0	5.0	0.0	
11.41	1.3479356	8.2587989	6.28238529	38.6897659	-9.3358679	80.59	93.0	5.0	0.0	
11.42	-0.3172317	6.805518	8.492233	38.6897659	-9.3358679	80.59	93.0	5.0	0.0	
11.43	-1.00317049	4.26527	7.00304	38.6897659	-9.3358679	80.59	93.0	5.0	0.0	
11.44	-2.3606829	2.231396	6.1447186	38.6897659	-9.3358679	80.59	93.0	5.0	0.0	
11.45	-3.88339519	0.9720459	6.615179	38.6897659	-9.3358679	80.59	93.0	5.0	0.0	
11.46	-4.4975079	0.80325466	7.49265429	38.6897659	-9.3358679	80.59	93.0	5.0	0.0	
11.47	-4.280833	1.28927769	9.1781719	38.6897659	-9.3358679	80.59	93.0	5.0	0.0	
11.48	-3.0394389	0.92296475	8.42759	38.6897659	-9.3358679	80.59	93.0	5.0	0.0	
11.49	-1.8986019	1.2521675	6.2799909	38.6897659	-9.3358679	80.59	93.0	5.0	0.0	
11.5	-1.6903064	1.2737153	7.345411	38.6897659	-9.3358679	80.59	93.0	5.0	0.0	
11.51	-1.32279649	1.4939818	6.3637879	38.6897659	-9.3358679	80.59	93.0	5.0	0.0	
11.52	-2.4576479	0.6344634	5.647922	38.6897659	-9.3358679	80.59	93.0	5.0	0.0	
11.53	-2.0266917	1.91895269	7.31069469	38.6897659	-9.3358679	80.59	93.0	5.0	0.0	
11.54	-1.10731829	2.91733479	7.13472129	38.6897659	-9.3358679	80.59	93.0	5.0	0.0	
11.55	-1.08217919	3.0011318	5.34385819	38.6897659	-9.3358679	80.59	93.0	5.0	0.0	
11.56	-1.52390929	2.8658595	4.43286469	38.6897659	-9.3358679	80.59	93.0	5.0	0.0	
11.57	-1.709459	2.8323407	4.619612	38.6897659	-9.3358679	80.59	93.0	5.0	0.0	
11.58	-1.49039049	2.81677819	5.1822495	38.6897659	-9.3358679	80.59	93.0	5.0	0.0	
11.59	-1.0007763	2.7688942	5.7269306	38.6897659	-9.3358679	80.59	93.0	5.0	0.0	
11.6	-0.80564886	2.65995809	5.911284	38.6897659	-9.3358679	80.59	93.0	5.0	0.0	
11.61	-1.06422269	2.37863949	5.743689	38.6897659	-9.3358679	80.59	93.0	5.0	0.0	
11.62	-1.4185646	1.9656396	6.0046577	38.6897659	-9.3358679	80.59	93.0	5.0	0.0	
11.63	-1.43891529	1.8926164	6.76242259	38.6897659	-9.3358679	80.59	93.0	5.0	0.0	
11.64	-0.9720459	2.2062569	7.99543669	38.6897659	-9.3358679	80.59	93.0	5.0	0.0	
11.65	-1.7944542	1.0450691	6.075287	38.6897659	-9.3358679	80.59	93.0	5.0	0.0	
11.66	-2.0721815	1.7010803	7.6159559	38.6897659	-9.3358679	80.59	93.0	5.0	0.0	
11.67	-1.69270059	1.97880769	7.4339959	38.6897659	-9.3358679	80.59	93.0	5.0	0.0	
11.68	-1.2880806	1.4341269	8.11634349	38.6897659	-9.3358679	80.59	93.0	5.0	0.0	
11.69	-0.63805469	1.76332949	9.411607	38.6897659	-9.3358679	80.59	93.0	5.0	0.0	
11.7	0.27054479	2.84909	9.600749	38.6897659	-9.3358679	80.59	93.0	5.0	0.0	
11.71	1.1923125	3.9001546	9.67018	38.6897659	-9.3358679	80.59	93.0	5.0	0.0	
11.72	1.7669208	3.98275449	10.1119109	38.6897659	-9.3358679	80.59	93.0	5.0	0.0	
11.73	1.745373	3.39617509	10.0496619	38.6897659	-9.3358679	80.59	93.0	5.0	0.0	
11.74	1.59932669	3.1112652	9.7013049	38.6897659	-9.3358679	80.59	93.0	5.0	0.0	
11.75	1.52869769	3.028665	9.3804829	38.6897659	-9.3358679	80.59	93.0	5.0	0.0	
11.76	1.4820108	3.02148249	8.987833	38.6897659	-9.3358679	80.59	93.0	5.0	0.0	
11.77	1.40300209	2.8886044	8.8765029	38.6897659	-9.3358679	80.59	93.0	5.0	0.0	
11.78	1.2629414	2.504335	8.9483289	38.6897659	-9.3358679	80.59	93.0	5.0	0.0	
11.79	1.1336545	2.1416135	9.3170359	38.6897659	-9.3358679	80.59	93.0	5.0	0.0	
11.8	1.21864869	2.07337859	9.759963	38.6897659	-9.3358679	80.59	93.0	5.0	0.0	
11.81	1.66037889	2.0697873	10.0233249	38.6897659	-9.3358679	80.59	93.0	5.0	0.0	
11.82	2.2278047	2.1296425	10.2040869	38.6897659	-9.3358679	80.59	93.0	5.0	0.0	
11.83	2.846706	2.46483059	10.3010529	38.6897659	-9.3358679	80.59	93.0	5.0	0.0	
11.84	3.25611419	2.7748797	10.705673	38.6897659	-9.3358679	80.59	93.0	5.0	0.0	
11.85	3.2860417	3.0047229	10.981006	38.6897659	-9.3358679	80.59	93.0	5.0	0.0	
11.86	3.05619839	3.19865349	10.913968	38.6897659	-9.3358679	80.59	93.0	5.0	0.0	
11.87	2.6647465	3.1172507	10.333375	38.6897659	-9.3358679	80.59	93.0	5.0	0.0	
11.88	2.2685059	2.86466239	9.92636	38.6897659	-9.3358679	80.59	93.0	5.0	0.0	
11.89	2.0075379	2.64679	9.704897	38.6897659	-9.3358679	80.59	93.0	5.0	0.0	
11.9	1.82438169	2.6001031	9.6534209	38.6897659	-9.3358679	80.59	93.0	5.0	0.0	
11.91	1.75973819	2.669535	9.5085719	38.6897659	-9.3358679	80.59	93.0	5.0	0.0	
11.92	1.7908629	2.71502469	9.4977979	38.6897659	-9.3358679	80.59	93.0	5.0	0.0	
11.93	1.90817879	2.6491842	9.7252469	38.6897659	-9.3358679	80.59	93.0	5.0	0.0	
11.94	2.1511903	2.6515784	10.131064	38.6897659	-9.3358679	80.59	93.0	5.0	0.0	
11.95	2.3894134	2.7353754	10.478224	38.6897659	-9.3358679	80.59	93.0	5.0	0.0	
11.96	2.6455929	2.870648	10.6841249	38.6897659	-9.3358679	80.59	93.0	5.0	0.0	
11.97	2.944868	3.0382419	10.7822879	38.6897659	-9.3358679	80.59	93.0	5.0	0.0	
11.98	3.30878659	3.1759086	10.9391079	38.6897659	-9.3358679	80.59	93.0	5.0	0.0	
11.99	3.691859	3.23815769	11.071986	38.6897659	-9.3358679	80.59	93.0	5.0	0.0	
12.0	4.050989	3.3291376	10.964247	38.6897659	-9.3358679	80.59	93.0	5.0	0.0	
12.01	4.262876	3.5039139	10.928333	38.6897659	-9.3358679	80.59	93.0	5.0	0.0	
12.02	4.298789	3.5087025	11.244369	38.6897659	-9.3358679	80.59	93.0	5.0	0.0	
12.03	4.37540339	3.3985693	11.4538609	38.6897659	-9.3358679	80.59	93.0	5.0	0.0	
12.04	4.4184995	3.3411086	11.496957	38.6897659	-9.3358679	80.59	93.0	5.0	0.0	
12.05	4.471172	3.3411086	11.3018289	38.6897659	-9.3358679	80.59	93.0	5.0	0.0	
12.06	4.5310269	3.3746274	11.080365	38.6897659	-9.3358679	80.59	93.0	5.0	0.0	
12.07	4.5789109	3.39018959	10.714052	38.6897659	-9.3358679	80.59	93.0	5.0	0.0	
12.08	4.6064439	3.40335769	10.2974615	38.6897659	-9.3358679	80.59	67.0	5.0	0.0	
12.09	4.653131	3.3530796	10.085575	38.6897659	-9.3358679	80.59	67.0	5.0	0.0	
12.1	4.6232033	3.19027379	9.8677025	38.6897659	-9.3358679	80.59	67.0	5.0	0.0	
12.11	4.620809	3.0382419	9.874885	38.6897659	-9.3358679	80.59	67.0	5.0	0.0	
12.12	4.6842556	2.8179753	10.2615479	38.6897659	-9.3358679	80.59	67.0	5.0	0.0	
12.13	4.7381253	2.23618439	10.3680909	38.6897659	-9.3358679	80.59	67.0	5.0	0.0	
12.14	4.735731	2.1823149	10.13705	38.6897659	-9.3358679	80.59	67.0	5.0	0.0	
12.15	4.7213659	2.1547816	9.55047	38.6897659	-9.3358679	80.59	67.0	5.0	0.0	
12.16	4.61602069	2.1296425	8.7615809	38.6897659	-9.3358679	80.59	67.0	5.0	0.0	
12.17	4.61602069	2.1296425	8.7615809	38.6897659	-9.3358679	80.59	67.0	5.0	0.0	
12.18	4.286818	2.00873519	7.135918	38.6897659	-9.3358679	80.59	67.0	5.0	0.0	
12.19	4.259285	1.9440918	7.135918	38.6897659	-9.3358679	80.59	67.0	5.0	0.0	
12.2	4.45560929	2.03985979	6.9360023	38.6897659	-9.3358679	80.59	67.0	5.0	0.0	
12.21	4.88417149	2.2732944	7.0162079	38.6897659	-9.3358679	80.59	67.0	5.0	0.0	
12.22	5.33907	2.40617279	7.515399	38.6897659	-9.3358679	80.59	67.0	5.0	0.0	
12.23	5.78558829	2.3367409	8.0756429	38.6897659	-9.3358679	80.59	67.0	5.0	0.0	
12.24	6.105214	2.1487959	8.6861639	38.6897659	-9.3358679	80.59	67.0	5.0	0.0	
12.25	6.265626	1.8770541	9.3828759	38.6897659	-9.3358679	80.59	67.0	5.0	0.0	
12.26	6.232107	1.5502456	9.8509429	38.6897659	-9.3358679	80.59	67.0	5.0	0.0	
12.27	6.1830259	1.4053963	10.17416	38.6897659	-9.3358679	80.59	67.0	5.0	0.0	
12.28	6.217742	1.4018049	10.212467	38.6897659	-9.3358679	80.59	67.0	5.0	0.0	
12.29	6.1399302	1.3204023	10.2986579	38.6897659	-9.3358679	80.59	67.0	5.0	0.0	
12.3	6.0070519	1.1037269	10.0329019	38.6897659	-9.3358679	80.59	67.0	5.0	0.0	
12.31	5.8191069	1.033098	9.200917	38.6897659	-9.3358679	80.59	67.0	5.0	0.0	
12.32	5.6108117	1.2473791	8.48146	38.6897659	-9.3358679	80.59	67.0	5.0	0.0	
12.33	5.544971	1.55742819	7.9822683	38.6897659	-9.3358679	80.59	67.0	5.0	0.0	
12.34	5.4312468	1.72741649	7.559692	38.6897659	-9.3358679	80.59	67.0	5.0	0.0	
12.35	5.234922	1.6639702	6.956353	38.6897659	-9.3358679	80.59	67.0	5.0	0.0	
12.36	4.981137	1.6903064	6.1135939	38.6897659	-9.3358679	80.59	67.0	5.0	0.0	
12.37	4.75488469	1.70467159	5.1092259	38.6897659	-9.3358679	80.59	67.0	5.0	0.0	
12.38	4.33589939	1.839944	4.3490669	38.6897659	-9.3358679	80.59	67.0	5.0	0.0	
12.39	4.134786	2.23857859	3.394978	38.6897659	-9.3358679	80.59	67.0	5.0	0.0	
12.4	3.9959226	2.529474	2.385822	38.6897659	-9.3358679	80.59	67.0	5.0	0.0	
12.41	3.645172	2.4744074	1.6759412	38.6897659	-9.3358679	80.59	67.0	5.0	0.0	
12.42	3.6619315	2.48637839	1.69270059	38.6897659	-9.3358679	80.59	67.0	5.0	0.0	
12.43	3.7301662	2.24815539	1.38743979	38.6897659	-9.3358679	80.59	67.0	5.0	0.0	
12.44	2.80480719	2.2828712	1.435324	38.6897659	-9.3358679	80.59	67.0	5.0	0.0	
12.45	1.8231846	2.1691468	0.86909519	38.6897659	-9.3358679	80.59	67.0	5.0	0.0	
12.46	0.72065469	1.72023389	0.451307029	38.6897659	-9.3358679	80.59	67.0	5.0	0.0	
12.47	0.626083729	1.21146609	1.0737995	38.6897659	-9.3358679	80.59	67.0	5.0	0.0	
12.48	0.55186349	0.7278373	2.005144	38.6897659	-9.3358679	80.59	67.0	5.0	0.0	
12.49	0.30166942	0.29807812	2.1691468	38.6897659	-9.3358679	80.59	67.0	5.0	0.0	
12.5	0.391451979	0.173579619	2.3870192	38.6897659	-9.3358679	80.59	67.0	5.0	0.0	
12.51	0.630872129	0.47165772	2.5510218	38.6897659	-9.3358679	80.59	67.0	5.0	0.0	
12.52	0.70150109	0.4225766	2.574964	38.6897659	-9.3358679	80.59	67.0	5.0	0.0	
12.53	1.0522517	0.25617957	2.4959552	38.6897659	-9.3358679	80.59	67.0	5.0	0.0	
12.54	1.5765818	-0.357933159	1.6472107	38.6897659	-9.3358679	80.59	67.0	5.0	0.0	
12.55	1.8291701	-0.949300939	1.2820949	38.6897659	-9.3358679	80.59	67.0	5.0	0.0	
12.56	1.9440918	-1.69509479	1.5598224	38.6897659	-9.3358679	80.59	67.0	5.0	0.0	
12.57	2.14041639	-2.63601609	1.62087449	38.6897659	-9.3358679	80.59	67.0	5.0	0.0	
12.58	2.56299279	-3.667917	1.9536686	38.6897659	-9.3358679	80.59	67.0	5.0	0.0	
12.59	3.06936669	-4.674679	3.9372647	38.6897659	-9.3358679	80.59	67.0	5.0	0.0	
12.6	4.5825019	-6.005855	7.0257849	38.6897659	-9.3358679	80.59	67.0	5.0	0.0	
12.61	5.1032409	-6.9850836	10.8241859	38.6897659	-9.3358679	80.59	67.0	5.0	0.0	
12.62	5.816713	-7.751228	12.799402	38.6897659	-9.3358679	80.59	67.0	5.0	0.0	
12.63	6.709749	-7.67700769	12.338518	38.6897659	-9.3358679	80.59	67.0	5.0	0.0	
12.64	7.575254	-7.02219339	11.09473	38.6897659	-9.3358679	80.59	67.0	5.0	0.0	
12.65	8.74961	-6.253655	10.8098209	38.6897659	-9.3358679	80.59	67.0	5.0	0.0	
12.66	9.9215719	-5.5365915	11.547235	38.6897659	-9.3358679	80.59	67.0	5.0	0.0	
12.67	10.5823719	-5.1786585	13.090298	38.6897659	-9.3358679	80.59	67.0	5.0	0.0	
12.68	10.3202069	-5.519832	14.67885	38.6897659	-9.3358679	80.59	67.0	5.0	0.0	
12.69	9.4870239	-6.5852519	15.859192	38.6897659	-9.3358679	80.59	67.0	5.0	0.0	
12.7	8.423999	-7.9236107	16.5978029	38.6897659	-9.3358679	80.59	67.0	5.0	0.0	
12.71	7.4591355	-9.126697	16.4601359	38.6897659	-9.3358679	80.59	67.0	5.0	0.0	
12.72	6.73848059	-9.706094	15.8903169	38.6897659	-9.3358679	80.59	67.0	5.0	0.0	
12.73	6.4834979	-9.6737719	14.9817169	38.6897659	-9.3358679	80.59	67.0	5.0	0.0	
12.74	6.3482256	-9.546879	14.1629	38.6897659	-9.3358679	80.59	67.0	5.0	0.0	
12.75	6.3111157	-9.5708219	13.1298019	38.6897659	-9.3358679	80.59	67.0	5.0	0.0	
12.76	6.71334169	-9.387665	12.0895209	38.6897659	-9.3358679	80.59	67.0	5.0	0.0	
12.77	7.24844549	-9.303867	11.334151	38.6897659	-9.3358679	80.59	67.0	5.0	0.0	
12.78	7.51659629	-9.36611749	11.004948	38.6897659	-9.3358679	80.59	67.0	5.0	0.0	
12.79	7.6051817	-9.4068179	10.849325	38.6897659	-9.3358679	80.59	67.0	5.0	0.0	
12.8	7.6243353	-9.360131	10.8002439	38.6897659	-9.3358679	80.59	67.0	5.0	0.0	
12.81	7.37653539	-9.3373869	11.127052	38.6897659	-9.3358679	80.59	67.0	5.0	0.0	
12.82	7.023391	-9.3086559	11.567586	38.6897659	-9.3358679	80.59	67.0	5.0	0.0	
12.83	6.575675	-9.176975	11.966219	38.6897659	-9.3358679	80.59	67.0	5.0	0.0	
12.84	6.1135939	-8.93635749	12.032061	38.6897659	-9.3358679	80.59	67.0	5.0	0.0	
12.85	5.60841749	-8.603564	11.7196169	38.6897659	-9.3358679	80.59	67.0	5.0	0.0	
12.86	5.173869	-8.2264769	11.123461	38.6897659	-9.3358679	80.59	67.0	5.0	0.0	
12.87	4.8374844	-7.7584105	10.4710409	38.6897659	-9.3358679	80.59	67.0	5.0	0.0	
12.88	4.46758029	-7.2699933	9.8162269	38.6897659	-9.3358679	80.59	67.0	5.0	0.0	
12.89	4.06296	-6.72291849	9.4403369	38.6897659	-9.3358679	80.59	67.0	5.0	0.0	
12.9	3.61404749	-6.1914059	9.31943	38.6897659	-9.3358679	80.59	67.0	5.0	0.0	
12.91	3.1459809	-5.731719	9.00818349	38.6897659	-9.3358679	80.59	67.0	5.0	0.0	
12.92	2.7186159	-5.4204726	8.488642	38.6897659	-9.3358679	80.59	67.0	5.0	0.0	
12.93	2.29603929	-5.305551	7.869741	38.6897659	-9.3358679	80.59	67.0	5.0	0.0	
12.94	1.9967642	-5.23013349	7.0676829	38.6897659	-9.3358679	80.59	67.0	5.0	0.0	
12.95	1.69509479	-5.129577	6.159084	38.6897659	-9.3358679	80.59	67.0	5.0	0.0	
12.96	1.4053963	-5.045779	5.329493	38.6897659	-9.3358679	80.59	67.0	5.0	0.0	
12.97	1.1336545	-5.0733129	4.608838	38.6897659	-9.3358679	80.59	67.0	5.0	0.0	
12.98	0.934935749	-5.1439424	3.79241539	38.6897659	-9.3358679	80.59	67.0	5.0	0.0	
12.99	0.945709649	-5.06373639	3.0478187	38.6897659	-9.3358679	80.59	67.0	5.0	0.0	
13.0	1.05344879	-4.853047	2.7018566	38.6897659	-9.3358679	80.59	67.0	5.0	0.0	
13.01	1.22463419	-4.793192	2.3989902	38.6897659	-9.3358679	80.59	67.0	5.0	0.0	
13.02	1.5251064	-4.88058	2.1715409	38.6897659	-9.3358679	80.59	67.0	5.0	0.0	
13.03	1.7896658	-5.2528787	2.4121583	38.6897659	-9.3358679	80.59	67.0	5.0	0.0	
13.04	2.0015526	-5.8322754	2.77009129	38.6897659	-9.3358679	80.59	67.0	5.0	0.0	
13.05	2.2912509	-6.3003416	3.2884359	38.6897659	-9.3358679	80.59	67.0	5.0	0.0	
13.06	2.89937829	-6.4679359	4.32871679	38.6897659	-9.3358679	80.59	67.0	5.0	0.0	
13.07	3.75889659	-6.35660549	7.3310456	38.6897659	-9.3358679	80.59	67.0	5.0	0.0	
13.08	5.5066639	-6.0585275	8.7747489	38.6897659	-9.3358679	80.59	67.0	5.0	0.0	
13.09	6.117185	-5.8562174	10.157401	38.6897659	-9.3358679	80.59	67.0	5.0	0.0	
13.1	6.421249	-5.73052169	11.025299	38.6897659	-9.3358679	80.59	67.0	5.0	0.0	
13.11	6.507439	-5.6395419	11.338939	38.6897659	-9.3358679	80.59	67.0	5.0	0.0	
13.12	6.47392129	-5.6036289	11.1701479	38.6897659	-9.3358679	80.59	67.0	5.0	0.0	
13.13	6.20457359	-5.63235949	10.0867719	38.6897659	-9.3358679	80.59	42.0	5.0	0.0	
13.14	5.8131219	-5.5916579	8.7460179	38.6897659	-9.3358679	80.59	42.0	5.0	0.0	
13.15	5.2636523	-5.61559	7.76798729	38.6897659	-9.3358679	80.59	42.0	5.0	0.0	
13.16	4.6471453	-5.74967529	7.19697049	38.6897659	-9.3358679	80.59	42.0	5.0	0.0	
13.17	4.0210619	-5.87417359	6.69897649	38.6897659	-9.3358679	80.59	42.0	5.0	0.0	
13.18	4.0210619	-5.87417359	6.69897649	38.6897659	-9.3358679	80.59	42.0	5.0	0.0	
13.19	3.0933087	-5.9878983	5.79995349	38.6897659	-9.3358679	80.59	42.0	5.0	0.0	
13.2	2.8574798	-5.96275949	5.60841749	38.6897659	-9.3358679	80.59	42.0	5.0	0.0	
13.21	2.8538885	-5.8645969	5.68862339	38.6897659	-9.3358679	80.59	42.0	5.0	0.0	
13.22	3.0813377	-5.72453639	6.07648369	38.6897659	-9.3358679	80.59	42.0	5.0	0.0	
13.23	3.4476504	-5.5509567	6.5134259	38.6897659	-9.3358679	80.59	42.0	5.0	0.0	
13.24	3.918111	-5.35822339	6.9072719	38.6897659	-9.3358679	80.59	42.0	5.0	0.0	
13.25	4.41610529	-5.2636523	7.36576179	38.6897659	-9.3358679	80.59	42.0	5.0	0.0	
13.26	4.806359	-5.24210449	7.8865004	38.6897659	-9.3358679	80.59	42.0	5.0	0.0	
13.27	5.12598559	-5.13436559	8.237251	38.6897659	-9.3358679	80.59	42.0	5.0	0.0	
13.28	5.34385819	-4.95599749	8.578424	38.6897659	-9.3358679	80.59	42.0	5.0	0.0	
13.29	5.45638559	-4.760869	9.2835169	38.6897659	-9.3358679	80.59	42.0	5.0	0.0	
13.3	5.505467	-4.76685569	9.7958765	38.6897659	-9.3358679	80.59	42.0	5.0	0.0	
13.31	5.36779	-4.93085859	9.6055369	38.6897659	-9.3358679	80.59	42.0	5.0	0.0	
13.32	5.171476	-4.935647	9.2092969	38.6897659	-9.3358679	80.59	42.0	5.0	0.0	
13.33	5.149928	-4.8710029	8.8393929	38.6897659	-9.3358679	80.59	42.0	5.0	0.0	
13.34	5.2337249	-4.85783529	8.281544	38.6897659	-9.3358679	80.59	42.0	5.0	0.0	
13.35	5.363012	-4.64116	7.6410947	38.6897659	-9.3358679	80.59	42.0	5.0	0.0	
13.36	5.52701469	-4.3406878	7.369353	38.6897659	-9.3358679	80.59	42.0	5.0	0.0	
13.37	5.5617304	-4.0880995	7.145495	38.6897659	-9.3358679	80.59	42.0	5.0	0.0	
13.38	5.60841749	-3.8019924	6.71214439	38.6897659	-9.3358679	80.59	42.0	5.0	0.0	
13.39	5.62158539	-3.52905319	6.1782374	38.6897659	-9.3358679	80.59	42.0	5.0	0.0	
13.4	5.68862339	-3.2800562	5.547365	38.6897659	-9.3358679	80.59	42.0	5.0	0.0	
13.41	5.62038849	-3.03105929	4.987122	38.6897659	-9.3358679	80.59	42.0	5.0	0.0	
13.42	5.674258	-2.67552039	4.38857169	38.6897659	-9.3358679	80.59	42.0	5.0	0.0	
13.43	5.8203044	-2.2074539	3.6188359	38.6897659	-9.3358679	80.59	42.0	5.0	0.0	
13.44	5.8490349	-1.7609353	2.8119898	38.6897659	-9.3358679	80.59	42.0	5.0	0.0	
13.45	5.78558829	-1.42814139	2.3558946	38.6897659	-9.3358679	80.59	42.0	5.0	0.0	
13.46	5.79755929	-1.1516109	2.4349031	38.6897659	-9.3358679	80.59	42.0	5.0	0.0	
13.47	6.0860605	-0.79607207	2.7569232	38.6897659	-9.3358679	80.59	42.0	5.0	0.0	
13.48	6.43681139	-0.41419689	2.85269139	38.6897659	-9.3358679	80.59	42.0	5.0	0.0	
13.49	6.8103065	-0.1328782	2.9317	38.6897659	-9.3358679	80.59	42.0	5.0	0.0	
13.5	7.2185183	-0.098162269	3.42131419	38.6897659	-9.3358679	80.59	42.0	5.0	0.0	
13.51	7.57884549	-0.1448492	4.22217459	38.6897659	-9.3358679	80.59	42.0	5.0	0.0	
13.52	8.050503	-0.313640419	4.959589	38.6897659	-9.3358679	80.59	42.0	5.0	0.0	
13.53	8.4670939	-0.447715729	5.52701469	38.6897659	-9.3358679	80.59	42.0	5.0	0.0	
13.54	8.8393929	-0.40701428	5.7400985	38.6897659	-9.3358679	80.59	42.0	5.0	0.0	
13.55	9.860519	-0.120907189	5.13436559	38.6897659	-9.3358679	80.59	42.0	5.0	0.0	
13.56	10.6817309	-0.061052144	4.9548006	38.6897659	-9.3358679	80.59	42.0	5.0	0.0	
13.57	11.603498	-0.1089361759	5.2097829	38.6897659	-9.3358679	80.59	42.0	5.0	0.0	
13.58	12.6964509	0.0011971008	6.28477949	38.6897659	-9.3358679	80.59	42.0	5.0	0.0	
13.59	13.798982	0.1376666	7.99304249	38.6897659	-9.3358679	80.59	42.0	5.0	0.0	
13.6	14.634558	0.045489833	9.8545339	38.6897659	-9.3358679	80.59	42.0	5.0	0.0	
13.61	15.0020679	-0.27413609	11.836933	38.6897659	-9.3358679	80.59	42.0	5.0	0.0	
13.62	14.486117	-1.14083709	14.0563579	38.6897659	-9.3358679	80.59	42.0	5.0	0.0	
13.63	13.927072	-2.1631613	15.4461929	38.6897659	-9.3358679	80.59	42.0	5.0	0.0	
13.64	13.4218949	-2.63242479	15.3959139	38.6897659	-9.3358679	80.59	42.0	5.0	0.0	
13.65	13.798982	-2.6024973	13.8193319	38.6897659	-9.3358679	80.59	42.0	5.0	0.0	
13.66	14.12579	-2.2026656	12.059594	38.6897659	-9.3358679	80.59	42.0	5.0	0.0	
13.67	13.408727	-1.69389769	9.876082	38.6897659	-9.3358679	80.59	42.0	5.0	0.0	
13.68	12.3397159	-1.2210429	7.63870049	38.6897659	-9.3358679	80.59	42.0	5.0	0.0	
13.69	11.354502	-0.84156189	6.136339	38.6897659	-9.3358679	80.59	42.0	5.0	0.0	
13.7	10.143036	-0.64763159	5.09964939	38.6897659	-9.3358679	80.59	42.0	5.0	0.0	
13.71	8.631097	-0.6392518	4.3059716	38.6897659	-9.3358679	80.59	42.0	5.0	0.0	
13.72	7.038953	-0.906205359	3.8295257	38.6897659	-9.3358679	80.59	42.0	5.0	0.0	
13.73	5.4851159	-1.30124869	3.48356339	38.6897659	-9.3358679	80.59	42.0	5.0	0.0	
13.74	4.10126729	-1.685518	3.45603009	38.6897659	-9.3358679	80.59	42.0	5.0	0.0	
13.75	3.0813377	-1.9764135	3.52905319	38.6897659	-9.3358679	80.59	42.0	5.0	0.0	
13.76	2.4049757	-2.0015526	3.4775779	38.6897659	-9.3358679	80.59	42.0	5.0	0.0	
13.77	1.9596541	-1.7908629	3.3387144	38.6897659	-9.3358679	80.59	42.0	5.0	0.0	
13.78	1.68312379	-1.532289	3.1399956	38.6897659	-9.3358679	80.59	42.0	5.0	0.0	
13.79	1.55144269	-1.3575124	2.9520507	38.6897659	-9.3358679	80.59	42.0	5.0	0.0	
13.8	1.51193829	-1.2844892	2.95085359	38.6897659	-9.3358679	80.59	42.0	5.0	0.0	
13.81	1.555034	-1.2270284	3.1794999	38.6897659	-9.3358679	80.59	42.0	5.0	0.0	
13.82	1.58376439	-1.19710089	3.3650506	38.6897659	-9.3358679	80.59	42.0	5.0	0.0	
13.83	1.60052379	-1.1935096	3.2920272	38.6897659	-9.3358679	80.59	42.0	5.0	0.0	
13.84	1.66037889	-1.16477919	3.17830279	38.6897659	-9.3358679	80.59	42.0	5.0	0.0	
13.85	1.7621324	-1.1228806	3.22738389	38.6897659	-9.3358679	80.59	42.0	5.0	0.0	
13.86	1.8674773	-1.14682259	3.29681559	38.6897659	-9.3358679	80.59	42.0	5.0	0.0	
13.87	2.1021092	-1.1492168	3.37582449	38.6897659	-9.3358679	80.59	42.0	5.0	0.0	
13.88	2.5270798	-1.0175357	3.537433	38.6897659	-9.3358679	80.59	42.0	5.0	0.0	
13.89	3.14957239	-0.8379706	3.8606503	38.6897659	-9.3358679	80.59	42.0	5.0	0.0	
13.9	3.7349546	-0.6739678	4.238934	38.6897659	-9.3358679	80.59	42.0	5.0	0.0	
13.91	4.3706149	-0.5722142	4.68066449	38.6897659	-9.3358679	80.59	42.0	5.0	0.0	
13.92	5.019444	-0.47165772	5.2576669	38.6897659	-9.3358679	80.59	42.0	5.0	0.0	
13.93	5.65510459	-0.348356339	5.87417359	38.6897659	-9.3358679	80.59	42.0	5.0	0.0	
13.94	6.2620344	-0.2765303	6.39850429	38.6897659	-9.3358679	80.59	42.0	5.0	0.0	
13.95	7.005434	-0.197521639	6.906075	38.6897659	-9.3358679	80.59	42.0	5.0	1.0	
13.96	8.262389	0.114921679	7.81826539	38.6897659	-9.3358679	80.59	42.0	5.0	0.0	
13.97	8.262389	0.114921679	7.81826539	38.6897659	-9.3358679	80.59	42.0	5.0	0.0	
13.98	8.588001	0.088585466	8.4527289	38.6897659	-9.3358679	80.59	42.0	5.0	0.0	
13.99	8.671799	-0.022744916	8.963891	38.6897659	-9.3358679	80.59	42.0	5.0	0.0	
14.0	8.4958249	-0.2801216	9.215282	38.6897659	-9.3358679	80.59	42.0	5.0	0.0	
14.01	8.139089	-0.67157359	9.1362729	38.6897659	-9.3358679	80.59	42.0	5.0	0.0	
14.02	7.59680179	-1.17914439	8.2157029	38.6897659	-9.3358679	80.59	42.0	5.0	0.0	
14.03	7.630321	-1.10851539	7.8074919	38.6897659	-9.3358679	80.59	42.0	5.0	0.0	
14.04	7.8613615	-0.88824879	7.2807674	38.6897659	-9.3358679	80.59	42.0	5.0	0.0	
14.05	8.244433	-0.60333884	6.813898	38.6897659	-9.3358679	80.59	42.0	5.0	0.0	
14.06	8.6622219	-0.45250413	6.49906059	38.6897659	-9.3358679	80.59	42.0	5.0	0.0	
14.07	9.094376	-0.39983168	6.313509	38.6897659	-9.3358679	80.59	42.0	5.0	0.0	
14.08	9.4523089	-0.36631286	6.302736	38.6897659	-9.3358679	80.59	109.0	5.0	0.0	
14.09	9.7216559	-0.29927522	6.5194109	38.6897659	-9.3358679	80.59	109.0	5.0	0.0	
14.1	9.7659479	-0.19512744	7.0162079	38.6897659	-9.3358679	80.59	109.0	5.0	0.0	
14.11	9.575609	-0.14125789	7.60278749	38.6897659	-9.3358679	80.59	109.0	5.0	0.0	
14.12	9.166202	-0.06943185	8.294712	38.6897659	-9.3358679	80.59	109.0	5.0	0.0	
14.13	8.6861639	-0.031124622	8.741229	38.6897659	-9.3358679	80.59	109.0	5.0	0.0	
14.14	8.3078789	-0.245405669	8.7376389	38.6897659	-9.3358679	80.59	109.0	5.0	0.0	
14.15	8.043321	-0.82839379	8.3366109	38.6897659	-9.3358679	80.59	109.0	5.0	0.0	
14.16	8.4647	-1.9273324	8.061277	38.6897659	-9.3358679	80.59	109.0	5.0	0.0	
14.17	8.4647	-1.9273324	8.061277	38.6897659	-9.3358679	80.59	109.0	5.0	0.0	
14.18	9.261969	-2.0422539	8.6287029	38.6897659	-9.3358679	80.59	109.0	5.0	0.0	
14.19	10.3692875	-1.80522809	9.733627	38.6897659	-9.3358679	80.59	109.0	5.0	0.0	
14.2	11.6633539	-1.54665429	11.020511	38.6897659	-9.3358679	80.59	109.0	5.0	0.0	
14.21	12.77546	-1.38504559	12.200851	38.6897659	-9.3358679	80.59	109.0	5.0	0.0	
14.22	13.517663	-1.14083709	13.0412169	38.6897659	-9.3358679	80.59	109.0	5.0	0.0	
14.23	13.887567	-0.71826049	13.3776019	38.6897659	-9.3358679	80.59	109.0	5.0	0.0	
14.24	13.78701	-0.36391866	13.220781	38.6897659	-9.3358679	80.59	109.0	5.0	0.0	
14.25	13.031639	-0.23104046	12.3660519	38.6897659	-9.3358679	80.59	109.0	5.0	0.0	
14.26	11.702858	-0.3878607	10.9486849	38.6897659	-9.3358679	80.59	109.0	5.0	0.0	
14.27	10.183737	-0.889445959	9.44752	38.6897659	-9.3358679	80.59	109.0	5.0	0.0	
14.28	8.684967	-1.46764559	7.9391727	38.6897659	-9.3358679	80.59	109.0	5.0	0.0	
14.29	7.369353	-2.0530279	6.50863739	38.6897659	-9.3358679	80.59	109.0	5.0	0.0	
14.3	6.317101	-2.70903919	5.153519	38.6897659	-9.3358679	80.59	109.0	5.0	0.0	
14.31	5.4396259	-3.31237819	3.9169139	38.6897659	-9.3358679	80.59	109.0	5.0	0.0	
14.32	4.6830587	-3.6894648	3.0083144	38.6897659	-9.3358679	80.59	109.0	5.0	0.0	
14.33	4.11323829	-3.93965889	2.28646249	38.6897659	-9.3358679	80.59	109.0	5.0	0.0	
14.34	3.809175	-3.9659949	1.53947169	38.6897659	-9.3358679	80.59	109.0	5.0	0.0	
14.35	3.703829	-3.7624879	0.72664019	38.6897659	-9.3358679	80.59	109.0	5.0	0.0	
14.36	3.8271315	-3.46800109	0.022744916	38.6897659	-9.3358679	80.59	109.0	5.0	0.0	
14.37	4.18267059	-3.1112652	-0.17597382	38.6897659	-9.3358679	80.59	109.0	5.0	0.0	
14.38	4.84586429	-2.7114334	0.207098449	38.6897659	-9.3358679	80.59	109.0	5.0	0.0	
14.39	5.60961439	-2.33554389	0.7062895	38.6897659	-9.3358679	80.59	109.0	5.0	0.0	
14.4	6.37935069	-1.98479319	1.423353	38.6897659	-9.3358679	80.59	109.0	5.0	0.0	
14.41	6.9431849	-1.7238252	2.4217349	38.6897659	-9.3358679	80.59	109.0	5.0	0.0	
14.42	7.4028716	-1.45328039	3.5434184	38.6897659	-9.3358679	80.59	109.0	5.0	0.0	
14.43	7.6482773	-1.18512989	4.6890439	38.6897659	-9.3358679	80.59	109.0	5.0	0.0	
14.44	7.6279269	-1.0378864	5.6790466	38.6897659	-9.3358679	80.59	109.0	5.0	0.0	
14.45	7.3442135	-1.0390835	6.43322	38.6897659	-9.3358679	80.59	109.0	5.0	0.0	
14.46	6.85220529	-1.1061212	6.9395939	38.6897659	-9.3358679	80.59	109.0	5.0	0.0	
14.47	6.2883706	-1.19710089	7.147889	38.6897659	-9.3358679	80.59	109.0	5.0	0.0	
14.48	5.71256539	-1.2485762	7.0916249	38.6897659	-9.3358679	80.59	109.0	5.0	0.0	
14.49	4.9045224	-1.1444284	6.1064115	38.6897659	-9.3358679	80.59	109.0	5.0	0.0	
14.5	4.7369279	-0.90979666	5.53898569	38.6897659	-9.3358679	80.59	109.0	5.0	0.0	
14.51	4.6339774	-0.6344634	4.9332529	38.6897659	-9.3358679	80.59	109.0	5.0	0.0	
14.52	4.6112323	-0.37588966	4.3382936	38.6897659	-9.3358679	80.59	109.0	5.0	0.0	
14.53	4.68665	-0.14963761	3.855862	38.6897659	-9.3358679	80.59	109.0	5.0	0.0	
14.54	4.7896004	0.064643439	3.5266589	38.6897659	-9.3358679	80.59	109.0	5.0	0.0	
14.55	4.9105077	0.27054479	3.37702159	38.6897659	-9.3358679	80.59	109.0	5.0	0.0	
14.56	5.0302176	0.42616789	3.2345665	38.6897659	-9.3358679	80.59	109.0	5.0	0.0	
14.57	5.044583	0.451307029	3.1028855	38.6897659	-9.3358679	80.59	109.0	5.0	0.0	
14.58	5.0146556	0.357933159	3.07654929	38.6897659	-9.3358679	80.59	109.0	5.0	0.0	
14.59	4.8877625	0.164002819	3.12563039	38.6897659	-9.3358679	80.59	109.0	5.0	0.0	
14.6	4.799177	-0.073023155	3.16154339	38.6897659	-9.3358679	80.59	109.0	5.0	0.0	
14.61	4.71657749	-0.357933159	3.36744479	38.6897659	-9.3358679	80.59	109.0	5.0	0.0	
14.62	4.8255134	-0.51235914	3.95761539	38.6897659	-9.3358679	80.59	109.0	5.0	0.0	
14.63	5.1547165	-0.65002579	4.5370119	38.6897659	-9.3358679	80.59	109.0	5.0	0.0	
14.64	5.69819	-0.7242459	4.9978959	38.6897659	-9.3358679	80.59	109.0	5.0	0.0	
14.65	6.43322	-0.8295909	5.434838	38.6897659	-9.3358679	80.59	109.0	5.0	0.0	
14.66	7.362169	-1.0127473	5.8717794	38.6897659	-9.3358679	80.59	109.0	5.0	0.0	
14.67	8.4599109	-1.25575879	6.453571	38.6897659	-9.3358679	80.59	109.0	5.0	0.0	
14.68	9.470264	-1.6304513	7.1885905	38.6897659	-9.3358679	80.59	109.0	5.0	0.0	
14.69	10.516531	-1.9488802	8.166622	38.6897659	-9.3358679	80.59	109.0	5.0	0.0	
14.7	11.493365	-2.054225	9.3697079	38.6897659	-9.3358679	80.59	109.0	5.0	0.0	
14.71	12.210428	-1.9656396	10.4961809	38.6897659	-9.3358679	80.59	109.0	5.0	0.0	
14.72	12.588713	-1.780089	11.316195	38.6897659	-9.3358679	80.59	109.0	5.0	0.0	
14.73	12.6282169	-1.5801731	11.765107	38.6897659	-9.3358679	80.59	109.0	5.0	0.0	
14.74	12.3373209	-1.5263035	11.9638259	38.6897659	-9.3358679	80.59	109.0	5.0	0.0	
14.75	11.6681419	-1.60172089	11.803414	38.6897659	-9.3358679	80.59	109.0	5.0	0.0	
14.76	10.747571	-1.74297879	11.456255	38.6897659	-9.3358679	80.59	109.0	5.0	0.0	
14.77	9.855731	-1.8339585	11.071986	38.6897659	-9.3358679	80.59	109.0	5.0	0.0	
14.78	9.075222	-1.83515559	10.595539	38.6897659	-9.3358679	80.59	109.0	5.0	0.0	
14.79	8.3952679	-1.68910929	9.898827	38.6897659	-9.3358679	80.59	109.0	5.0	0.0	
14.8	7.87093829	-1.38743979	9.2296479	38.6897659	-9.3358679	80.59	109.0	5.0	0.0	
14.81	7.4040689	-1.07499659	8.67539	38.6897659	-9.3358679	80.59	109.0	5.0	0.0	
14.82	6.9168487	-0.81642276	8.0397289	38.6897659	-9.3358679	80.59	109.0	5.0	0.0	
14.83	6.39491269	-0.8451532	6.96473259	38.6897659	-9.3358679	80.59	109.0	5.0	0.0	
14.84	6.1782374	-1.3036429	5.7460839	38.6897659	-9.3358679	80.59	109.0	5.0	0.0	
14.85	6.29675049	-2.0039468	4.9164934	38.6897659	-9.3358679	80.59	109.0	5.0	0.0	
14.86	6.7468605	-2.396596	4.662708	38.6897659	-9.3358679	80.59	109.0	5.0	0.0	
14.87	7.6410947	-2.505532	4.69383239	38.6897659	-9.3358679	80.59	109.0	5.0	0.0	
14.88	8.823831	-2.6276364	4.7500963	38.6897659	-9.3358679	80.59	109.0	5.0	0.0	
14.89	10.079589	-2.79523039	5.1822495	38.6897659	-9.3358679	80.59	109.0	5.0	0.0	
14.9	11.1665559	-2.85508559	6.3745623	38.6897659	-9.3358679	80.59	109.0	5.0	0.0	
14.91	11.9530519	-2.6982653	7.77517	38.6897659	-9.3358679	80.59	109.0	5.0	0.0	
14.92	12.2212029	-2.72699569	8.848969	38.6897659	-9.3358679	80.59	109.0	5.0	0.0	
14.93	11.66694449	-3.32794049	9.4235779	38.6897659	-9.3358679	80.59	109.0	5.0	0.0	
14.94	10.554838	-4.2197804	9.583989	38.6897659	-9.3358679	80.59	109.0	5.0	0.0	
14.95	9.556456	-5.1475334	9.610326	38.6897659	-9.3358679	80.59	109.0	5.0	0.0	
14.96	7.9906483	-5.768829	9.667787	38.6897659	-9.3358679	80.59	109.0	5.0	0.0	
14.97	7.429208	-5.483919	9.173384	38.6897659	-9.3358679	80.59	109.0	5.0	0.0	
14.98	7.279569	-5.019444	8.6729959	38.6897659	-9.3358679	80.59	109.0	5.0	0.0	
14.99	7.453149	-4.40054269	8.2169	38.6897659	-9.3358679	80.59	109.0	5.0	0.0	
15.0	7.73207429	-3.7744589	7.6315179	38.6897659	-9.3358679	80.59	109.0	5.0	0.0	
15.01	7.9391727	-3.1244333	6.847417	38.6897659	-9.3358679	80.59	109.0	5.0	0.0	
15.02	7.9391727	-2.528277	5.85861159	38.6897659	-9.3358679	80.59	109.0	5.0	0.0	
15.03	7.84460159	-2.01472069	4.8362875	38.6897659	-9.3358679	80.59	109.0	5.0	0.0	
15.04	7.56687449	-1.5969325	3.92409659	38.6897659	-9.3358679	80.59	109.0	5.0	0.0	
