# OpenSignals Text File Format
# {"98:D3:51:FD:8E:78": {"sensor": ["ACCBITREV"], "device name": "98:D3:51:FD:8E:78", "column": ["nSeq", "I1", "I2", "O1", "O2", "A5"], "sync interval": 2, "time": "19:51:58", "comments": "", "device connection": "BTH98:D3:51:FD:8E:78", "channels": [5], "date": "2020-07-29", "mode": 0, "digital IO": [0, 0, 1, 1], "firmware version": 0, "device": "bitalino_rev", "position": 0, "sampling rate": 100, "label": ["A5"], "resolution": [10], "special": [{}]}}
# EndOfHeader
0.0	1.0	1.0	0.0	0.0	-47.52453461538462	
0.010001593625498007	0.0	0.0	0.0	0.0	11.221070673076921	
0.020003187250996014	0.0	0.0	0.0	0.0	11.315365384615383	
0.03000478087649402	0.0	0.0	0.0	0.0	11.315365384615383	
0.04000637450199203	0.0	0.0	0.0	0.0	11.315365384615383	
0.05000796812749003	0.0	0.0	0.0	0.0	11.12677596153846	
0.06000956175298804	0.0	0.0	0.0	0.0	11.315365384615383	
0.07001115537848605	0.0	0.0	0.0	0.0	11.315365384615383	
0.08001274900398406	0.0	0.0	0.0	0.0	11.315365384615383	
0.09001434262948206	0.0	0.0	0.0	0.0	11.315365384615383	
0.10001593625498006	0.0	0.0	0.0	0.0	11.315365384615383	
0.11001752988047808	0.0	0.0	0.0	0.0	11.315365384615383	
0.12001912350597609	0.0	0.0	0.0	0.0	11.315365384615383	
0.1300207171314741	0.0	0.0	0.0	0.0	11.12677596153846	
0.1400223107569721	0.0	0.0	0.0	0.0	11.221070673076921	
0.1500239043824701	0.0	0.0	0.0	0.0	11.315365384615383	
0.16002549800796811	0.0	0.0	0.0	0.0	11.315365384615383	
0.17002709163346613	0.0	0.0	0.0	0.0	11.12677596153846	
0.18002868525896412	0.0	0.0	0.0	0.0	11.315365384615383	
0.19003027888446214	0.0	0.0	0.0	0.0	11.315365384615383	
0.20003187250996013	0.0	0.0	0.0	0.0	11.315365384615383	
0.21003346613545815	0.0	0.0	0.0	0.0	11.221070673076921	
0.22003505976095616	0.0	0.0	0.0	0.0	11.409660096153845	
0.23003665338645415	0.0	0.0	0.0	0.0	11.315365384615383	
0.24003824701195217	0.0	0.0	0.0	0.0	11.315365384615383	
0.25003984063745016	0.0	0.0	0.0	0.0	11.12677596153846	
0.2600414342629482	0.0	0.0	0.0	0.0	11.221070673076921	
0.2700430278884462	0.0	0.0	0.0	0.0	11.315365384615383	
0.2800446215139442	0.0	0.0	0.0	0.0	11.315365384615383	
0.29004621513944223	0.0	0.0	0.0	0.0	11.221070673076921	
0.3000478087649402	0.0	0.0	0.0	0.0	11.315365384615383	
0.3100494023904382	0.0	0.0	0.0	0.0	11.315365384615383	
0.32005099601593623	0.0	0.0	0.0	0.0	11.315365384615383	
0.33005258964143425	0.0	0.0	0.0	0.0	11.221070673076921	
0.34005418326693226	0.0	0.0	0.0	0.0	11.409660096153845	
0.3500557768924302	0.0	0.0	0.0	0.0	11.315365384615383	
0.36005737051792824	0.0	0.0	0.0	0.0	11.315365384615383	
0.37005896414342626	0.0	0.0	0.0	0.0	11.12677596153846	
0.3800605577689243	0.0	0.0	0.0	0.0	11.315365384615383	
0.3900621513944223	0.0	0.0	0.0	0.0	11.315365384615383	
0.40006374501992026	0.0	0.0	0.0	0.0	11.409660096153845	
0.4100653386454183	0.0	0.0	0.0	0.0	11.315365384615383	
0.4200669322709163	0.0	0.0	0.0	0.0	11.315365384615383	
0.4300685258964143	0.0	0.0	0.0	0.0	11.221070673076921	
0.44007011952191233	0.0	0.0	0.0	0.0	11.221070673076921	
0.45007171314741035	0.0	0.0	0.0	0.0	11.12677596153846	
0.4600733067729083	0.0	0.0	0.0	0.0	11.221070673076921	
0.4700749003984063	0.0	0.0	0.0	0.0	11.221070673076921	
0.48007649402390434	0.0	0.0	0.0	0.0	11.315365384615383	
0.49007808764940236	0.0	0.0	0.0	0.0	11.12677596153846	
0.5000796812749003	0.0	0.0	0.0	0.0	11.12677596153846	
0.5100812749003983	0.0	0.0	0.0	0.0	11.221070673076921	
0.5200828685258964	0.0	0.0	0.0	0.0	11.221070673076921	
0.5300844621513944	0.0	0.0	0.0	0.0	11.221070673076921	
0.5400860557768924	0.0	0.0	0.0	0.0	11.409660096153845	
0.5500876494023904	0.0	0.0	0.0	0.0	11.409660096153845	
0.5600892430278884	0.0	0.0	0.0	0.0	11.503954807692306	
0.5700908366533864	0.0	0.0	0.0	0.0	11.315365384615383	
0.5800924302788845	0.0	0.0	0.0	0.0	11.315365384615383	
0.5900940239043824	0.0	0.0	0.0	0.0	11.315365384615383	
0.6000956175298804	0.0	0.0	0.0	0.0	11.315365384615383	
0.6100972111553784	0.0	0.0	0.0	0.0	11.12677596153846	
0.6200988047808764	0.0	0.0	0.0	0.0	11.315365384615383	
0.6301003984063744	0.0	0.0	0.0	0.0	11.315365384615383	
0.6401019920318725	0.0	0.0	0.0	0.0	11.315365384615383	
0.6501035856573705	0.0	0.0	0.0	0.0	11.12677596153846	
0.6601051792828685	0.0	0.0	0.0	0.0	11.221070673076921	
0.6701067729083665	0.0	0.0	0.0	0.0	11.221070673076921	
0.6801083665338645	0.0	0.0	0.0	0.0	11.221070673076921	
0.6901099601593625	0.0	0.0	0.0	0.0	11.221070673076921	
0.7001115537848605	0.0	0.0	0.0	0.0	11.409660096153845	
0.7101131474103585	0.0	0.0	0.0	0.0	11.409660096153845	
0.7201147410358565	0.0	0.0	0.0	0.0	11.315365384615383	
0.7301163346613545	0.0	0.0	0.0	0.0	11.221070673076921	
0.7401179282868525	0.0	0.0	0.0	0.0	11.315365384615383	
0.7501195219123505	0.0	0.0	0.0	0.0	11.315365384615383	
0.7601211155378486	0.0	0.0	0.0	0.0	11.315365384615383	
0.7701227091633466	0.0	0.0	0.0	0.0	11.221070673076921	
0.7801243027888446	0.0	0.0	0.0	0.0	11.315365384615383	
0.7901258964143426	0.0	0.0	0.0	0.0	11.315365384615383	
0.8001274900398405	0.0	0.0	0.0	0.0	11.315365384615383	
0.8101290836653385	0.0	0.0	0.0	0.0	11.12677596153846	
0.8201306772908366	0.0	0.0	0.0	0.0	11.221070673076921	
0.8301322709163346	0.0	0.0	0.0	0.0	11.221070673076921	
0.8401338645418326	0.0	0.0	0.0	0.0	11.315365384615383	
0.8501354581673306	0.0	0.0	0.0	0.0	11.221070673076921	
0.8601370517928286	0.0	0.0	0.0	0.0	11.315365384615383	
0.8701386454183266	0.0	0.0	0.0	0.0	11.315365384615383	
0.8801402390438247	0.0	0.0	0.0	0.0	11.315365384615383	
0.8901418326693227	0.0	0.0	0.0	0.0	11.12677596153846	
0.9001434262948207	0.0	0.0	0.0	0.0	11.315365384615383	
0.9101450199203186	0.0	0.0	0.0	0.0	11.315365384615383	
0.9201466135458166	0.0	0.0	0.0	0.0	11.409660096153845	
0.9301482071713146	0.0	0.0	0.0	0.0	11.315365384615383	
0.9401498007968127	0.0	0.0	0.0	0.0	11.409660096153845	
0.9501513944223107	0.0	0.0	0.0	0.0	11.315365384615383	
0.9601529880478087	0.0	0.0	0.0	0.0	11.221070673076921	
0.9701545816733067	0.0	0.0	0.0	0.0	11.12677596153846	
0.9801561752988047	0.0	0.0	0.0	0.0	11.221070673076921	
0.9901577689243027	0.0	0.0	0.0	0.0	11.315365384615383	
1.0001593625498006	0.0	0.0	0.0	0.0	11.315365384615383	
1.0101609561752987	0.0	0.0	0.0	0.0	11.221070673076921	
1.0201625498007967	0.0	0.0	0.0	0.0	11.221070673076921	
1.0301641434262947	0.0	0.0	0.0	0.0	11.221070673076921	
1.0401657370517927	0.0	0.0	0.0	0.0	11.12677596153846	
1.0501673306772907	0.0	0.0	0.0	0.0	11.12677596153846	
1.0601689243027888	0.0	0.0	0.0	0.0	11.315365384615383	
1.0701705179282868	0.0	0.0	0.0	0.0	11.409660096153845	
1.0801721115537848	0.0	0.0	0.0	0.0	11.409660096153845	
1.0901737051792828	0.0	0.0	0.0	0.0	11.315365384615383	
1.1001752988047808	0.0	0.0	0.0	0.0	11.315365384615383	
1.1101768924302788	0.0	0.0	0.0	0.0	11.315365384615383	
1.1201784860557769	0.0	0.0	0.0	0.0	11.315365384615383	
1.1301800796812749	0.0	0.0	0.0	0.0	11.221070673076921	
1.140181673306773	0.0	0.0	0.0	0.0	11.221070673076921	
1.150183266932271	0.0	0.0	0.0	0.0	11.409660096153845	
1.160184860557769	0.0	0.0	0.0	0.0	11.409660096153845	
1.170186454183267	0.0	0.0	0.0	0.0	11.221070673076921	
1.1801880478087647	0.0	0.0	0.0	0.0	11.315365384615383	
1.1901896414342628	0.0	0.0	0.0	0.0	11.221070673076921	
1.2001912350597608	0.0	0.0	0.0	0.0	11.221070673076921	
1.2101928286852588	0.0	0.0	0.0	0.0	11.12677596153846	
1.2201944223107568	0.0	0.0	0.0	0.0	11.315365384615383	
1.2301960159362548	0.0	0.0	0.0	0.0	11.315365384615383	
1.2401976095617528	0.0	0.0	0.0	0.0	11.409660096153845	
1.2501992031872509	0.0	0.0	0.0	0.0	11.221070673076921	
1.2602007968127489	0.0	0.0	0.0	0.0	11.315365384615383	
1.270202390438247	0.0	0.0	0.0	0.0	11.315365384615383	
1.280203984063745	0.0	0.0	0.0	0.0	11.315365384615383	
1.290205577689243	0.0	0.0	0.0	0.0	11.221070673076921	
1.300207171314741	0.0	0.0	0.0	0.0	11.409660096153845	
1.310208764940239	0.0	0.0	0.0	0.0	11.315365384615383	
1.320210358565737	0.0	0.0	0.0	0.0	11.315365384615383	
1.330211952191235	0.0	0.0	0.0	0.0	11.12677596153846	
1.340213545816733	0.0	0.0	0.0	0.0	11.315365384615383	
1.350215139442231	0.0	0.0	0.0	0.0	11.221070673076921	
1.360216733067729	0.0	0.0	0.0	0.0	11.221070673076921	
1.370218326693227	0.0	0.0	0.0	0.0	11.221070673076921	
1.380219920318725	0.0	0.0	0.0	0.0	11.315365384615383	
1.3902215139442229	0.0	0.0	0.0	0.0	11.315365384615383	
1.400223107569721	0.0	0.0	0.0	0.0	11.315365384615383	
1.410224701195219	0.0	0.0	0.0	0.0	11.12677596153846	
1.420226294820717	0.0	0.0	0.0	0.0	11.315365384615383	
1.430227888446215	0.0	0.0	0.0	0.0	11.315365384615383	
1.440229482071713	0.0	0.0	0.0	0.0	11.409660096153845	
1.450231075697211	0.0	0.0	0.0	0.0	11.221070673076921	
1.460232669322709	0.0	0.0	0.0	0.0	11.409660096153845	
1.470234262948207	0.0	0.0	0.0	0.0	11.221070673076921	
1.480235856573705	0.0	0.0	0.0	0.0	11.315365384615383	
1.490237450199203	0.0	0.0	0.0	0.0	11.221070673076921	
1.500239043824701	0.0	0.0	0.0	0.0	11.315365384615383	
1.510240637450199	0.0	0.0	0.0	0.0	11.315365384615383	
1.5202422310756971	0.0	0.0	0.0	0.0	11.221070673076921	
1.5302438247011951	0.0	0.0	0.0	0.0	11.12677596153846	
1.5402454183266931	0.0	0.0	0.0	0.0	11.315365384615383	
1.5502470119521912	0.0	0.0	0.0	0.0	11.315365384615383	
1.5602486055776892	0.0	0.0	0.0	0.0	11.315365384615383	
1.5702501992031872	0.0	0.0	0.0	0.0	11.221070673076921	
1.5802517928286852	0.0	0.0	0.0	0.0	11.315365384615383	
1.5902533864541832	0.0	0.0	0.0	0.0	11.315365384615383	
1.600254980079681	0.0	0.0	0.0	0.0	11.315365384615383	
1.610256573705179	0.0	0.0	0.0	0.0	11.221070673076921	
1.620258167330677	0.0	0.0	0.0	0.0	11.409660096153845	
1.630259760956175	0.0	0.0	0.0	0.0	11.315365384615383	
1.640261354581673	0.0	0.0	0.0	0.0	11.315365384615383	
1.6502629482071711	0.0	0.0	0.0	0.0	11.12677596153846	
1.6602645418326691	0.0	0.0	0.0	0.0	11.221070673076921	
1.6702661354581672	0.0	0.0	0.0	0.0	11.315365384615383	
1.6802677290836652	0.0	0.0	0.0	0.0	11.315365384615383	
1.6902693227091632	0.0	0.0	0.0	0.0	11.12677596153846	
1.7002709163346612	0.0	0.0	0.0	0.0	11.315365384615383	
1.7102725099601592	0.0	0.0	0.0	0.0	11.315365384615383	
1.7202741035856572	0.0	0.0	0.0	0.0	11.315365384615383	
1.7302756972111553	0.0	0.0	0.0	0.0	11.221070673076921	
1.7402772908366533	0.0	0.0	0.0	0.0	11.315365384615383	
1.7502788844621513	0.0	0.0	0.0	0.0	11.315365384615383	
1.7602804780876493	0.0	0.0	0.0	0.0	11.315365384615383	
1.7702820717131473	0.0	0.0	0.0	0.0	11.221070673076921	
1.7802836653386453	0.0	0.0	0.0	0.0	11.315365384615383	
1.7902852589641434	0.0	0.0	0.0	0.0	11.409660096153845	
1.8002868525896414	0.0	0.0	0.0	0.0	11.315365384615383	
1.8102884462151394	0.0	0.0	0.0	0.0	11.12677596153846	
1.8202900398406372	0.0	0.0	0.0	0.0	11.315365384615383	
1.8302916334661352	0.0	0.0	0.0	0.0	11.315365384615383	
1.8402932270916332	0.0	0.0	0.0	0.0	11.315365384615383	
1.8502948207171313	0.0	0.0	0.0	0.0	11.12677596153846	
1.8602964143426293	0.0	0.0	0.0	0.0	11.315365384615383	
1.8702980079681273	0.0	0.0	0.0	0.0	11.221070673076921	
1.8802996015936253	0.0	0.0	0.0	0.0	11.315365384615383	
1.8903011952191233	0.0	0.0	0.0	0.0	11.221070673076921	
1.9003027888446213	0.0	0.0	0.0	0.0	11.315365384615383	
1.9103043824701194	0.0	0.0	0.0	0.0	11.315365384615383	
1.9203059760956174	0.0	0.0	0.0	0.0	11.315365384615383	
1.9303075697211154	0.0	0.0	0.0	0.0	11.221070673076921	
1.9403091633466134	0.0	0.0	0.0	0.0	11.315365384615383	
1.9503107569721114	0.0	0.0	0.0	0.0	11.315365384615383	
1.9603123505976094	0.0	0.0	0.0	0.0	11.315365384615383	
1.9703139442231075	0.0	0.0	0.0	0.0	11.221070673076921	
1.9803155378486055	0.0	0.0	0.0	0.0	11.315365384615383	
1.9903171314741035	0.0	0.0	0.0	0.0	11.315365384615383	
2.0003187250996013	0.0	0.0	0.0	0.0	11.315365384615383	
2.0103203187250993	0.0	0.0	0.0	0.0	11.12677596153846	
2.0203219123505973	0.0	0.0	0.0	0.0	11.315365384615383	
2.0303235059760953	0.0	0.0	0.0	0.0	11.315365384615383	
2.0403250996015934	0.0	0.0	0.0	0.0	11.315365384615383	
2.0503266932270914	0.0	0.0	0.0	0.0	11.221070673076921	
2.0603282868525894	0.0	0.0	0.0	0.0	11.315365384615383	
2.0703298804780874	0.0	0.0	0.0	0.0	11.315365384615383	
2.0803314741035854	0.0	0.0	0.0	0.0	11.315365384615383	
2.0903330677290834	0.0	0.0	0.0	0.0	11.221070673076921	
2.1003346613545815	0.0	0.0	0.0	0.0	11.315365384615383	
2.1103362549800795	0.0	0.0	0.0	0.0	11.409660096153845	
2.1203378486055775	0.0	0.0	0.0	0.0	11.409660096153845	
2.1303394422310755	0.0	0.0	0.0	0.0	11.221070673076921	
2.1403410358565735	0.0	0.0	0.0	0.0	11.409660096153845	
2.1503426294820716	0.0	0.0	0.0	0.0	11.315365384615383	
2.1603442231075696	0.0	0.0	0.0	0.0	11.315365384615383	
2.1703458167330676	0.0	0.0	0.0	0.0	11.221070673076921	
2.1803474103585656	0.0	0.0	0.0	0.0	11.221070673076921	
2.1903490039840636	0.0	0.0	0.0	0.0	10.938186538461538	
2.2003505976095616	0.0	0.0	0.0	0.0	10.938186538461538	
2.2103521912350597	0.0	0.0	0.0	0.0	12.069723076923077	
2.2203537848605577	0.0	0.0	0.0	0.0	12.446901923076922	
2.2303553784860557	0.0	0.0	0.0	0.0	11.409660096153845	
2.2403569721115537	0.0	0.0	0.0	0.0	12.069723076923077	
2.2503585657370517	0.0	0.0	0.0	0.0	10.749597115384615	
2.2603601593625497	0.0	0.0	0.0	0.0	8.769408173076922	
2.2703617529880478	0.0	0.0	0.0	0.0	10.372418269230767	
2.280363346613546	0.0	0.0	0.0	0.0	9.900944711538461	
2.290364940239044	0.0	0.0	0.0	0.0	15.652922115384616	
2.300366533864542	0.0	0.0	0.0	0.0	11.221070673076921	
2.31036812749004	0.0	0.0	0.0	0.0	11.315365384615383	
2.320369721115538	0.0	0.0	0.0	0.0	15.935806249999999	
2.330371314741036	0.0	0.0	0.0	0.0	13.201259615384616	
2.340372908366534	0.0	0.0	0.0	0.0	12.446901923076922	
2.3503745019920315	0.0	0.0	0.0	0.0	10.089534134615382	
2.3603760956175295	0.0	0.0	0.0	0.0	9.712355288461538	
2.3703776892430275	0.0	0.0	0.0	0.0	10.278123557692306	
2.3803792828685255	0.0	0.0	0.0	0.0	12.069723076923077	
2.3903808764940235	0.0	0.0	0.0	0.0	13.48414375	
2.4003824701195215	0.0	0.0	0.0	0.0	12.824080769230767	
2.4103840637450196	0.0	0.0	0.0	0.0	6.600629807692308	
2.4203856573705176	0.0	0.0	0.0	0.0	12.446901923076922	
2.4303872509960156	0.0	0.0	0.0	0.0	11.692544230769233	
2.4403888446215136	0.0	0.0	0.0	0.0	8.67511346153846	
2.4503904382470116	0.0	0.0	0.0	0.0	7.732166346153846	
2.4603920318725097	0.0	0.0	0.0	0.0	6.883513942307691	
2.4703936254980077	0.0	0.0	0.0	0.0	8.580818749999999	
2.4803952191235057	0.0	0.0	0.0	0.0	13.48414375	
2.4903968127490037	0.0	0.0	0.0	0.0	12.824080769230767	
2.5003984063745017	0.0	0.0	0.0	0.0	10.089534134615382	
2.5103999999999997	0.0	0.0	0.0	0.0	13.201259615384616	
2.5204015936254978	0.0	0.0	0.0	0.0	11.598249519230766	
2.5304031872509958	0.0	0.0	0.0	0.0	9.995239423076923	
2.540404780876494	0.0	0.0	0.0	0.0	12.824080769230767	
2.550406374501992	0.0	0.0	0.0	0.0	13.106964903846155	
2.56040796812749	0.0	0.0	0.0	0.0	16.218690384615382	
2.570409561752988	0.0	0.0	0.0	0.0	9.712355288461538	
2.580411155378486	0.0	0.0	0.0	0.0	13.67273317307692	
2.590412749003984	0.0	0.0	0.0	0.0	14.992859134615383	
2.600414342629482	0.0	0.0	0.0	0.0	12.35260721153846	
2.61041593625498	0.0	0.0	0.0	0.0	10.938186538461538	
2.620417529880478	0.0	0.0	0.0	0.0	10.183828846153844	
2.630419123505976	0.0	0.0	0.0	0.0	10.749597115384615	
2.640420717131474	0.0	0.0	0.0	0.0	10.089534134615382	
2.650422310756972	0.0	0.0	0.0	0.0	10.183828846153844	
2.66042390438247	0.0	0.0	0.0	0.0	9.618060576923076	
2.670425498007968	0.0	0.0	0.0	0.0	9.80665	
2.680427091633466	0.0	0.0	0.0	0.0	13.48414375	
2.690428685258964	0.0	0.0	0.0	0.0	12.069723076923077	
2.700430278884462	0.0	0.0	0.0	0.0	11.315365384615383	
2.71043187250996	0.0	0.0	0.0	0.0	12.35260721153846	
2.720433466135458	0.0	0.0	0.0	0.0	11.975428365384616	
2.730435059760956	0.0	0.0	0.0	0.0	10.466712980769232	
2.740436653386454	0.0	0.0	0.0	0.0	11.409660096153845	
2.750438247011952	0.0	0.0	0.0	0.0	10.938186538461538	
2.76043984063745	0.0	0.0	0.0	0.0	11.503954807692306	
2.770441434262948	0.0	0.0	0.0	0.0	11.12677596153846	
2.7804430278884458	0.0	0.0	0.0	0.0	11.221070673076921	
2.790444621513944	0.0	0.0	0.0	0.0	11.315365384615383	
2.800446215139442	0.0	0.0	0.0	0.0	11.315365384615383	
2.81044780876494	0.0	0.0	0.0	0.0	11.221070673076921	
2.820449402390438	0.0	0.0	0.0	0.0	11.315365384615383	
2.830450996015936	0.0	0.0	0.0	0.0	11.315365384615383	
2.840452589641434	0.0	0.0	0.0	0.0	11.315365384615383	
2.850454183266932	0.0	0.0	0.0	0.0	11.315365384615383	
2.86045577689243	0.0	0.0	0.0	0.0	10.655302403846154	
2.870457370517928	0.0	0.0	0.0	0.0	13.201259615384616	
2.880458964143426	0.0	0.0	0.0	0.0	10.089534134615382	
2.890460557768924	0.0	0.0	0.0	0.0	13.295554326923076	
2.900462151394422	0.0	0.0	0.0	0.0	12.918375480769232	
2.91046374501992	0.0	0.0	0.0	0.0	9.335176442307692	
2.920465338645418	0.0	0.0	0.0	0.0	9.900944711538461	
2.930466932270916	0.0	0.0	0.0	0.0	14.427090865384615	
2.940468525896414	0.0	0.0	0.0	0.0	10.466712980769232	
2.950470119521912	0.0	0.0	0.0	0.0	8.67511346153846	
2.96047171314741	0.0	0.0	0.0	0.0	10.183828846153844	
2.970473306772908	0.0	0.0	0.0	0.0	12.069723076923077	
2.980474900398406	0.0	0.0	0.0	0.0	11.503954807692306	
2.990476494023904	0.0	0.0	0.0	0.0	10.561007692307694	
3.000478087649402	0.0	0.0	0.0	0.0	10.938186538461538	
3.0104796812749	0.0	0.0	0.0	0.0	11.315365384615383	
3.020481274900398	0.0	0.0	0.0	0.0	11.12677596153846	
3.030482868525896	0.0	0.0	0.0	0.0	11.221070673076921	
3.0404844621513942	0.0	0.0	0.0	0.0	10.655302403846154	
3.0504860557768922	0.0	0.0	0.0	0.0	11.221070673076921	
3.0604876494023903	0.0	0.0	0.0	0.0	11.692544230769233	
3.0704892430278883	0.0	0.0	0.0	0.0	11.221070673076921	
3.0804908366533863	0.0	0.0	0.0	0.0	11.03248125	
3.0904924302788843	0.0	0.0	0.0	0.0	11.503954807692306	
3.1004940239043823	0.0	0.0	0.0	0.0	11.03248125	
3.1104956175298804	0.0	0.0	0.0	0.0	11.221070673076921	
3.1204972111553784	0.0	0.0	0.0	0.0	11.315365384615383	
3.1304988047808764	0.0	0.0	0.0	0.0	11.221070673076921	
3.1405003984063744	0.0	0.0	0.0	0.0	11.503954807692306	
3.1505019920318724	0.0	0.0	0.0	0.0	11.598249519230766	
3.1605035856573704	0.0	0.0	0.0	0.0	11.315365384615383	
3.1705051792828685	0.0	0.0	0.0	0.0	10.843891826923077	
3.1805067729083665	0.0	0.0	0.0	0.0	11.409660096153845	
3.1905083665338645	0.0	0.0	0.0	0.0	11.409660096153845	
3.200509960159362	0.0	0.0	0.0	0.0	11.221070673076921	
3.21051155378486	0.0	0.0	0.0	0.0	11.315365384615383	
3.220513147410358	0.0	0.0	0.0	0.0	12.446901923076922	
3.230514741035856	0.0	0.0	0.0	0.0	11.221070673076921	
3.240516334661354	0.0	0.0	0.0	0.0	11.12677596153846	
3.250517928286852	0.0	0.0	0.0	0.0	10.938186538461538	
3.26051952191235	0.0	0.0	0.0	0.0	10.466712980769232	
3.270521115537848	0.0	0.0	0.0	0.0	11.12677596153846	
3.280522709163346	0.0	0.0	0.0	0.0	10.938186538461538	
3.2905243027888442	0.0	0.0	0.0	0.0	11.881133653846154	
3.3005258964143422	0.0	0.0	0.0	0.0	11.409660096153845	
3.3105274900398403	0.0	0.0	0.0	0.0	11.221070673076921	
3.3205290836653383	0.0	0.0	0.0	0.0	11.409660096153845	
3.3305306772908363	0.0	0.0	0.0	0.0	11.221070673076921	
3.3405322709163343	0.0	0.0	0.0	0.0	11.315365384615383	
3.3505338645418323	0.0	0.0	0.0	0.0	11.598249519230766	
3.3605354581673303	0.0	0.0	0.0	0.0	11.221070673076921	
3.3705370517928284	0.0	0.0	0.0	0.0	11.315365384615383	
3.3805386454183264	0.0	0.0	0.0	0.0	11.315365384615383	
3.3905402390438244	0.0	0.0	0.0	0.0	11.315365384615383	
3.4005418326693224	0.0	0.0	0.0	0.0	11.503954807692306	
3.4105434262948204	0.0	0.0	0.0	0.0	10.938186538461538	
3.4205450199203185	0.0	0.0	0.0	0.0	11.221070673076921	
3.4305466135458165	0.0	0.0	0.0	0.0	11.315365384615383	
3.4405482071713145	0.0	0.0	0.0	0.0	11.409660096153845	
3.4505498007968125	0.0	0.0	0.0	0.0	11.221070673076921	
3.4605513944223105	0.0	0.0	0.0	0.0	11.409660096153845	
3.4705529880478085	0.0	0.0	0.0	0.0	11.315365384615383	
3.4805545816733066	0.0	0.0	0.0	0.0	11.315365384615383	
3.4905561752988046	0.0	0.0	0.0	0.0	11.221070673076921	
3.5005577689243026	0.0	0.0	0.0	0.0	11.409660096153845	
3.5105593625498006	0.0	0.0	0.0	0.0	11.315365384615383	
3.5205609561752986	0.0	0.0	0.0	0.0	11.409660096153845	
3.5305625498007966	0.0	0.0	0.0	0.0	11.12677596153846	
3.5405641434262947	0.0	0.0	0.0	0.0	12.446901923076922	
3.5505657370517927	0.0	0.0	0.0	0.0	11.221070673076921	
3.5605673306772907	0.0	0.0	0.0	0.0	11.315365384615383	
3.5705689243027887	0.0	0.0	0.0	0.0	11.03248125	
3.5805705179282867	0.0	0.0	0.0	0.0	11.315365384615383	
3.5905721115537848	0.0	0.0	0.0	0.0	11.315365384615383	
3.6005737051792828	0.0	0.0	0.0	0.0	11.315365384615383	
3.610575298804781	0.0	0.0	0.0	0.0	11.315365384615383	
3.620576892430279	0.0	0.0	0.0	0.0	11.221070673076921	
3.6305784860557764	0.0	0.0	0.0	0.0	11.315365384615383	
3.6405800796812744	0.0	0.0	0.0	0.0	11.03248125	
3.6505816733067724	0.0	0.0	0.0	0.0	11.503954807692306	
3.6605832669322704	0.0	0.0	0.0	0.0	11.409660096153845	
3.6705848605577684	0.0	0.0	0.0	0.0	11.221070673076921	
3.6805864541832665	0.0	0.0	0.0	0.0	12.918375480769232	
3.6905880478087645	0.0	0.0	0.0	0.0	9.995239423076923	
3.7005896414342625	0.0	0.0	0.0	0.0	12.446901923076922	
3.7105912350597605	0.0	0.0	0.0	0.0	10.843891826923077	
3.7205928286852585	0.0	0.0	0.0	0.0	12.069723076923077	
3.7305944223107566	0.0	0.0	0.0	0.0	12.35260721153846	
3.7405960159362546	0.0	0.0	0.0	0.0	11.409660096153845	
3.7505976095617526	0.0	0.0	0.0	0.0	12.729786057692305	
3.7605992031872506	0.0	0.0	0.0	0.0	12.35260721153846	
3.7706007968127486	0.0	0.0	0.0	0.0	12.635491346153843	
3.7806023904382466	0.0	0.0	0.0	0.0	10.655302403846154	
3.7906039840637447	0.0	0.0	0.0	0.0	10.089534134615382	
3.8006055776892427	0.0	0.0	0.0	0.0	9.995239423076923	
3.8106071713147407	0.0	0.0	0.0	0.0	9.80665	
3.8206087649402387	0.0	0.0	0.0	0.0	9.523765865384616	
3.8306103585657367	0.0	0.0	0.0	0.0	11.598249519230766	
3.8406119521912347	0.0	0.0	0.0	0.0	12.824080769230767	
3.8506135458167328	0.0	0.0	0.0	0.0	11.786838942307693	
3.860615139442231	0.0	0.0	0.0	0.0	11.975428365384616	
3.870616733067729	0.0	0.0	0.0	0.0	11.221070673076921	
3.880618326693227	0.0	0.0	0.0	0.0	10.749597115384615	
3.890619920318725	0.0	0.0	0.0	0.0	10.655302403846154	
3.900621513944223	0.0	0.0	0.0	0.0	10.089534134615382	
3.910623107569721	0.0	0.0	0.0	0.0	11.12677596153846	
3.920624701195219	0.0	0.0	0.0	0.0	11.598249519230766	
3.930626294820717	0.0	0.0	0.0	0.0	10.938186538461538	
3.940627888446215	0.0	0.0	0.0	0.0	11.598249519230766	
3.950629482071713	0.0	0.0	0.0	0.0	11.409660096153845	
3.960631075697211	0.0	0.0	0.0	0.0	11.12677596153846	
3.970632669322709	0.0	0.0	0.0	0.0	11.315365384615383	
3.980634262948207	0.0	0.0	0.0	0.0	11.12677596153846	
3.990635856573705	0.0	0.0	0.0	0.0	11.409660096153845	
4.000637450199203	0.0	0.0	0.0	0.0	11.409660096153845	
4.010639043824701	0.0	0.0	0.0	0.0	10.938186538461538	
4.020640637450199	0.0	0.0	0.0	0.0	11.598249519230766	
4.030642231075697	0.0	0.0	0.0	0.0	11.315365384615383	
4.040643824701195	0.0	0.0	0.0	0.0	11.221070673076921	
4.050645418326693	0.0	0.0	0.0	0.0	11.409660096153845	
4.060647011952191	0.0	0.0	0.0	0.0	11.315365384615383	
4.070648605577689	0.0	0.0	0.0	0.0	11.315365384615383	
4.080650199203187	0.0	0.0	0.0	0.0	11.409660096153845	
4.090651792828685	0.0	0.0	0.0	0.0	11.12677596153846	
4.100653386454183	0.0	0.0	0.0	0.0	11.409660096153845	
4.110654980079681	0.0	0.0	0.0	0.0	11.315365384615383	
4.120656573705179	0.0	0.0	0.0	0.0	11.503954807692306	
4.130658167330677	0.0	0.0	0.0	0.0	11.315365384615383	
4.140659760956175	0.0	0.0	0.0	0.0	11.315365384615383	
4.150661354581673	0.0	0.0	0.0	0.0	11.409660096153845	
4.160662948207171	0.0	0.0	0.0	0.0	11.409660096153845	
4.170664541832669	0.0	0.0	0.0	0.0	12.069723076923077	
4.180666135458167	0.0	0.0	0.0	0.0	11.221070673076921	
4.190667729083665	0.0	0.0	0.0	0.0	12.164017788461537	
4.200669322709163	0.0	0.0	0.0	0.0	11.221070673076921	
4.210670916334661	0.0	0.0	0.0	0.0	10.655302403846154	
4.220672509960159	0.0	0.0	0.0	0.0	11.975428365384616	
4.230674103585657	0.0	0.0	0.0	0.0	12.541196634615384	
4.240675697211155	0.0	0.0	0.0	0.0	11.975428365384616	
4.250677290836653	0.0	0.0	0.0	0.0	11.315365384615383	
4.260678884462151	0.0	0.0	0.0	0.0	11.221070673076921	
4.270680478087649	0.0	0.0	0.0	0.0	11.03248125	
4.280682071713147	0.0	0.0	0.0	0.0	11.315365384615383	
4.290683665338645	0.0	0.0	0.0	0.0	11.315365384615383	
4.300685258964143	0.0	0.0	0.0	0.0	12.446901923076922	
4.310686852589641	0.0	0.0	0.0	0.0	11.598249519230766	
4.320688446215139	0.0	0.0	0.0	0.0	11.221070673076921	
4.330690039840637	0.0	0.0	0.0	0.0	11.503954807692306	
4.340691633466135	0.0	0.0	0.0	0.0	11.881133653846154	
4.350693227091633	0.0	0.0	0.0	0.0	11.03248125	
4.360694820717131	0.0	0.0	0.0	0.0	11.12677596153846	
4.370696414342629	0.0	0.0	0.0	0.0	11.03248125	
4.380698007968127	0.0	0.0	0.0	0.0	10.749597115384615	
4.390699601593625	0.0	0.0	0.0	0.0	10.372418269230767	
4.400701195219123	0.0	0.0	0.0	0.0	11.12677596153846	
4.410702788844621	0.0	0.0	0.0	0.0	10.655302403846154	
4.420704382470119	0.0	0.0	0.0	0.0	11.409660096153845	
4.430705976095617	0.0	0.0	0.0	0.0	11.598249519230766	
4.440707569721115	0.0	0.0	0.0	0.0	10.843891826923077	
4.450709163346613	0.0	0.0	0.0	0.0	10.938186538461538	
4.460710756972111	0.0	0.0	0.0	0.0	11.12677596153846	
4.470712350597609	0.0	0.0	0.0	0.0	11.03248125	
4.480713944223107	0.0	0.0	0.0	0.0	11.12677596153846	
4.490715537848605	0.0	0.0	0.0	0.0	11.221070673076921	
4.5007171314741035	0.0	0.0	0.0	0.0	11.598249519230766	
4.5107187250996015	0.0	0.0	0.0	0.0	11.598249519230766	
4.5207203187250995	0.0	0.0	0.0	0.0	11.12677596153846	
4.5307219123505975	0.0	0.0	0.0	0.0	11.598249519230766	
4.5407235059760955	0.0	0.0	0.0	0.0	12.258312499999999	
4.5507250996015935	0.0	0.0	0.0	0.0	10.938186538461538	
4.560726693227092	0.0	0.0	0.0	0.0	12.824080769230767	
4.57072828685259	0.0	0.0	0.0	0.0	12.918375480769232	
4.580729880478088	0.0	0.0	0.0	0.0	10.655302403846154	
4.590731474103586	0.0	0.0	0.0	0.0	8.297934615384616	
4.600733067729084	0.0	0.0	0.0	0.0	7.543576923076922	
4.610734661354582	0.0	0.0	0.0	0.0	11.12677596153846	
4.62073625498008	0.0	0.0	0.0	0.0	12.635491346153843	
4.630737848605578	0.0	0.0	0.0	0.0	14.332796153846154	
4.640739442231076	0.0	0.0	0.0	0.0	14.238501442307694	
4.650741035856574	0.0	0.0	0.0	0.0	13.012670192307693	
4.660742629482072	0.0	0.0	0.0	0.0	11.315365384615383	
4.67074422310757	0.0	0.0	0.0	0.0	8.67511346153846	
4.680745816733068	0.0	0.0	0.0	0.0	9.24088173076923	
4.690747410358566	0.0	0.0	0.0	0.0	8.392229326923077	
4.700749003984063	0.0	0.0	0.0	0.0	11.12677596153846	
4.710750597609561	0.0	0.0	0.0	0.0	11.221070673076921	
4.720752191235059	0.0	0.0	0.0	0.0	12.541196634615384	
4.730753784860557	0.0	0.0	0.0	0.0	12.35260721153846	
4.740755378486055	0.0	0.0	0.0	0.0	10.561007692307694	
4.750756972111553	0.0	0.0	0.0	0.0	9.712355288461538	
4.760758565737051	0.0	0.0	0.0	0.0	8.863702884615384	
4.770760159362549	0.0	0.0	0.0	0.0	9.900944711538461	
4.780761752988047	0.0	0.0	0.0	0.0	11.786838942307693	
4.790763346613545	0.0	0.0	0.0	0.0	11.881133653846154	
4.800764940239043	0.0	0.0	0.0	0.0	10.655302403846154	
4.810766533864541	0.0	0.0	0.0	0.0	13.389849038461538	
4.820768127490039	0.0	0.0	0.0	0.0	11.881133653846154	
4.830769721115537	0.0	0.0	0.0	0.0	7.920755769230769	
4.840771314741035	0.0	0.0	0.0	0.0	8.957997596153847	
4.850772908366533	0.0	0.0	0.0	0.0	13.106964903846155	
4.860774501992031	0.0	0.0	0.0	0.0	14.427090865384615	
4.870776095617529	0.0	0.0	0.0	0.0	13.955617307692306	
4.880777689243027	0.0	0.0	0.0	0.0	10.938186538461538	
4.890779282868525	0.0	0.0	0.0	0.0	8.486524038461539	
4.900780876494023	0.0	0.0	0.0	0.0	8.863702884615384	
4.910782470119521	0.0	0.0	0.0	0.0	9.052292307692309	
4.920784063745019	0.0	0.0	0.0	0.0	9.523765865384616	
4.930785657370517	0.0	0.0	0.0	0.0	10.749597115384615	
4.940787250996015	0.0	0.0	0.0	0.0	12.069723076923077	
4.950788844621513	0.0	0.0	0.0	0.0	11.975428365384616	
4.960790438247011	0.0	0.0	0.0	0.0	11.315365384615383	
4.970792031872509	0.0	0.0	0.0	0.0	10.655302403846154	
4.980793625498007	0.0	0.0	0.0	0.0	11.12677596153846	
4.990795219123505	0.0	0.0	0.0	0.0	11.786838942307693	
5.0007968127490035	0.0	0.0	0.0	0.0	12.069723076923077	
5.0107984063745015	0.0	0.0	0.0	0.0	12.069723076923077	
5.0207999999999995	0.0	0.0	0.0	0.0	11.786838942307693	
5.0308015936254975	0.0	0.0	0.0	0.0	10.938186538461538	
5.0408031872509955	0.0	0.0	0.0	0.0	11.221070673076921	
5.0508047808764935	0.0	0.0	0.0	0.0	10.372418269230767	
5.0608063745019916	0.0	0.0	0.0	0.0	10.372418269230767	
5.07080796812749	0.0	0.0	0.0	0.0	10.183828846153844	
5.080809561752988	0.0	0.0	0.0	0.0	10.749597115384615	
5.090811155378486	0.0	0.0	0.0	0.0	13.861322596153844	
5.100812749003984	0.0	0.0	0.0	0.0	12.35260721153846	
5.110814342629482	0.0	0.0	0.0	0.0	10.843891826923077	
5.12081593625498	0.0	0.0	0.0	0.0	12.164017788461537	
5.130817529880478	0.0	0.0	0.0	0.0	11.975428365384616	
5.140819123505976	0.0	0.0	0.0	0.0	11.409660096153845	
5.150820717131474	0.0	0.0	0.0	0.0	11.221070673076921	
5.160822310756972	0.0	0.0	0.0	0.0	11.03248125	
5.17082390438247	0.0	0.0	0.0	0.0	10.749597115384615	
5.180825498007968	0.0	0.0	0.0	0.0	10.372418269230767	
5.190827091633466	0.0	0.0	0.0	0.0	10.089534134615382	
5.200828685258964	0.0	0.0	0.0	0.0	10.561007692307694	
5.210830278884462	0.0	0.0	0.0	0.0	11.12677596153846	
5.22083187250996	0.0	0.0	0.0	0.0	11.503954807692306	
5.230833466135458	0.0	0.0	0.0	0.0	11.409660096153845	
5.240835059760956	0.0	0.0	0.0	0.0	12.069723076923077	
5.250836653386454	0.0	0.0	0.0	0.0	11.598249519230766	
5.260838247011952	0.0	0.0	0.0	0.0	11.03248125	
5.27083984063745	0.0	0.0	0.0	0.0	11.692544230769233	
5.280841434262948	0.0	0.0	0.0	0.0	10.655302403846154	
5.290843027888446	0.0	0.0	0.0	0.0	9.80665	
5.300844621513944	0.0	0.0	0.0	0.0	9.523765865384616	
5.310846215139442	0.0	0.0	0.0	0.0	10.372418269230767	
5.32084780876494	0.0	0.0	0.0	0.0	10.466712980769232	
5.330849402390438	0.0	0.0	0.0	0.0	10.372418269230767	
5.340850996015936	0.0	0.0	0.0	0.0	10.938186538461538	
5.350852589641434	0.0	0.0	0.0	0.0	10.938186538461538	
5.360854183266932	0.0	0.0	0.0	0.0	11.598249519230766	
5.37085577689243	0.0	0.0	0.0	0.0	11.409660096153845	
5.380857370517928	0.0	0.0	0.0	0.0	10.655302403846154	
5.390858964143426	0.0	0.0	0.0	0.0	12.446901923076922	
5.400860557768924	0.0	0.0	0.0	0.0	10.183828846153844	
5.410862151394422	0.0	0.0	0.0	0.0	11.598249519230766	
5.42086374501992	0.0	0.0	0.0	0.0	12.069723076923077	
5.430865338645418	0.0	0.0	0.0	0.0	11.409660096153845	
5.440866932270916	0.0	0.0	0.0	0.0	11.12677596153846	
5.450868525896414	0.0	0.0	0.0	0.0	10.843891826923077	
5.460870119521912	0.0	0.0	0.0	0.0	11.786838942307693	
5.47087171314741	0.0	0.0	0.0	0.0	12.541196634615384	
5.480873306772908	0.0	0.0	0.0	0.0	13.012670192307693	
5.490874900398406	0.0	0.0	0.0	0.0	12.446901923076922	
5.500876494023904	0.0	0.0	0.0	0.0	12.069723076923077	
5.510878087649402	0.0	0.0	0.0	0.0	10.089534134615382	
5.5208796812749	0.0	0.0	0.0	0.0	9.24088173076923	
5.530881274900398	0.0	0.0	0.0	0.0	9.900944711538461	
5.540882868525896	0.0	0.0	0.0	0.0	10.183828846153844	
5.5508844621513935	0.0	0.0	0.0	0.0	10.938186538461538	
5.5608860557768915	0.0	0.0	0.0	0.0	11.503954807692306	
5.57088764940239	0.0	0.0	0.0	0.0	11.315365384615383	
5.580889243027888	0.0	0.0	0.0	0.0	11.692544230769233	
5.590890836653386	0.0	0.0	0.0	0.0	12.446901923076922	
5.600892430278884	0.0	0.0	0.0	0.0	12.164017788461537	
5.610894023904382	0.0	0.0	0.0	0.0	10.466712980769232	
5.62089561752988	0.0	0.0	0.0	0.0	10.561007692307694	
5.630897211155378	0.0	0.0	0.0	0.0	10.561007692307694	
5.640898804780876	0.0	0.0	0.0	0.0	10.843891826923077	
5.650900398406374	0.0	0.0	0.0	0.0	10.561007692307694	
5.660901992031872	0.0	0.0	0.0	0.0	10.843891826923077	
5.67090358565737	0.0	0.0	0.0	0.0	10.843891826923077	
5.680905179282868	0.0	0.0	0.0	0.0	10.372418269230767	
5.690906772908366	0.0	0.0	0.0	0.0	10.938186538461538	
5.700908366533864	0.0	0.0	0.0	0.0	11.598249519230766	
5.710909960159362	0.0	0.0	0.0	0.0	11.598249519230766	
5.72091155378486	0.0	0.0	0.0	0.0	11.692544230769233	
5.730913147410358	0.0	0.0	0.0	0.0	11.503954807692306	
5.740914741035856	0.0	0.0	0.0	0.0	11.598249519230766	
5.750916334661354	0.0	0.0	0.0	0.0	11.409660096153845	
5.760917928286852	0.0	0.0	0.0	0.0	10.655302403846154	
5.77091952191235	0.0	0.0	0.0	0.0	9.900944711538461	
5.780921115537848	0.0	0.0	0.0	0.0	10.372418269230767	
5.790922709163346	0.0	0.0	0.0	0.0	10.655302403846154	
5.800924302788844	0.0	0.0	0.0	0.0	11.03248125	
5.810925896414342	0.0	0.0	0.0	0.0	11.881133653846154	
5.82092749003984	0.0	0.0	0.0	0.0	12.35260721153846	
5.830929083665338	0.0	0.0	0.0	0.0	12.164017788461537	
5.840930677290836	0.0	0.0	0.0	0.0	10.655302403846154	
5.850932270916334	0.0	0.0	0.0	0.0	11.975428365384616	
5.860933864541832	0.0	0.0	0.0	0.0	10.843891826923077	
5.87093545816733	0.0	0.0	0.0	0.0	10.372418269230767	
5.880937051792828	0.0	0.0	0.0	0.0	10.843891826923077	
5.890938645418326	0.0	0.0	0.0	0.0	11.221070673076921	
5.900940239043824	0.0	0.0	0.0	0.0	11.315365384615383	
5.910941832669322	0.0	0.0	0.0	0.0	10.466712980769232	
5.92094342629482	0.0	0.0	0.0	0.0	10.466712980769232	
5.930945019920318	0.0	0.0	0.0	0.0	10.561007692307694	
5.940946613545816	0.0	0.0	0.0	0.0	12.35260721153846	
5.950948207171314	0.0	0.0	0.0	0.0	13.012670192307693	
5.960949800796812	0.0	0.0	0.0	0.0	11.975428365384616	
5.97095139442231	0.0	0.0	0.0	0.0	11.315365384615383	
5.980952988047808	0.0	0.0	0.0	0.0	10.372418269230767	
5.990954581673306	0.0	0.0	0.0	0.0	7.920755769230769	
6.000956175298804	0.0	0.0	0.0	0.0	8.863702884615384	
6.010957768924302	0.0	0.0	0.0	0.0	8.863702884615384	
6.0209593625498	0.0	0.0	0.0	0.0	11.221070673076921	
6.030960956175298	0.0	0.0	0.0	0.0	12.729786057692305	
6.040962549800796	0.0	0.0	0.0	0.0	12.258312499999999	
6.050964143426294	0.0	0.0	0.0	0.0	9.523765865384616	
6.060965737051792	0.0	0.0	0.0	0.0	12.729786057692305	
6.07096733067729	0.0	0.0	0.0	0.0	12.918375480769232	
6.0809689243027885	0.0	0.0	0.0	0.0	11.221070673076921	
6.0909705179282865	0.0	0.0	0.0	0.0	10.466712980769232	
6.1009721115537845	0.0	0.0	0.0	0.0	10.938186538461538	
6.1109737051792825	0.0	0.0	0.0	0.0	11.315365384615383	
6.1209752988047805	0.0	0.0	0.0	0.0	10.561007692307694	
6.1309768924302785	0.0	0.0	0.0	0.0	9.24088173076923	
6.140978486055777	0.0	0.0	0.0	0.0	9.712355288461538	
6.150980079681275	0.0	0.0	0.0	0.0	10.843891826923077	
6.160981673306773	0.0	0.0	0.0	0.0	12.635491346153843	
6.170983266932271	0.0	0.0	0.0	0.0	12.164017788461537	
6.180984860557769	0.0	0.0	0.0	0.0	9.995239423076923	
6.190986454183267	0.0	0.0	0.0	0.0	12.258312499999999	
6.200988047808765	0.0	0.0	0.0	0.0	11.315365384615383	
6.210989641434263	0.0	0.0	0.0	0.0	10.655302403846154	
6.220991235059761	0.0	0.0	0.0	0.0	11.692544230769233	
6.230992828685259	0.0	0.0	0.0	0.0	12.35260721153846	
6.240994422310757	0.0	0.0	0.0	0.0	12.069723076923077	
6.250996015936255	0.0	0.0	0.0	0.0	11.692544230769233	
6.260997609561753	0.0	0.0	0.0	0.0	11.881133653846154	
6.270999203187251	0.0	0.0	0.0	0.0	11.315365384615383	
6.281000796812749	0.0	0.0	0.0	0.0	10.655302403846154	
6.291002390438247	0.0	0.0	0.0	0.0	9.429471153846153	
6.301003984063745	0.0	0.0	0.0	0.0	8.109345192307691	
6.311005577689243	0.0	0.0	0.0	0.0	7.826461057692308	
6.321007171314741	0.0	0.0	0.0	0.0	9.523765865384616	
6.331008764940239	0.0	0.0	0.0	0.0	10.843891826923077	
6.341010358565737	0.0	0.0	0.0	0.0	16.69016394230769	
6.351011952191235	0.0	0.0	0.0	0.0	12.164017788461537	
6.361013545816733	0.0	0.0	0.0	0.0	10.938186538461538	
6.371015139442231	0.0	0.0	0.0	0.0	11.221070673076921	
6.381016733067729	0.0	0.0	0.0	0.0	9.618060576923076	
6.391018326693227	0.0	0.0	0.0	0.0	10.466712980769232	
6.401019920318724	0.0	0.0	0.0	0.0	11.221070673076921	
6.411021513944222	0.0	0.0	0.0	0.0	10.938186538461538	
6.42102310756972	0.0	0.0	0.0	0.0	11.03248125	
6.431024701195218	0.0	0.0	0.0	0.0	10.938186538461538	
6.441026294820716	0.0	0.0	0.0	0.0	11.409660096153845	
6.451027888446214	0.0	0.0	0.0	0.0	11.221070673076921	
6.461029482071712	0.0	0.0	0.0	0.0	11.315365384615383	
6.47103107569721	0.0	0.0	0.0	0.0	11.409660096153845	
6.481032669322708	0.0	0.0	0.0	0.0	10.938186538461538	
6.491034262948206	0.0	0.0	0.0	0.0	11.975428365384616	
6.501035856573704	0.0	0.0	0.0	0.0	12.824080769230767	
6.511037450199202	0.0	0.0	0.0	0.0	12.729786057692305	
6.5210390438247	0.0	0.0	0.0	0.0	11.975428365384616	
6.531040637450198	0.0	0.0	0.0	0.0	10.466712980769232	
6.541042231075696	0.0	0.0	0.0	0.0	10.372418269230767	
6.551043824701194	0.0	0.0	0.0	0.0	9.900944711538461	
6.561045418326692	0.0	0.0	0.0	0.0	9.900944711538461	
6.57104701195219	0.0	0.0	0.0	0.0	12.35260721153846	
6.5810486055776884	0.0	0.0	0.0	0.0	12.35260721153846	
6.5910501992031865	0.0	0.0	0.0	0.0	12.069723076923077	
6.6010517928286845	0.0	0.0	0.0	0.0	13.012670192307693	
6.6110533864541825	0.0	0.0	0.0	0.0	12.069723076923077	
6.6210549800796805	0.0	0.0	0.0	0.0	8.392229326923077	
6.6310565737051785	0.0	0.0	0.0	0.0	6.034861538461539	
6.6410581673306766	0.0	0.0	0.0	0.0	8.203639903846152	
6.651059760956175	0.0	0.0	0.0	0.0	8.01505048076923	
6.661061354581673	0.0	0.0	0.0	0.0	10.278123557692306	
6.671062948207171	0.0	0.0	0.0	0.0	11.315365384615383	
6.681064541832669	0.0	0.0	0.0	0.0	12.446901923076922	
6.691066135458167	0.0	0.0	0.0	0.0	12.635491346153843	
6.701067729083665	0.0	0.0	0.0	0.0	10.843891826923077	
6.711069322709163	0.0	0.0	0.0	0.0	12.164017788461537	
6.721070916334661	0.0	0.0	0.0	0.0	12.635491346153843	
6.731072509960159	0.0	0.0	0.0	0.0	12.729786057692305	
6.741074103585657	0.0	0.0	0.0	0.0	10.655302403846154	
6.751075697211155	0.0	0.0	0.0	0.0	11.409660096153845	
6.761077290836653	0.0	0.0	0.0	0.0	10.561007692307694	
6.771078884462151	0.0	0.0	0.0	0.0	10.466712980769232	
6.781080478087649	0.0	0.0	0.0	0.0	9.712355288461538	
6.791082071713147	0.0	0.0	0.0	0.0	9.523765865384616	
6.801083665338645	0.0	0.0	0.0	0.0	9.335176442307692	
6.811085258964143	0.0	0.0	0.0	0.0	10.278123557692306	
6.821086852589641	0.0	0.0	0.0	0.0	10.843891826923077	
6.831088446215139	0.0	0.0	0.0	0.0	12.635491346153843	
6.841090039840637	0.0	0.0	0.0	0.0	12.35260721153846	
6.851091633466135	0.0	0.0	0.0	0.0	11.12677596153846	
6.861093227091633	0.0	0.0	0.0	0.0	10.183828846153844	
6.871094820717131	0.0	0.0	0.0	0.0	10.183828846153844	
6.881096414342629	0.0	0.0	0.0	0.0	11.221070673076921	
6.891098007968127	0.0	0.0	0.0	0.0	11.221070673076921	
6.901099601593625	0.0	0.0	0.0	0.0	11.692544230769233	
6.911101195219123	0.0	0.0	0.0	0.0	12.635491346153843	
6.921102788844621	0.0	0.0	0.0	0.0	12.258312499999999	
6.931104382470119	0.0	0.0	0.0	0.0	11.881133653846154	
6.941105976095617	0.0	0.0	0.0	0.0	8.109345192307691	
6.951107569721115	0.0	0.0	0.0	0.0	11.409660096153845	
6.961109163346613	0.0	0.0	0.0	0.0	11.503954807692306	
6.971110756972111	0.0	0.0	0.0	0.0	10.278123557692306	
6.981112350597609	0.0	0.0	0.0	0.0	9.80665	
6.991113944223107	0.0	0.0	0.0	0.0	9.052292307692309	
7.001115537848605	0.0	0.0	0.0	0.0	10.183828846153844	
7.011117131474103	0.0	0.0	0.0	0.0	11.975428365384616	
7.021118725099601	0.0	0.0	0.0	0.0	12.541196634615384	
7.031120318725099	0.0	0.0	0.0	0.0	10.089534134615382	
7.041121912350597	0.0	0.0	0.0	0.0	10.372418269230767	
7.051123505976095	0.0	0.0	0.0	0.0	11.598249519230766	
7.061125099601593	0.0	0.0	0.0	0.0	12.729786057692305	
7.071126693227091	0.0	0.0	0.0	0.0	12.729786057692305	
7.081128286852589	0.0	0.0	0.0	0.0	11.975428365384616	
7.091129880478087	0.0	0.0	0.0	0.0	11.409660096153845	
7.101131474103585	0.0	0.0	0.0	0.0	11.03248125	
7.111133067729083	0.0	0.0	0.0	0.0	9.995239423076923	
7.121134661354581	0.0	0.0	0.0	0.0	9.712355288461538	
7.131136254980079	0.0	0.0	0.0	0.0	9.24088173076923	
7.141137848605577	0.0	0.0	0.0	0.0	9.523765865384616	
7.1511394422310754	0.0	0.0	0.0	0.0	8.580818749999999	
7.1611410358565735	0.0	0.0	0.0	0.0	9.052292307692309	
7.1711426294820715	0.0	0.0	0.0	0.0	8.203639903846152	
7.1811442231075695	0.0	0.0	0.0	0.0	6.317745673076922	
7.1911458167330675	0.0	0.0	0.0	0.0	12.164017788461537	
7.2011474103585655	0.0	0.0	0.0	0.0	12.069723076923077	
7.2111490039840636	0.0	0.0	0.0	0.0	12.069723076923077	
7.221150597609562	0.0	0.0	0.0	0.0	12.729786057692305	
7.23115219123506	0.0	0.0	0.0	0.0	12.069723076923077	
7.241153784860558	0.0	0.0	0.0	0.0	10.183828846153844	
7.251155378486056	0.0	0.0	0.0	0.0	11.692544230769233	
7.261156972111553	0.0	0.0	0.0	0.0	11.881133653846154	
7.271158565737051	0.0	0.0	0.0	0.0	12.35260721153846	
7.281160159362549	0.0	0.0	0.0	0.0	12.446901923076922	
7.291161752988047	0.0	0.0	0.0	0.0	11.315365384615383	
7.301163346613545	0.0	0.0	0.0	0.0	9.523765865384616	
7.311164940239043	0.0	0.0	0.0	0.0	9.052292307692309	
7.321166533864541	0.0	0.0	0.0	0.0	10.089534134615382	
7.331168127490039	0.0	0.0	0.0	0.0	10.938186538461538	
7.341169721115537	0.0	0.0	0.0	0.0	10.843891826923077	
7.351171314741035	0.0	0.0	0.0	0.0	12.069723076923077	
7.361172908366533	0.0	0.0	0.0	0.0	11.786838942307693	
7.371174501992031	0.0	0.0	0.0	0.0	10.843891826923077	
7.381176095617529	0.0	0.0	0.0	0.0	11.503954807692306	
7.391177689243027	0.0	0.0	0.0	0.0	11.881133653846154	
7.401179282868525	0.0	0.0	0.0	0.0	10.749597115384615	
7.411180876494023	0.0	0.0	0.0	0.0	10.466712980769232	
7.421182470119521	0.0	0.0	0.0	0.0	11.315365384615383	
7.431184063745019	0.0	0.0	0.0	0.0	11.786838942307693	
7.441185657370517	0.0	0.0	0.0	0.0	12.824080769230767	
7.451187250996015	0.0	0.0	0.0	0.0	13.201259615384616	
7.461188844621513	0.0	0.0	0.0	0.0	12.729786057692305	
7.471190438247011	0.0	0.0	0.0	0.0	9.995239423076923	
7.481192031872509	0.0	0.0	0.0	0.0	8.01505048076923	
7.491193625498007	0.0	0.0	0.0	0.0	10.466712980769232	
7.501195219123505	0.0	0.0	0.0	0.0	13.48414375	
7.511196812749003	0.0	0.0	0.0	0.0	14.427090865384615	
7.521198406374501	0.0	0.0	0.0	0.0	15.935806249999999	
7.531199999999999	0.0	0.0	0.0	0.0	16.59586923076923	
7.541201593625497	0.0	0.0	0.0	0.0	15.652922115384616	
7.551203187250995	0.0	0.0	0.0	0.0	16.501574519230765	
7.561204780876493	0.0	0.0	0.0	0.0	18.858942307692306	
7.571206374501991	0.0	0.0	0.0	0.0	21.12201538461538	
7.581207968127489	0.0	0.0	0.0	0.0	12.635491346153843	
7.591209561752987	0.0	0.0	0.0	0.0	17.444521634615384	
7.601211155378485	0.0	0.0	0.0	0.0	23.102204326923076	
7.611212749003983	0.0	0.0	0.0	0.0	17.633111057692304	
7.621214342629481	0.0	0.0	0.0	0.0	14.615680288461538	
7.631215936254979	0.0	0.0	0.0	0.0	14.615680288461538	
7.641217529880477	0.0	0.0	0.0	0.0	15.181448557692304	
7.651219123505975	0.0	0.0	0.0	0.0	15.652922115384616	
7.6612207171314735	0.0	0.0	0.0	0.0	16.218690384615382	
7.6712223107569715	0.0	0.0	0.0	0.0	12.541196634615384	
7.6812239043824695	0.0	0.0	0.0	0.0	9.80665	
7.6912254980079675	0.0	0.0	0.0	0.0	6.977808653846153	
7.7012270916334655	0.0	0.0	0.0	0.0	7.637871634615383	
7.7112286852589635	0.0	0.0	0.0	0.0	8.863702884615384	
7.721230278884462	0.0	0.0	0.0	0.0	8.203639903846152	
7.73123187250996	0.0	0.0	0.0	0.0	7.449282211538461	
7.741233466135458	0.0	0.0	0.0	0.0	6.412040384615383	
7.751235059760956	0.0	0.0	0.0	0.0	4.809030288461538	
7.761236653386454	0.0	0.0	0.0	0.0	2.2630730769230776	
7.771238247011952	0.0	0.0	0.0	0.0	1.1315365384615388	
7.78123984063745	0.0	0.0	0.0	0.0	2.923136057692308	
7.791241434262948	0.0	0.0	0.0	0.0	5.374798557692308	
7.801243027888446	0.0	0.0	0.0	0.0	3.9603778846153834	
7.811244621513944	0.0	0.0	0.0	0.0	5.846272115384616	
7.821246215139442	0.0	0.0	0.0	0.0	5.186209134615384	
7.83124780876494	0.0	0.0	0.0	0.0	4.620440865384616	
7.841249402390438	0.0	0.0	0.0	0.0	2.3573677884615387	
7.851250996015936	0.0	0.0	0.0	0.0	4.054672596153846	
7.861252589641434	0.0	0.0	0.0	0.0	3.394609615384616	
7.871254183266932	0.0	0.0	0.0	0.0	2.8288413461538466	
7.88125577689243	0.0	0.0	0.0	0.0	1.5087153846153836	
7.891257370517928	0.0	0.0	0.0	0.0	1.8858942307692306	
7.901258964143426	0.0	0.0	0.0	0.0	3.4889043269230773	
7.911260557768924	0.0	0.0	0.0	0.0	2.2630730769230776	
7.921262151394422	0.0	0.0	0.0	0.0	1.7915995192307692	
7.93126374501992	0.0	0.0	0.0	0.0	1.4144206730769224	
7.941265338645418	0.0	0.0	0.0	0.0	3.8660831730769223	
7.951266932270916	0.0	0.0	0.0	0.0	6.034861538461539	
7.961268525896414	0.0	0.0	0.0	0.0	6.129156249999999	
7.971270119521912	0.0	0.0	0.0	0.0	4.148967307692308	
7.98127171314741	0.0	0.0	0.0	0.0	8.297934615384616	
7.991273306772908	0.0	0.0	0.0	0.0	7.449282211538461	
8.001274900398405	0.0	0.0	0.0	0.0	7.260692788461538	
8.011276494023903	0.0	0.0	0.0	0.0	6.883513942307691	
8.021278087649401	0.0	0.0	0.0	0.0	9.24088173076923	
8.0312796812749	0.0	0.0	0.0	0.0	10.372418269230767	
8.041281274900397	0.0	0.0	0.0	0.0	8.486524038461539	
8.051282868525895	0.0	0.0	0.0	0.0	12.729786057692305	
8.061284462151393	0.0	0.0	0.0	0.0	14.992859134615383	
8.071286055776891	0.0	0.0	0.0	0.0	16.312985096153845	
8.08128764940239	0.0	0.0	0.0	0.0	14.992859134615383	
8.091289243027887	0.0	0.0	0.0	0.0	14.144206730769232	
8.101290836653385	0.0	0.0	0.0	0.0	15.464332692307693	
8.111292430278883	0.0	0.0	0.0	0.0	16.218690384615382	
8.121294023904381	0.0	0.0	0.0	0.0	19.141826442307693	
8.13129561752988	0.0	0.0	0.0	0.0	19.047531730769233	
8.141297211155377	0.0	0.0	0.0	0.0	16.59586923076923	
8.151298804780875	0.0	0.0	0.0	0.0	14.332796153846154	
8.161300398406373	0.0	0.0	0.0	0.0	13.48414375	
8.171301992031871	0.0	0.0	0.0	0.0	14.615680288461538	
8.18130358565737	0.0	0.0	0.0	0.0	15.370037980769231	
8.191305179282867	0.0	0.0	0.0	0.0	15.841511538461537	
8.201306772908366	0.0	0.0	0.0	0.0	16.407279807692305	
8.211308366533864	0.0	0.0	0.0	0.0	15.181448557692304	
8.221309960159362	0.0	0.0	0.0	0.0	17.161637499999998	
8.23131155378486	0.0	0.0	0.0	0.0	20.36765769230769	
8.241313147410358	0.0	0.0	0.0	0.0	14.332796153846154	
8.251314741035856	0.0	0.0	0.0	0.0	15.652922115384616	
8.261316334661354	0.0	0.0	0.0	0.0	19.70759471153846	
8.271317928286852	0.0	0.0	0.0	0.0	18.764647596153843	
8.28131952191235	0.0	0.0	0.0	0.0	16.69016394230769	
8.291321115537848	0.0	0.0	0.0	0.0	15.558627403846154	
8.301322709163346	0.0	0.0	0.0	0.0	17.633111057692304	
8.311324302788844	0.0	0.0	0.0	0.0	21.216310096153844	
8.321325896414342	0.0	0.0	0.0	0.0	22.442141346153843	
8.33132749003984	0.0	0.0	0.0	0.0	20.744836538461538	
8.341329083665338	0.0	0.0	0.0	0.0	19.6133	
8.351330677290836	0.0	0.0	0.0	0.0	19.330415865384616	
8.361332270916334	0.0	0.0	0.0	0.0	19.51900528846154	
8.371333864541832	0.0	0.0	0.0	0.0	18.57605817307692	
8.38133545816733	0.0	0.0	0.0	0.0	16.784458653846155	
8.391337051792828	0.0	0.0	0.0	0.0	13.48414375	
8.401338645418326	0.0	0.0	0.0	0.0	11.975428365384616	
8.411340239043824	0.0	0.0	0.0	0.0	10.561007692307694	
8.421341832669322	0.0	0.0	0.0	0.0	9.712355288461538	
8.43134342629482	0.0	0.0	0.0	0.0	7.920755769230769	
8.441345019920318	0.0	0.0	0.0	0.0	5.940566826923077	
8.451346613545816	0.0	0.0	0.0	0.0	4.903325	
8.461348207171314	0.0	0.0	0.0	0.0	3.394609615384616	
8.471349800796812	0.0	0.0	0.0	0.0	2.4516625	
8.48135139442231	0.0	0.0	0.0	0.0	1.0372418269230774	
8.491352988047808	0.0	0.0	0.0	0.0	-0.3771788461538459	
8.501354581673306	0.0	0.0	0.0	0.0	-1.8858942307692306	
8.511356175298804	0.0	0.0	0.0	0.0	-2.3573677884615387	
8.521357768924302	0.0	0.0	0.0	0.0	-1.320125961538461	
8.5313593625498	0.0	0.0	0.0	0.0	-0.5657682692307694	
8.541360956175298	0.0	0.0	0.0	0.0	-0.7543576923076918	
8.551362549800796	0.0	0.0	0.0	0.0	-0.6600629807692305	
8.561364143426294	0.0	0.0	0.0	0.0	-0.5657682692307694	
8.571365737051792	0.0	0.0	0.0	0.0	-0.7543576923076918	
8.58136733067729	0.0	0.0	0.0	0.0	-0.0942947115384612	
8.591368924302788	0.0	0.0	0.0	0.0	0.8486524038461529	
8.601370517928286	0.0	0.0	0.0	0.0	1.1315365384615388	
8.611372111553784	0.0	0.0	0.0	0.0	1.7915995192307692	
8.621373705179282	0.0	0.0	0.0	0.0	2.3573677884615387	
8.63137529880478	0.0	0.0	0.0	0.0	2.4516625	
8.641376892430278	0.0	0.0	0.0	0.0	2.1687783653846164	
8.651378486055776	0.0	0.0	0.0	0.0	1.1315365384615388	
8.661380079681274	0.0	0.0	0.0	0.0	1.9801889423076917	
8.671381673306772	0.0	0.0	0.0	0.0	4.148967307692308	
8.68138326693227	0.0	0.0	0.0	0.0	5.280503846153847	
8.691384860557768	0.0	0.0	0.0	0.0	6.034861538461539	
8.701386454183266	0.0	0.0	0.0	0.0	7.072103365384616	
8.711388047808764	0.0	0.0	0.0	0.0	7.260692788461538	
8.721389641434262	0.0	0.0	0.0	0.0	5.374798557692308	
8.73139123505976	0.0	0.0	0.0	0.0	6.223450961538461	
8.741392828685258	0.0	0.0	0.0	0.0	9.052292307692309	
8.751394422310756	0.0	0.0	0.0	0.0	11.975428365384616	
8.761396015936254	0.0	0.0	0.0	0.0	12.541196634615384	
8.771397609561753	0.0	0.0	0.0	0.0	12.541196634615384	
8.78139920318725	0.0	0.0	0.0	0.0	12.729786057692305	
8.791400796812749	0.0	0.0	0.0	0.0	13.389849038461538	
8.801402390438247	0.0	0.0	0.0	0.0	15.370037980769231	
8.811403984063745	0.0	0.0	0.0	0.0	18.38746875	
8.821405577689243	0.0	0.0	0.0	0.0	20.179068269230765	
8.83140717131474	0.0	0.0	0.0	0.0	20.839131249999998	
8.841408764940239	0.0	0.0	0.0	0.0	21.970667788461537	
8.851410358565737	0.0	0.0	0.0	0.0	23.007909615384616	
8.861411952191235	0.0	0.0	0.0	0.0	24.516624999999998	
8.871413545816733	0.0	0.0	0.0	0.0	24.988098557692304	
8.88141513944223	0.0	0.0	0.0	0.0	25.648161538461537	
8.891416733067729	0.0	0.0	0.0	0.0	27.34546634615384	
8.901418326693227	0.0	0.0	0.0	0.0	29.231360576923077	
8.911419920318725	0.0	0.0	0.0	0.0	30.551486538461532	
8.921421513944223	0.0	0.0	0.0	0.0	28.099824038461538	
8.93142310756972	0.0	0.0	0.0	0.0	24.139446153846155	
8.941424701195219	0.0	0.0	0.0	0.0	22.725025480769233	
8.951426294820717	0.0	0.0	0.0	0.0	23.762267307692305	
8.961427888446215	0.0	0.0	0.0	0.0	23.19649903846154	
8.971429482071713	0.0	0.0	0.0	0.0	18.293174038461537	
8.98143107569721	0.0	0.0	0.0	0.0	14.144206730769232	
8.991432669322709	0.0	0.0	0.0	0.0	11.692544230769233	
9.001434262948207	0.0	0.0	0.0	0.0	9.712355288461538	
9.011435856573705	0.0	0.0	0.0	0.0	7.732166346153846	
9.021437450199203	0.0	0.0	0.0	0.0	4.903325	
9.031439043824701	0.0	0.0	0.0	0.0	3.1117254807692305	
9.041440637450199	0.0	0.0	0.0	0.0	1.22583125	
9.051442231075697	0.0	0.0	0.0	0.0	-0.5657682692307694	
9.061443824701195	0.0	0.0	0.0	0.0	-1.6030100961538458	
9.071445418326693	0.0	0.0	0.0	0.0	-2.7345466346153846	
9.081447011952191	0.0	0.0	0.0	0.0	-2.3573677884615387	
9.091448605577689	0.0	0.0	0.0	0.0	-2.074483653846154	
9.101450199203187	0.0	0.0	0.0	0.0	-2.168778365384615	
9.111451792828685	0.0	0.0	0.0	0.0	-2.2630730769230762	
9.121453386454183	0.0	0.0	0.0	0.0	-2.2630730769230762	
9.131454980079681	0.0	0.0	0.0	0.0	-3.0174307692307694	
9.14145657370518	0.0	0.0	0.0	0.0	-2.545957211538461	
9.151458167330677	0.0	0.0	0.0	0.0	-1.8858942307692306	
9.161459760956175	0.0	0.0	0.0	0.0	-1.4144206730769233	
9.171461354581673	0.0	0.0	0.0	0.0	-1.8858942307692306	
9.181462948207171	0.0	0.0	0.0	0.0	-1.6030100961538458	
9.19146454183267	0.0	0.0	0.0	0.0	-0.47147355769230814	
9.201466135458167	0.0	0.0	0.0	0.0	0.37717884615384695	
9.211467729083665	0.0	0.0	0.0	0.0	2.545957211538461	
9.221469322709163	0.0	0.0	0.0	0.0	4.620440865384616	
9.231470916334661	0.0	0.0	0.0	0.0	6.7892192307692305	
9.24147250996016	0.0	0.0	0.0	0.0	8.67511346153846	
9.251474103585657	0.0	0.0	0.0	0.0	8.109345192307691	
9.261475697211155	0.0	0.0	0.0	0.0	12.446901923076922	
9.271477290836653	0.0	0.0	0.0	0.0	14.898564423076921	
9.281478884462151	0.0	0.0	0.0	0.0	17.25593221153846	
9.29148047808765	0.0	0.0	0.0	0.0	21.593488942307694	
9.301482071713147	0.0	0.0	0.0	0.0	24.516624999999998	
9.311483665338645	0.0	0.0	0.0	0.0	26.308224519230766	
9.321485258964143	0.0	0.0	0.0	0.0	28.005529326923075	
9.331486852589642	0.0	0.0	0.0	0.0	31.211549519230765	
9.34148844621514	0.0	0.0	0.0	0.0	32.81455961538461	
9.351490039840638	0.0	0.0	0.0	0.0	32.53167548076923	
9.361491633466136	0.0	0.0	0.0	0.0	31.58872836538461	
9.371493227091634	0.0	0.0	0.0	0.0	30.36289711538461	
9.381494820717132	0.0	0.0	0.0	0.0	28.194118749999998	
9.391496414342628	0.0	0.0	0.0	0.0	24.988098557692304	
9.401498007968126	0.0	0.0	0.0	0.0	21.49919423076923	
9.411499601593624	0.0	0.0	0.0	0.0	19.6133	
9.421501195219122	0.0	0.0	0.0	0.0	18.198879326923077	
9.43150278884462	0.0	0.0	0.0	0.0	15.747216826923077	
9.441504382470118	0.0	0.0	0.0	0.0	11.598249519230766	
9.451505976095616	0.0	0.0	0.0	0.0	7.543576923076922	
9.461507569721114	0.0	0.0	0.0	0.0	5.280503846153847	
9.471509163346612	0.0	0.0	0.0	0.0	3.8660831730769223	
9.48151075697211	0.0	0.0	0.0	0.0	2.3573677884615387	
9.491512350597608	0.0	0.0	0.0	0.0	0.1885894230769224	
9.501513944223106	0.0	0.0	0.0	0.0	-0.7543576923076918	
9.511515537848604	0.0	0.0	0.0	0.0	-1.9801889423076917	
9.521517131474102	0.0	0.0	0.0	0.0	-2.923136057692308	
9.5315187250996	0.0	0.0	0.0	0.0	-3.9603778846153843	
9.541520318725098	0.0	0.0	0.0	0.0	-4.7147355769230765	
9.551521912350596	0.0	0.0	0.0	0.0	-5.56338798076923	
9.561523505976094	0.0	0.0	0.0	0.0	-5.374798557692308	
9.571525099601592	0.0	0.0	0.0	0.0	-4.33755673076923	
9.58152669322709	0.0	0.0	0.0	0.0	-3.0174307692307694	
9.591528286852588	0.0	0.0	0.0	0.0	-2.545957211538461	
9.601529880478086	0.0	0.0	0.0	0.0	-1.6030100961538458	
9.611531474103584	0.0	0.0	0.0	0.0	0.0	
9.621533067729082	0.0	0.0	0.0	0.0	1.4144206730769224	
9.63153466135458	0.0	0.0	0.0	0.0	1.9801889423076917	
9.641536254980078	0.0	0.0	0.0	0.0	4.714735576923077	
9.651537848605576	0.0	0.0	0.0	0.0	8.957997596153847	
9.661539442231074	0.0	0.0	0.0	0.0	12.069723076923077	
9.671541035856572	0.0	0.0	0.0	0.0	16.59586923076923	
9.68154262948207	0.0	0.0	0.0	0.0	18.858942307692306	
9.691544223107568	0.0	0.0	0.0	0.0	22.442141346153843	
9.701545816733066	0.0	0.0	0.0	0.0	26.496813942307693	
9.711547410358564	0.0	0.0	0.0	0.0	28.28841346153846	
9.721549003984062	0.0	0.0	0.0	0.0	31.400138942307688	
9.73155059760956	0.0	0.0	0.0	0.0	33.28603317307692	
9.741552191235058	0.0	0.0	0.0	0.0	33.66321201923076	
9.751553784860556	0.0	0.0	0.0	0.0	32.437380769230764	
9.761555378486054	0.0	0.0	0.0	0.0	31.02296009615384	
9.771556972111552	0.0	0.0	0.0	0.0	28.85418173076923	
9.78155856573705	0.0	0.0	0.0	0.0	27.251171634615382	
9.791560159362549	0.0	0.0	0.0	0.0	25.553866826923077	
9.801561752988047	0.0	0.0	0.0	0.0	22.0649625	
9.811563346613545	0.0	0.0	0.0	0.0	19.330415865384616	
9.821564940239043	0.0	0.0	0.0	0.0	16.501574519230765	
9.83156653386454	0.0	0.0	0.0	0.0	13.767027884615382	
9.841568127490039	0.0	0.0	0.0	0.0	11.12677596153846	
9.851569721115537	0.0	0.0	0.0	0.0	7.637871634615383	
9.861571314741035	0.0	0.0	0.0	0.0	3.771788461538461	
9.871572908366533	0.0	0.0	0.0	0.0	1.603010096153847	
9.88157450199203	0.0	0.0	0.0	0.0	0.5657682692307694	
9.891576095617529	0.0	0.0	0.0	0.0	-0.7543576923076918	
9.901577689243027	0.0	0.0	0.0	0.0	-2.923136057692308	
9.911579282868525	0.0	0.0	0.0	0.0	-4.620440865384615	
9.921580876494023	0.0	0.0	0.0	0.0	-5.469093269230769	
9.93158247011952	0.0	0.0	0.0	0.0	-5.751977403846154	
9.941584063745019	0.0	0.0	0.0	0.0	-5.1862091346153845	
9.951585657370517	0.0	0.0	0.0	0.0	-5.469093269230769	
9.961587250996015	0.0	0.0	0.0	0.0	-4.997619711538461	
9.971588844621513	0.0	0.0	0.0	0.0	-4.148967307692308	
9.98159043824701	0.0	0.0	0.0	0.0	-3.300314903846154	
9.991592031872509	0.0	0.0	0.0	0.0	-2.8288413461538457	
10.001593625498007	0.0	0.0	0.0	0.0	-1.8858942307692306	
10.011595219123505	0.0	0.0	0.0	0.0	-0.9429471153846153	
10.021596812749003	0.0	0.0	0.0	0.0	1.8858942307692306	
10.031598406374501	0.0	0.0	0.0	0.0	3.67749375	
10.041599999999999	0.0	0.0	0.0	0.0	6.129156249999999	
10.051601593625497	0.0	0.0	0.0	0.0	6.412040384615383	
10.061603187250995	0.0	0.0	0.0	0.0	13.67273317307692	
10.071604780876493	0.0	0.0	0.0	0.0	16.218690384615382	
10.081606374501991	0.0	0.0	0.0	0.0	19.6133	
10.091607968127489	0.0	0.0	0.0	0.0	22.536436057692306	
10.101609561752987	0.0	0.0	0.0	0.0	26.308224519230766	
10.111611155378485	0.0	0.0	0.0	0.0	30.17430769230769	
10.121612749003983	0.0	0.0	0.0	0.0	32.248791346153844	
10.131614342629481	0.0	0.0	0.0	0.0	33.47462259615384	
10.14161593625498	0.0	0.0	0.0	0.0	34.04039086538461	
10.151617529880477	0.0	0.0	0.0	0.0	33.66321201923076	
10.161619123505975	0.0	0.0	0.0	0.0	31.58872836538461	
10.171620717131473	0.0	0.0	0.0	0.0	27.72264519230769	
10.181622310756971	0.0	0.0	0.0	0.0	25.17668798076923	
10.19162390438247	0.0	0.0	0.0	0.0	22.819320192307693	
10.201625498007967	0.0	0.0	0.0	0.0	20.179068269230765	
10.211627091633465	0.0	0.0	0.0	0.0	17.25593221153846	
10.221628685258963	0.0	0.0	0.0	0.0	14.332796153846154	
10.231630278884461	0.0	0.0	0.0	0.0	11.975428365384616	
10.24163187250996	0.0	0.0	0.0	0.0	9.80665	
10.251633466135457	0.0	0.0	0.0	0.0	6.7892192307692305	
10.261635059760955	0.0	0.0	0.0	0.0	4.148967307692308	
10.271636653386453	0.0	0.0	0.0	0.0	1.603010096153847	
10.281638247011951	0.0	0.0	0.0	0.0	0.47147355769230814	
10.29163984063745	0.0	0.0	0.0	0.0	-0.848652403846154	
10.301641434262947	0.0	0.0	0.0	0.0	-1.4144206730769233	
10.311643027888445	0.0	0.0	0.0	0.0	-2.2630730769230762	
10.321644621513943	0.0	0.0	0.0	0.0	-3.300314903846154	
10.331646215139441	0.0	0.0	0.0	0.0	-3.300314903846154	
10.34164780876494	0.0	0.0	0.0	0.0	-3.1117254807692305	
10.351649402390438	0.0	0.0	0.0	0.0	-3.67749375	
10.361650996015936	0.0	0.0	0.0	0.0	-3.866083173076923	
10.371652589641434	0.0	0.0	0.0	0.0	-4.0546725961538455	
10.381654183266932	0.0	0.0	0.0	0.0	-3.0174307692307694	
10.39165577689243	0.0	0.0	0.0	0.0	-2.2630730769230762	
10.401657370517928	0.0	0.0	0.0	0.0	-1.22583125	
10.411658964143426	0.0	0.0	0.0	0.0	-0.47147355769230814	
10.421660557768924	0.0	0.0	0.0	0.0	0.37717884615384695	
10.431662151394422	0.0	0.0	0.0	0.0	2.074483653846153	
10.44166374501992	0.0	0.0	0.0	0.0	4.714735576923077	
10.451665338645418	0.0	0.0	0.0	0.0	7.920755769230769	
10.461666932270916	0.0	0.0	0.0	0.0	9.429471153846153	
10.471668525896414	0.0	0.0	0.0	0.0	13.955617307692306	
10.481670119521912	0.0	0.0	0.0	0.0	17.915995192307694	
10.49167171314741	0.0	0.0	0.0	0.0	21.687783653846154	
10.501673306772908	0.0	0.0	0.0	0.0	24.61091971153846	
10.511674900398406	0.0	0.0	0.0	0.0	27.34546634615384	
10.521676494023904	0.0	0.0	0.0	0.0	30.08001298076923	
10.531678087649402	0.0	0.0	0.0	0.0	31.11725480769231	
10.5416796812749	0.0	0.0	0.0	0.0	32.34308605769231	
10.551681274900398	0.0	0.0	0.0	0.0	33.00314903846153	
10.561682868525896	0.0	0.0	0.0	0.0	31.494433653846155	
10.571684462151394	0.0	0.0	0.0	0.0	28.571297596153844	
10.581686055776892	0.0	0.0	0.0	0.0	26.496813942307693	
10.59168764940239	0.0	0.0	0.0	0.0	22.0649625	
10.601689243027888	0.0	0.0	0.0	0.0	21.404899519230767	
10.611690836653386	0.0	0.0	0.0	0.0	19.236121153846153	
10.621692430278884	0.0	0.0	0.0	0.0	17.25593221153846	
10.631694023904382	0.0	0.0	0.0	0.0	13.767027884615382	
10.64169561752988	0.0	0.0	0.0	0.0	10.938186538461538	
10.651697211155378	0.0	0.0	0.0	0.0	8.203639903846152	
10.661698804780876	0.0	0.0	0.0	0.0	6.223450961538461	
10.671700398406374	0.0	0.0	0.0	0.0	3.394609615384616	
10.681701992031872	0.0	0.0	0.0	0.0	1.5087153846153836	
10.69170358565737	0.0	0.0	0.0	0.0	1.0372418269230774	
10.701705179282868	0.0	0.0	0.0	0.0	0.0	
10.711706772908366	0.0	0.0	0.0	0.0	-0.9429471153846153	
10.721708366533864	0.0	0.0	0.0	0.0	-1.6030100961538458	
10.731709960159362	0.0	0.0	0.0	0.0	-2.923136057692308	
10.74171155378486	0.0	0.0	0.0	0.0	-2.6402519230769235	
10.751713147410358	0.0	0.0	0.0	0.0	-2.2630730769230762	
10.761714741035856	0.0	0.0	0.0	0.0	-2.2630730769230762	
10.771716334661354	0.0	0.0	0.0	0.0	-2.7345466346153846	
10.781717928286852	0.0	0.0	0.0	0.0	-2.923136057692308	
10.79171952191235	0.0	0.0	0.0	0.0	-1.7915995192307692	
10.801721115537848	0.0	0.0	0.0	0.0	-0.5657682692307694	
10.811722709163346	0.0	0.0	0.0	0.0	0.6600629807692305	
10.821724302788844	0.0	0.0	0.0	0.0	1.0372418269230774	
10.831725896414342	0.0	0.0	0.0	0.0	2.923136057692308	
10.84172749003984	0.0	0.0	0.0	0.0	6.034861538461539	
10.851729083665338	0.0	0.0	0.0	0.0	9.052292307692309	
10.861730677290836	0.0	0.0	0.0	0.0	11.409660096153845	
10.871732270916334	0.0	0.0	0.0	0.0	14.709975	
10.881733864541832	0.0	0.0	0.0	0.0	18.010289903846154	
10.89173545816733	0.0	0.0	0.0	0.0	20.179068269230765	
10.901737051792828	0.0	0.0	0.0	0.0	22.819320192307693	
10.911738645418326	0.0	0.0	0.0	0.0	25.93104567307692	
10.921740239043825	0.0	0.0	0.0	0.0	28.759887019230767	
10.931741832669323	0.0	0.0	0.0	0.0	31.965907211538465	
10.94174342629482	0.0	0.0	0.0	0.0	34.04039086538461	
10.951745019920319	0.0	0.0	0.0	0.0	33.946096153846156	
10.961746613545817	0.0	0.0	0.0	0.0	26.213929807692306	
10.971748207171315	0.0	0.0	0.0	0.0	32.72026490384615	
10.981749800796813	0.0	0.0	0.0	0.0	25.83675096153846	
10.99175139442231	0.0	0.0	0.0	0.0	20.461952403846155	
11.001752988047809	0.0	0.0	0.0	0.0	16.501574519230765	
11.011754581673307	0.0	0.0	0.0	0.0	17.633111057692304	
11.021756175298805	0.0	0.0	0.0	0.0	14.332796153846154	
11.031757768924303	0.0	0.0	0.0	0.0	11.12677596153846	
11.0417593625498	0.0	0.0	0.0	0.0	8.203639903846152	
11.051760956175299	0.0	0.0	0.0	0.0	5.374798557692308	
11.061762549800797	0.0	0.0	0.0	0.0	2.923136057692308	
11.071764143426295	0.0	0.0	0.0	0.0	1.7915995192307692	
11.081765737051793	0.0	0.0	0.0	0.0	0.2828841346153836	
11.09176733067729	0.0	0.0	0.0	0.0	-1.0372418269230765	
11.101768924302787	0.0	0.0	0.0	0.0	-2.168778365384615	
11.111770517928285	0.0	0.0	0.0	0.0	-2.4516625	
11.121772111553783	0.0	0.0	0.0	0.0	-2.6402519230769235	
11.131773705179281	0.0	0.0	0.0	0.0	-3.0174307692307694	
11.14177529880478	0.0	0.0	0.0	0.0	-2.923136057692308	
11.151776892430277	0.0	0.0	0.0	0.0	-3.0174307692307694	
11.161778486055775	0.0	0.0	0.0	0.0	-2.3573677884615387	
11.171780079681273	0.0	0.0	0.0	0.0	-1.1315365384615388	
11.181781673306771	0.0	0.0	0.0	0.0	0.2828841346153836	
11.19178326693227	0.0	0.0	0.0	0.0	0.9429471153846163	
11.201784860557767	0.0	0.0	0.0	0.0	1.8858942307692306	
11.211786454183265	0.0	0.0	0.0	0.0	4.5261461538461525	
11.221788047808763	0.0	0.0	0.0	0.0	7.260692788461538	
11.231789641434261	0.0	0.0	0.0	0.0	9.80665	
11.24179123505976	0.0	0.0	0.0	0.0	10.089534134615382	
11.251792828685257	0.0	0.0	0.0	0.0	17.25593221153846	
11.261794422310755	0.0	0.0	0.0	0.0	22.15925721153846	
11.271796015936253	0.0	0.0	0.0	0.0	24.139446153846155	
11.281797609561751	0.0	0.0	0.0	0.0	26.025340384615383	
11.29179920318725	0.0	0.0	0.0	0.0	28.194118749999998	
11.301800796812747	0.0	0.0	0.0	0.0	29.41995	
11.311802390438245	0.0	0.0	0.0	0.0	30.268602403846153	
11.321803984063743	0.0	0.0	0.0	0.0	29.985718269230766	
11.331805577689241	0.0	0.0	0.0	0.0	28.759887019230767	
11.34180717131474	0.0	0.0	0.0	0.0	26.402519230769233	
11.351808764940237	0.0	0.0	0.0	0.0	23.573677884615382	
11.361810358565736	0.0	0.0	0.0	0.0	21.404899519230767	
11.371811952191234	0.0	0.0	0.0	0.0	19.047531730769233	
11.381813545816732	0.0	0.0	0.0	0.0	17.067342788461538	
11.39181513944223	0.0	0.0	0.0	0.0	15.087153846153845	
11.401816733067728	0.0	0.0	0.0	0.0	12.069723076923077	
11.411818326693226	0.0	0.0	0.0	0.0	8.957997596153847	
11.421819920318724	0.0	0.0	0.0	0.0	6.977808653846153	
11.431821513944222	0.0	0.0	0.0	0.0	4.5261461538461525	
11.44182310756972	0.0	0.0	0.0	0.0	2.8288413461538466	
11.451824701195218	0.0	0.0	0.0	0.0	1.697304807692308	
11.461826294820716	0.0	0.0	0.0	0.0	0.9429471153846163	
11.471827888446214	0.0	0.0	0.0	0.0	-0.18858942307692347	
11.481829482071712	0.0	0.0	0.0	0.0	-1.22583125	
11.49183107569721	0.0	0.0	0.0	0.0	-1.7915995192307692	
11.501832669322708	0.0	0.0	0.0	0.0	-1.7915995192307692	
11.511834262948206	0.0	0.0	0.0	0.0	-1.8858942307692306	
11.521835856573704	0.0	0.0	0.0	0.0	-2.4516625	
11.531837450199202	0.0	0.0	0.0	0.0	-2.7345466346153846	
11.5418390438247	0.0	0.0	0.0	0.0	-1.6030100961538458	
11.551840637450198	0.0	0.0	0.0	0.0	-1.22583125	
11.561842231075696	0.0	0.0	0.0	0.0	0.37717884615384695	
11.571843824701194	0.0	0.0	0.0	0.0	2.074483653846153	
11.581845418326692	0.0	0.0	0.0	0.0	2.545957211538461	
11.59184701195219	0.0	0.0	0.0	0.0	3.8660831730769223	
11.601848605577688	0.0	0.0	0.0	0.0	6.600629807692308	
11.611850199203186	0.0	0.0	0.0	0.0	9.712355288461538	
11.621851792828684	0.0	0.0	0.0	0.0	12.35260721153846	
11.631853386454182	0.0	0.0	0.0	0.0	17.444521634615384	
11.64185498007968	0.0	0.0	0.0	0.0	20.839131249999998	
11.651856573705178	0.0	0.0	0.0	0.0	22.0649625	
11.661858167330676	0.0	0.0	0.0	0.0	24.04515144230769	
11.671859760956174	0.0	0.0	0.0	0.0	27.34546634615384	
11.681861354581672	0.0	0.0	0.0	0.0	29.60853942307692	
11.69186294820717	0.0	0.0	0.0	0.0	30.457191826923076	
11.701864541832668	0.0	0.0	0.0	0.0	31.211549519230765	
11.711866135458166	0.0	0.0	0.0	0.0	29.231360576923077	
11.721867729083664	0.0	0.0	0.0	0.0	27.06258221153846	
11.731869322709162	0.0	0.0	0.0	0.0	23.38508846153846	
11.74187091633466	0.0	0.0	0.0	0.0	20.93342596153846	
11.751872509960158	0.0	0.0	0.0	0.0	18.48176346153846	
11.761874103585656	0.0	0.0	0.0	0.0	15.747216826923077	
11.771875697211154	0.0	0.0	0.0	0.0	12.918375480769232	
11.781877290836652	0.0	0.0	0.0	0.0	10.466712980769232	
11.79187888446215	0.0	0.0	0.0	0.0	8.486524038461539	
11.801880478087648	0.0	0.0	0.0	0.0	6.7892192307692305	
11.811882071713146	0.0	0.0	0.0	0.0	4.431851442307692	
11.821883665338644	0.0	0.0	0.0	0.0	2.2630730769230776	
11.831885258964142	0.0	0.0	0.0	0.0	1.320125961538461	
11.84188685258964	0.0	0.0	0.0	0.0	0.5657682692307694	
11.851888446215138	0.0	0.0	0.0	0.0	0.2828841346153836	
11.861890039840636	0.0	0.0	0.0	0.0	-0.5657682692307694	
11.871891633466134	0.0	0.0	0.0	0.0	-1.22583125	
11.881893227091632	0.0	0.0	0.0	0.0	-1.0372418269230765	
11.89189482071713	0.0	0.0	0.0	0.0	-1.22583125	
11.901896414342628	0.0	0.0	0.0	0.0	-1.1315365384615388	
11.911898007968126	0.0	0.0	0.0	0.0	-1.0372418269230765	
11.921899601593624	0.0	0.0	0.0	0.0	-0.848652403846154	
11.931901195219123	0.0	0.0	0.0	0.0	0.0942947115384612	
11.94190278884462	0.0	0.0	0.0	0.0	2.2630730769230776	
11.951904382470119	0.0	0.0	0.0	0.0	4.148967307692308	
11.961905976095617	0.0	0.0	0.0	0.0	5.846272115384616	
11.971907569721115	0.0	0.0	0.0	0.0	8.297934615384616	
11.981909163346613	0.0	0.0	0.0	0.0	9.712355288461538	
11.99191075697211	0.0	0.0	0.0	0.0	13.201259615384616	
12.001912350597609	0.0	0.0	0.0	0.0	16.124395673076922	
12.011913944223107	0.0	0.0	0.0	0.0	18.48176346153846	
12.021915537848605	0.0	0.0	0.0	0.0	20.27336298076923	
12.031917131474103	0.0	0.0	0.0	0.0	22.25355192307692	
12.0419187250996	0.0	0.0	0.0	0.0	23.38508846153846	
12.051920318725099	0.0	0.0	0.0	0.0	25.365277403846154	
12.061921912350597	0.0	0.0	0.0	0.0	26.779698076923076	
12.071923505976095	0.0	0.0	0.0	0.0	26.685403365384616	
12.081925099601593	0.0	0.0	0.0	0.0	26.685403365384616	
12.09192669322709	0.0	0.0	0.0	0.0	25.74245625	
12.101928286852589	0.0	0.0	0.0	0.0	24.61091971153846	
12.111929880478087	0.0	0.0	0.0	0.0	23.19649903846154	
12.121931474103585	0.0	0.0	0.0	0.0	21.876373076923077	
12.131933067729083	0.0	0.0	0.0	0.0	20.084773557692305	
12.14193466135458	0.0	0.0	0.0	0.0	19.801889423076922	
12.151936254980079	0.0	0.0	0.0	0.0	19.896184134615382	
12.161937848605577	0.0	0.0	0.0	0.0	18.38746875	
12.171939442231075	0.0	0.0	0.0	0.0	16.312985096153845	
12.181941035856573	0.0	0.0	0.0	0.0	15.275743269230766	
12.191942629482071	0.0	0.0	0.0	0.0	13.201259615384616	
12.201944223107569	0.0	0.0	0.0	0.0	12.446901923076922	
12.211945816733067	0.0	0.0	0.0	0.0	9.618060576923076	
12.221947410358565	0.0	0.0	0.0	0.0	9.24088173076923	
12.231949003984063	0.0	0.0	0.0	0.0	6.883513942307691	
12.241950597609561	0.0	0.0	0.0	0.0	4.714735576923077	
12.251952191235059	0.0	0.0	0.0	0.0	3.1117254807692305	
12.261953784860557	0.0	0.0	0.0	0.0	3.0174307692307694	
12.271955378486055	0.0	0.0	0.0	0.0	2.640251923076922	
12.281956972111553	0.0	0.0	0.0	0.0	2.074483653846153	
12.291958565737051	0.0	0.0	0.0	0.0	0.7543576923076918	
12.30196015936255	0.0	0.0	0.0	0.0	0.0	
12.311961752988047	0.0	0.0	0.0	0.0	-1.22583125	
12.321963346613545	0.0	0.0	0.0	0.0	-1.0372418269230765	
12.331964940239043	0.0	0.0	0.0	0.0	-1.1315365384615388	
12.341966533864541	0.0	0.0	0.0	0.0	-1.0372418269230765	
12.35196812749004	0.0	0.0	0.0	0.0	-1.5087153846153847	
12.361969721115537	0.0	0.0	0.0	0.0	-2.074483653846154	
12.371971314741035	0.0	0.0	0.0	0.0	-2.923136057692308	
12.381972908366533	0.0	0.0	0.0	0.0	-1.6030100961538458	
12.391974501992031	0.0	0.0	0.0	0.0	-0.7543576923076918	
12.40197609561753	0.0	0.0	0.0	0.0	0.1885894230769224	
12.411977689243027	0.0	0.0	0.0	0.0	0.6600629807692305	
12.421979282868525	0.0	0.0	0.0	0.0	1.4144206730769224	
12.431980876494023	0.0	0.0	0.0	0.0	1.8858942307692306	
12.441982470119521	0.0	0.0	0.0	0.0	2.074483653846153	
12.45198406374502	0.0	0.0	0.0	0.0	1.7915995192307692	
12.461985657370517	0.0	0.0	0.0	0.0	3.771788461538461	
12.471987250996015	0.0	0.0	0.0	0.0	6.694924519230769	
12.481988844621513	0.0	0.0	0.0	0.0	8.957997596153847	
12.491990438247011	0.0	0.0	0.0	0.0	11.315365384615383	
12.50199203187251	0.0	0.0	0.0	0.0	10.749597115384615	
12.511993625498008	0.0	0.0	0.0	0.0	10.372418269230767	
12.521995219123506	0.0	0.0	0.0	0.0	12.069723076923077	
12.531996812749004	0.0	0.0	0.0	0.0	14.80426971153846	
12.541998406374502	0.0	0.0	0.0	0.0	15.747216826923077	
12.552	0.0	0.0	0.0	0.0	16.312985096153845	
12.562001593625498	0.0	0.0	0.0	0.0	16.407279807692305	
12.572003187250996	0.0	0.0	0.0	0.0	16.501574519230765	
12.582004780876494	0.0	0.0	0.0	0.0	17.727405769230767	
12.592006374501992	0.0	0.0	0.0	0.0	16.784458653846155	
12.60200796812749	0.0	0.0	0.0	0.0	14.049912019230767	
12.612009561752988	0.0	0.0	0.0	0.0	14.709975	
12.622011155378486	0.0	0.0	0.0	0.0	18.104584615384617	
12.632012749003984	0.0	0.0	0.0	0.0	18.38746875	
12.642014342629482	0.0	0.0	0.0	0.0	17.727405769230767	
12.65201593625498	0.0	0.0	0.0	0.0	16.501574519230765	
12.662017529880478	0.0	0.0	0.0	0.0	13.955617307692306	
12.672019123505976	0.0	0.0	0.0	0.0	13.861322596153844	
12.682020717131474	0.0	0.0	0.0	0.0	13.955617307692306	
12.692022310756972	0.0	0.0	0.0	0.0	13.012670192307693	
12.70202390438247	0.0	0.0	0.0	0.0	13.861322596153844	
12.712025498007968	0.0	0.0	0.0	0.0	12.069723076923077	
12.722027091633466	0.0	0.0	0.0	0.0	11.409660096153845	
12.732028685258964	0.0	0.0	0.0	0.0	11.598249519230766	
12.742030278884462	0.0	0.0	0.0	0.0	11.503954807692306	
12.75203187250996	0.0	0.0	0.0	0.0	11.503954807692306	
12.762033466135458	0.0	0.0	0.0	0.0	11.03248125	
12.772035059760956	0.0	0.0	0.0	0.0	11.786838942307693	
12.782036653386454	0.0	0.0	0.0	0.0	11.786838942307693	
12.792038247011952	0.0	0.0	0.0	0.0	11.315365384615383	
12.802039840637448	0.0	0.0	0.0	0.0	10.749597115384615	
12.812041434262946	0.0	0.0	0.0	0.0	11.03248125	
12.822043027888444	0.0	0.0	0.0	0.0	13.201259615384616	
12.832044621513942	0.0	0.0	0.0	0.0	12.258312499999999	
12.84204621513944	0.0	0.0	0.0	0.0	10.938186538461538	
12.852047808764938	0.0	0.0	0.0	0.0	9.900944711538461	
12.862049402390436	0.0	0.0	0.0	0.0	10.183828846153844	
12.872050996015934	0.0	0.0	0.0	0.0	10.938186538461538	
12.882052589641432	0.0	0.0	0.0	0.0	10.749597115384615	
12.89205418326693	0.0	0.0	0.0	0.0	12.729786057692305	
12.902055776892428	0.0	0.0	0.0	0.0	10.938186538461538	
12.912057370517926	0.0	0.0	0.0	0.0	9.80665	
12.922058964143424	0.0	0.0	0.0	0.0	8.957997596153847	
12.932060557768922	0.0	0.0	0.0	0.0	11.03248125	
12.94206215139442	0.0	0.0	0.0	0.0	11.786838942307693	
12.952063745019919	0.0	0.0	0.0	0.0	11.12677596153846	
12.962065338645417	0.0	0.0	0.0	0.0	11.692544230769233	
12.972066932270915	0.0	0.0	0.0	0.0	12.446901923076922	
12.982068525896413	0.0	0.0	0.0	0.0	11.221070673076921	
12.99207011952191	0.0	0.0	0.0	0.0	14.238501442307694	
13.002071713147409	0.0	0.0	0.0	0.0	9.618060576923076	
13.012073306772907	0.0	0.0	0.0	0.0	12.635491346153843	
13.022074900398405	0.0	0.0	0.0	0.0	10.749597115384615	
13.032076494023903	0.0	0.0	0.0	0.0	11.503954807692306	
13.0420780876494	0.0	0.0	0.0	0.0	12.164017788461537	
13.052079681274899	0.0	0.0	0.0	0.0	12.069723076923077	
13.062081274900397	0.0	0.0	0.0	0.0	10.372418269230767	
13.072082868525895	0.0	0.0	0.0	0.0	10.749597115384615	
13.082084462151393	0.0	0.0	0.0	0.0	10.372418269230767	
13.09208605577689	0.0	0.0	0.0	0.0	10.938186538461538	
13.102087649402389	0.0	0.0	0.0	0.0	11.221070673076921	
13.112089243027887	0.0	0.0	0.0	0.0	11.221070673076921	
13.122090836653385	0.0	0.0	0.0	0.0	11.12677596153846	
13.132092430278883	0.0	0.0	0.0	0.0	10.843891826923077	
13.14209402390438	0.0	0.0	0.0	0.0	11.598249519230766	
13.152095617529879	0.0	0.0	0.0	0.0	12.069723076923077	
13.162097211155377	0.0	0.0	0.0	0.0	11.598249519230766	
13.172098804780875	0.0	0.0	0.0	0.0	10.561007692307694	
13.182100398406373	0.0	0.0	0.0	0.0	10.183828846153844	
13.192101992031871	0.0	0.0	0.0	0.0	10.561007692307694	
13.202103585657369	0.0	0.0	0.0	0.0	11.315365384615383	
13.212105179282867	0.0	0.0	0.0	0.0	11.409660096153845	
13.222106772908365	0.0	0.0	0.0	0.0	10.938186538461538	
13.232108366533863	0.0	0.0	0.0	0.0	9.995239423076923	
13.242109960159361	0.0	0.0	0.0	0.0	6.129156249999999	
13.252111553784859	0.0	0.0	0.0	0.0	11.692544230769233	
13.262113147410357	0.0	0.0	0.0	0.0	10.089534134615382	
13.272114741035855	0.0	0.0	0.0	0.0	12.069723076923077	
13.282116334661353	0.0	0.0	0.0	0.0	12.446901923076922	
13.292117928286851	0.0	0.0	0.0	0.0	9.900944711538461	
13.30211952191235	0.0	0.0	0.0	0.0	9.900944711538461	
13.312121115537847	0.0	0.0	0.0	0.0	10.749597115384615	
13.322122709163345	0.0	0.0	0.0	0.0	11.503954807692306	
13.332124302788843	0.0	0.0	0.0	0.0	10.938186538461538	
13.342125896414341	0.0	0.0	0.0	0.0	10.089534134615382	
13.35212749003984	0.0	0.0	0.0	0.0	10.278123557692306	
13.362129083665337	0.0	0.0	0.0	0.0	9.052292307692309	
13.372130677290835	0.0	0.0	0.0	0.0	11.975428365384616	
13.382132270916333	0.0	0.0	0.0	0.0	11.315365384615383	
13.392133864541831	0.0	0.0	0.0	0.0	11.975428365384616	
13.40213545816733	0.0	0.0	0.0	0.0	16.407279807692305	
13.412137051792827	0.0	0.0	0.0	0.0	9.429471153846153	
13.422138645418325	0.0	0.0	0.0	0.0	11.221070673076921	
13.432140239043823	0.0	0.0	0.0	0.0	12.824080769230767	
13.442141832669321	0.0	0.0	0.0	0.0	13.48414375	
13.45214342629482	0.0	0.0	0.0	0.0	13.955617307692306	
13.462145019920317	0.0	0.0	0.0	0.0	10.938186538461538	
13.472146613545815	0.0	0.0	0.0	0.0	11.975428365384616	
13.482148207171313	0.0	0.0	0.0	0.0	11.786838942307693	
13.492149800796811	0.0	0.0	0.0	0.0	11.598249519230766	
13.50215139442231	0.0	0.0	0.0	0.0	11.221070673076921	
13.512152988047808	0.0	0.0	0.0	0.0	10.938186538461538	
13.522154581673306	0.0	0.0	0.0	0.0	11.12677596153846	
13.532156175298804	0.0	0.0	0.0	0.0	11.03248125	
13.542157768924302	0.0	0.0	0.0	0.0	11.503954807692306	
13.5521593625498	0.0	0.0	0.0	0.0	11.315365384615383	
13.562160956175298	0.0	0.0	0.0	0.0	10.938186538461538	
13.572162549800796	0.0	0.0	0.0	0.0	10.938186538461538	
13.582164143426294	0.0	0.0	0.0	0.0	11.315365384615383	
13.592165737051792	0.0	0.0	0.0	0.0	11.12677596153846	
13.60216733067729	0.0	0.0	0.0	0.0	11.12677596153846	
13.612168924302788	0.0	0.0	0.0	0.0	10.938186538461538	
13.622170517928286	0.0	0.0	0.0	0.0	10.938186538461538	
13.632172111553784	0.0	0.0	0.0	0.0	11.12677596153846	
13.642173705179282	0.0	0.0	0.0	0.0	11.409660096153845	
13.65217529880478	0.0	0.0	0.0	0.0	11.12677596153846	
13.662176892430278	0.0	0.0	0.0	0.0	11.315365384615383	
13.672178486055776	0.0	0.0	0.0	0.0	11.315365384615383	
13.682180079681274	0.0	0.0	0.0	0.0	11.503954807692306	
13.692181673306772	0.0	0.0	0.0	0.0	11.221070673076921	
13.70218326693227	0.0	0.0	0.0	0.0	11.503954807692306	
13.712184860557768	0.0	0.0	0.0	0.0	11.221070673076921	
13.722186454183266	0.0	0.0	0.0	0.0	11.221070673076921	
13.732188047808764	0.0	0.0	0.0	0.0	11.315365384615383	
13.742189641434262	0.0	0.0	0.0	0.0	11.315365384615383	
13.75219123505976	0.0	0.0	0.0	0.0	11.315365384615383	
13.762192828685258	0.0	0.0	0.0	0.0	11.503954807692306	
13.772194422310756	0.0	0.0	0.0	0.0	11.221070673076921	
13.782196015936254	0.0	0.0	0.0	0.0	11.12677596153846	
13.792197609561752	0.0	0.0	0.0	0.0	11.12677596153846	
13.80219920318725	0.0	0.0	0.0	0.0	10.938186538461538	
13.812200796812748	0.0	0.0	0.0	0.0	11.03248125	
13.822202390438246	0.0	0.0	0.0	0.0	11.03248125	
13.832203984063744	0.0	0.0	0.0	0.0	11.503954807692306	
13.842205577689242	0.0	0.0	0.0	0.0	11.12677596153846	
13.85220717131474	0.0	0.0	0.0	0.0	10.938186538461538	
13.862208764940238	0.0	0.0	0.0	0.0	11.12677596153846	
13.872210358565736	0.0	0.0	0.0	0.0	11.12677596153846	
13.882211952191234	0.0	0.0	0.0	0.0	11.598249519230766	
13.892213545816732	0.0	0.0	0.0	0.0	11.12677596153846	
13.90221513944223	0.0	0.0	0.0	0.0	11.409660096153845	
13.912216733067728	0.0	0.0	0.0	0.0	10.843891826923077	
13.922218326693226	0.0	0.0	0.0	0.0	0.6600629807692305	
13.932219920318724	0.0	0.0	0.0	0.0	1.0372418269230774	
13.942221513944222	0.0	0.0	0.0	0.0	-3.300314903846154	
13.95222310756972	0.0	0.0	0.0	0.0	12.824080769230767	
13.962224701195218	0.0	0.0	0.0	0.0	12.069723076923077	
13.972226294820716	0.0	0.0	0.0	0.0	-11.69254423076923	
13.982227888446214	0.0	0.0	0.0	0.0	-4.526146153846154	
13.992229482071712	0.0	0.0	0.0	0.0	12.541196634615384	
14.00223107569721	0.0	0.0	0.0	0.0	-9.146587019230768	
14.012232669322708	0.0	0.0	0.0	0.0	-0.47147355769230814	
14.022234262948206	0.0	0.0	0.0	0.0	-11.221070673076921	
14.032235856573704	0.0	0.0	0.0	0.0	-14.709975	
14.042237450199202	0.0	0.0	0.0	0.0	0.37717884615384695	
14.0522390438247	0.0	0.0	0.0	0.0	17.444521634615384	
14.062240637450198	0.0	0.0	0.0	0.0	-10.56100769230769	
14.072242231075696	0.0	0.0	0.0	0.0	-4.903325	
14.082243824701195	0.0	0.0	0.0	0.0	12.164017788461537	
14.092245418326693	0.0	0.0	0.0	0.0	12.541196634615384	
14.10224701195219	0.0	0.0	0.0	0.0	-4.0546725961538455	
14.112248605577689	0.0	0.0	0.0	0.0	-1.8858942307692306	
14.122250199203187	0.0	0.0	0.0	0.0	8.109345192307691	
14.132251792828685	0.0	0.0	0.0	0.0	5.6576826923076915	
14.142253386454183	0.0	0.0	0.0	0.0	3.771788461538461	
14.15225498007968	0.0	0.0	0.0	0.0	22.15925721153846	
14.162256573705179	0.0	0.0	0.0	0.0	17.82170048076923	
14.172258167330677	0.0	0.0	0.0	0.0	2.545957211538461	
14.182259760956175	0.0	0.0	0.0	0.0	7.166398076923077	
14.192261354581673	0.0	0.0	0.0	0.0	9.712355288461538	
14.20226294820717	0.0	0.0	0.0	0.0	17.35022692307692	
14.212264541832669	0.0	0.0	0.0	0.0	10.655302403846154	
14.222266135458167	0.0	0.0	0.0	0.0	11.12677596153846	
14.232267729083665	0.0	0.0	0.0	0.0	10.938186538461538	
14.242269322709163	0.0	0.0	0.0	0.0	11.503954807692306	
14.25227091633466	0.0	0.0	0.0	0.0	11.221070673076921	
14.262272509960159	0.0	0.0	0.0	0.0	11.12677596153846	
14.272274103585657	0.0	0.0	0.0	0.0	13.106964903846155	
14.282275697211155	0.0	0.0	0.0	0.0	10.749597115384615	
14.292277290836653	0.0	0.0	0.0	0.0	11.12677596153846	
14.302278884462151	0.0	0.0	0.0	0.0	10.561007692307694	
14.312280478087649	0.0	0.0	0.0	0.0	11.786838942307693	
14.322282071713147	0.0	0.0	0.0	0.0	11.598249519230766	
14.332283665338645	0.0	0.0	0.0	0.0	11.221070673076921	
14.342285258964143	0.0	0.0	0.0	0.0	11.975428365384616	
14.352286852589641	0.0	0.0	0.0	0.0	11.03248125	
14.362288446215139	0.0	0.0	0.0	0.0	11.221070673076921	
14.372290039840637	0.0	0.0	0.0	0.0	10.655302403846154	
14.382291633466135	0.0	0.0	0.0	0.0	11.598249519230766	
14.392293227091633	0.0	0.0	0.0	0.0	11.409660096153845	
14.402294820717131	0.0	0.0	0.0	0.0	11.315365384615383	
14.412296414342629	0.0	0.0	0.0	0.0	11.315365384615383	
14.422298007968127	0.0	0.0	0.0	0.0	11.221070673076921	
14.432299601593625	0.0	0.0	0.0	0.0	11.315365384615383	
14.442301195219123	0.0	0.0	0.0	0.0	11.12677596153846	
14.452302788844621	0.0	0.0	0.0	0.0	11.315365384615383	
14.46230438247012	0.0	0.0	0.0	0.0	11.315365384615383	
14.472305976095617	0.0	0.0	0.0	0.0	11.409660096153845	
14.482307569721115	0.0	0.0	0.0	0.0	11.315365384615383	
14.492309163346613	0.0	0.0	0.0	0.0	11.221070673076921	
14.502310756972111	0.0	0.0	0.0	0.0	11.315365384615383	
14.512312350597607	0.0	0.0	0.0	0.0	11.315365384615383	
14.522313944223106	0.0	0.0	0.0	0.0	11.409660096153845	
14.532315537848604	0.0	0.0	0.0	0.0	11.221070673076921	
14.542317131474102	0.0	0.0	0.0	0.0	11.315365384615383	
14.5523187250996	0.0	0.0	0.0	0.0	11.221070673076921	
14.562320318725098	0.0	0.0	0.0	0.0	11.315365384615383	
14.572321912350596	0.0	0.0	0.0	0.0	11.221070673076921	
14.582323505976094	0.0	0.0	0.0	0.0	11.409660096153845	
14.592325099601592	0.0	0.0	0.0	0.0	11.409660096153845	
14.60232669322709	0.0	0.0	0.0	0.0	11.409660096153845	
14.612328286852588	0.0	0.0	0.0	0.0	10.843891826923077	
14.622329880478086	0.0	0.0	0.0	0.0	10.843891826923077	
14.632331474103584	0.0	0.0	0.0	0.0	11.03248125	
14.642333067729082	0.0	0.0	0.0	0.0	11.503954807692306	
14.65233466135458	0.0	0.0	0.0	0.0	12.069723076923077	
14.662336254980078	0.0	0.0	0.0	0.0	11.315365384615383	
14.672337848605576	0.0	0.0	0.0	0.0	11.12677596153846	
14.682339442231074	0.0	0.0	0.0	0.0	10.843891826923077	
14.692341035856572	0.0	0.0	0.0	0.0	10.938186538461538	
14.70234262948207	0.0	0.0	0.0	0.0	11.409660096153845	
14.712344223107568	0.0	0.0	0.0	0.0	11.692544230769233	
14.722345816733066	0.0	0.0	0.0	0.0	11.598249519230766	
14.732347410358564	0.0	0.0	0.0	0.0	11.315365384615383	
14.742349003984062	0.0	0.0	0.0	0.0	10.938186538461538	
14.75235059760956	0.0	0.0	0.0	0.0	11.03248125	
14.762352191235058	0.0	0.0	0.0	0.0	11.12677596153846	
14.772353784860556	0.0	0.0	0.0	0.0	11.409660096153845	
14.782355378486054	0.0	0.0	0.0	0.0	11.692544230769233	
14.792356972111552	0.0	0.0	0.0	0.0	11.598249519230766	
14.80235856573705	0.0	0.0	0.0	0.0	11.221070673076921	
14.812360159362548	0.0	0.0	0.0	0.0	10.938186538461538	
14.822361752988046	0.0	0.0	0.0	0.0	11.12677596153846	
14.832363346613544	0.0	0.0	0.0	0.0	11.315365384615383	
14.842364940239042	0.0	0.0	0.0	0.0	11.503954807692306	
14.85236653386454	0.0	0.0	0.0	0.0	11.409660096153845	
14.862368127490038	0.0	0.0	0.0	0.0	11.409660096153845	
14.872369721115536	0.0	0.0	0.0	0.0	11.315365384615383	
14.882371314741034	0.0	0.0	0.0	0.0	11.315365384615383	
14.892372908366532	0.0	0.0	0.0	0.0	11.221070673076921	
14.90237450199203	0.0	0.0	0.0	0.0	11.409660096153845	
14.912376095617528	0.0	0.0	0.0	0.0	11.409660096153845	
14.922377689243026	0.0	0.0	0.0	0.0	11.409660096153845	
14.932379282868524	0.0	0.0	0.0	0.0	11.221070673076921	
14.942380876494022	0.0	0.0	0.0	0.0	11.315365384615383	
14.95238247011952	0.0	0.0	0.0	0.0	11.315365384615383	
14.962384063745018	0.0	0.0	0.0	0.0	11.315365384615383	
14.972385657370516	0.0	0.0	0.0	0.0	11.221070673076921	
14.982387250996014	0.0	0.0	0.0	0.0	11.315365384615383	
14.992388844621512	0.0	0.0	0.0	0.0	11.221070673076921	
15.00239043824701	0.0	0.0	0.0	0.0	11.221070673076921	
15.012392031872508	0.0	0.0	0.0	0.0	11.221070673076921	
15.022393625498006	0.0	0.0	0.0	0.0	11.315365384615383	
15.032395219123504	0.0	0.0	0.0	0.0	11.409660096153845	
15.042396812749002	0.0	0.0	0.0	0.0	11.409660096153845	
15.0523984063745	0.0	0.0	0.0	0.0	11.221070673076921	
15.062399999999998	0.0	0.0	0.0	0.0	11.315365384615383	
15.072401593625496	0.0	0.0	0.0	0.0	11.315365384615383	
15.082403187250994	0.0	0.0	0.0	0.0	11.315365384615383	
15.092404780876493	0.0	0.0	0.0	0.0	11.221070673076921	
15.10240637450199	0.0	0.0	0.0	0.0	11.409660096153845	
15.112407968127489	0.0	0.0	0.0	0.0	11.315365384615383	
15.122409561752987	0.0	0.0	0.0	0.0	11.315365384615383	
15.132411155378485	0.0	0.0	0.0	0.0	11.12677596153846	
15.142412749003983	0.0	0.0	0.0	0.0	11.221070673076921	
15.15241434262948	0.0	0.0	0.0	0.0	11.315365384615383	
15.162415936254979	0.0	0.0	0.0	0.0	11.315365384615383	
15.172417529880477	0.0	0.0	0.0	0.0	11.221070673076921	
15.182419123505975	0.0	0.0	0.0	0.0	11.315365384615383	
15.192420717131473	0.0	0.0	0.0	0.0	11.315365384615383	
15.20242231075697	0.0	0.0	0.0	0.0	11.315365384615383	
15.212423904382469	0.0	0.0	0.0	0.0	11.12677596153846	
15.222425498007967	0.0	0.0	0.0	0.0	11.315365384615383	
15.232427091633465	0.0	0.0	0.0	0.0	11.315365384615383	
15.242428685258963	0.0	0.0	0.0	0.0	11.315365384615383	
15.25243027888446	0.0	0.0	0.0	0.0	11.221070673076921	
15.262431872509959	0.0	0.0	0.0	0.0	11.315365384615383	
15.272433466135457	0.0	0.0	0.0	0.0	11.315365384615383	
15.282435059760955	0.0	0.0	0.0	0.0	11.315365384615383	
15.292436653386453	0.0	0.0	0.0	0.0	11.221070673076921	
15.30243824701195	0.0	0.0	0.0	0.0	11.315365384615383	
15.312439840637449	0.0	0.0	0.0	0.0	11.315365384615383	
15.322441434262947	0.0	0.0	0.0	0.0	11.315365384615383	
15.332443027888445	0.0	0.0	0.0	0.0	11.221070673076921	
15.342444621513943	0.0	0.0	0.0	0.0	11.315365384615383	
15.352446215139441	0.0	0.0	0.0	0.0	11.221070673076921	
15.362447808764939	0.0	0.0	0.0	0.0	11.221070673076921	
15.372449402390437	0.0	0.0	0.0	0.0	11.12677596153846	
15.382450996015935	0.0	0.0	0.0	0.0	11.315365384615383	
15.392452589641433	0.0	0.0	0.0	0.0	11.409660096153845	
15.402454183266931	0.0	0.0	0.0	0.0	11.315365384615383	
15.412455776892429	0.0	0.0	0.0	0.0	11.221070673076921	
15.422457370517927	0.0	0.0	0.0	0.0	11.315365384615383	
15.432458964143425	0.0	0.0	0.0	0.0	11.315365384615383	
15.442460557768923	0.0	0.0	0.0	0.0	11.315365384615383	
15.452462151394421	0.0	0.0	0.0	0.0	11.12677596153846	
15.46246374501992	0.0	0.0	0.0	0.0	11.315365384615383	
15.472465338645417	0.0	0.0	0.0	0.0	11.315365384615383	
15.482466932270915	0.0	0.0	0.0	0.0	11.315365384615383	
15.492468525896413	0.0	0.0	0.0	0.0	11.12677596153846	
15.502470119521911	0.0	0.0	0.0	0.0	11.315365384615383	
15.51247171314741	0.0	0.0	0.0	0.0	11.315365384615383	
15.522473306772907	0.0	0.0	0.0	0.0	11.315365384615383	
15.532474900398405	0.0	0.0	0.0	0.0	11.12677596153846	
15.542476494023903	0.0	0.0	0.0	0.0	11.315365384615383	
15.552478087649401	0.0	0.0	0.0	0.0	11.409660096153845	
15.5624796812749	0.0	0.0	0.0	0.0	11.409660096153845	
15.572481274900397	0.0	0.0	0.0	0.0	11.221070673076921	
15.582482868525895	0.0	0.0	0.0	0.0	11.315365384615383	
15.592484462151393	0.0	0.0	0.0	0.0	11.315365384615383	
15.602486055776891	0.0	0.0	0.0	0.0	11.315365384615383	
15.61248764940239	0.0	0.0	0.0	0.0	11.221070673076921	
15.622489243027887	0.0	0.0	0.0	0.0	11.315365384615383	
15.632490836653385	0.0	0.0	0.0	0.0	11.315365384615383	
15.642492430278883	0.0	0.0	0.0	0.0	11.315365384615383	
15.652494023904381	0.0	0.0	0.0	0.0	11.12677596153846	
15.66249561752988	0.0	0.0	0.0	0.0	11.221070673076921	
15.672497211155378	0.0	0.0	0.0	0.0	11.315365384615383	
15.682498804780876	0.0	0.0	0.0	0.0	11.315365384615383	
15.692500398406374	0.0	0.0	0.0	0.0	11.12677596153846	
15.702501992031872	0.0	0.0	0.0	0.0	11.315365384615383	
15.71250358565737	0.0	0.0	0.0	0.0	11.315365384615383	
15.722505179282868	0.0	0.0	0.0	0.0	11.315365384615383	
15.732506772908366	0.0	0.0	0.0	0.0	11.221070673076921	
15.742508366533864	0.0	0.0	0.0	0.0	11.315365384615383	
15.752509960159362	0.0	0.0	0.0	0.0	11.315365384615383	
15.76251155378486	0.0	0.0	0.0	0.0	11.315365384615383	
15.772513147410358	0.0	0.0	0.0	0.0	11.221070673076921	
15.782514741035856	0.0	0.0	0.0	0.0	11.315365384615383	
15.792516334661354	0.0	0.0	0.0	0.0	11.315365384615383	
15.802517928286852	0.0	0.0	0.0	0.0	11.315365384615383	
15.81251952191235	0.0	0.0	0.0	0.0	11.12677596153846	
15.822521115537848	0.0	0.0	0.0	0.0	11.315365384615383	
15.832522709163346	0.0	0.0	0.0	0.0	11.221070673076921	
15.842524302788844	0.0	0.0	0.0	0.0	11.221070673076921	
15.852525896414342	0.0	0.0	0.0	0.0	11.221070673076921	
15.86252749003984	0.0	0.0	0.0	0.0	11.315365384615383	
15.872529083665338	0.0	0.0	0.0	0.0	11.315365384615383	
15.882530677290836	0.0	0.0	0.0	0.0	11.315365384615383	
15.892532270916334	0.0	0.0	0.0	0.0	11.221070673076921	
15.902533864541832	0.0	0.0	0.0	0.0	11.315365384615383	
15.91253545816733	0.0	0.0	0.0	0.0	11.221070673076921	
15.922537051792828	0.0	0.0	0.0	0.0	11.315365384615383	
15.932538645418326	0.0	0.0	0.0	0.0	11.221070673076921	
15.942540239043824	0.0	0.0	0.0	0.0	11.315365384615383	
15.952541832669322	0.0	0.0	0.0	0.0	11.315365384615383	
15.96254342629482	0.0	0.0	0.0	0.0	11.315365384615383	
15.972545019920318	0.0	0.0	0.0	0.0	11.12677596153846	
15.982546613545816	0.0	0.0	0.0	0.0	11.221070673076921	
15.992548207171314	0.0	0.0	0.0	0.0	11.315365384615383	
16.00254980079681	0.0	0.0	0.0	0.0	11.315365384615383	
16.01255139442231	0.0	0.0	0.0	0.0	11.221070673076921	
16.022552988047806	0.0	0.0	0.0	0.0	11.315365384615383	
16.032554581673306	0.0	0.0	0.0	0.0	11.315365384615383	
16.042556175298802	0.0	0.0	0.0	0.0	11.315365384615383	
16.052557768924302	0.0	0.0	0.0	0.0	11.12677596153846	
16.0625593625498	0.0	0.0	0.0	0.0	11.315365384615383	
16.0725609561753	0.0	0.0	0.0	0.0	11.315365384615383	
16.082562549800794	0.0	0.0	0.0	0.0	11.315365384615383	
16.092564143426294	0.0	0.0	0.0	0.0	11.221070673076921	
16.10256573705179	0.0	0.0	0.0	0.0	11.315365384615383	
16.11256733067729	0.0	0.0	0.0	0.0	11.221070673076921	
16.122568924302787	0.0	0.0	0.0	0.0	11.315365384615383	
16.132570517928286	0.0	0.0	0.0	0.0	11.12677596153846	
16.142572111553783	0.0	0.0	0.0	0.0	11.315365384615383	
16.152573705179282	0.0	0.0	0.0	0.0	11.409660096153845	
16.16257529880478	0.0	0.0	0.0	0.0	11.315365384615383	
16.17257689243028	0.0	0.0	0.0	0.0	11.221070673076921	
16.182578486055775	0.0	0.0	0.0	0.0	11.315365384615383	
16.192580079681274	0.0	0.0	0.0	0.0	11.315365384615383	
16.20258167330677	0.0	0.0	0.0	0.0	11.315365384615383	
16.21258326693227	0.0	0.0	0.0	0.0	11.12677596153846	
16.222584860557767	0.0	0.0	0.0	0.0	11.315365384615383	
16.232586454183267	0.0	0.0	0.0	0.0	11.409660096153845	
16.242588047808763	0.0	0.0	0.0	0.0	11.315365384615383	
16.252589641434263	0.0	0.0	0.0	0.0	11.315365384615383	
16.26259123505976	0.0	0.0	0.0	0.0	11.221070673076921	
16.27259282868526	0.0	0.0	0.0	0.0	11.221070673076921	
16.282594422310755	0.0	0.0	0.0	0.0	11.315365384615383	
16.292596015936255	0.0	0.0	0.0	0.0	11.221070673076921	
16.30259760956175	0.0	0.0	0.0	0.0	11.315365384615383	
16.31259920318725	0.0	0.0	0.0	0.0	11.315365384615383	
16.322600796812747	0.0	0.0	0.0	0.0	11.409660096153845	
16.332602390438247	0.0	0.0	0.0	0.0	11.12677596153846	
16.342603984063743	0.0	0.0	0.0	0.0	11.315365384615383	
16.352605577689243	0.0	0.0	0.0	0.0	11.315365384615383	
16.36260717131474	0.0	0.0	0.0	0.0	11.315365384615383	
16.37260876494024	0.0	0.0	0.0	0.0	11.12677596153846	
16.382610358565735	0.0	0.0	0.0	0.0	11.315365384615383	
16.392611952191235	0.0	0.0	0.0	0.0	11.315365384615383	
16.40261354581673	0.0	0.0	0.0	0.0	11.315365384615383	
16.41261513944223	0.0	0.0	0.0	0.0	11.221070673076921	
16.422616733067727	0.0	0.0	0.0	0.0	11.315365384615383	
16.432618326693227	0.0	0.0	0.0	0.0	11.315365384615383	
16.442619920318723	0.0	0.0	0.0	0.0	11.409660096153845	
16.452621513944223	0.0	0.0	0.0	0.0	11.221070673076921	
16.46262310756972	0.0	0.0	0.0	0.0	11.221070673076921	
16.47262470119522	0.0	0.0	0.0	0.0	11.221070673076921	
16.482626294820715	0.0	0.0	0.0	0.0	11.221070673076921	
16.492627888446215	0.0	0.0	0.0	0.0	11.12677596153846	
16.50262948207171	0.0	0.0	0.0	0.0	11.315365384615383	
16.51263107569721	0.0	0.0	0.0	0.0	11.315365384615383	
16.522632669322707	0.0	0.0	0.0	0.0	11.315365384615383	
16.532634262948207	0.0	0.0	0.0	0.0	11.12677596153846	
16.542635856573703	0.0	0.0	0.0	0.0	11.315365384615383	
16.552637450199203	0.0	0.0	0.0	0.0	11.315365384615383	
16.5626390438247	0.0	0.0	0.0	0.0	11.315365384615383	
16.5726406374502	0.0	0.0	0.0	0.0	11.221070673076921	
16.582642231075695	0.0	0.0	0.0	0.0	11.409660096153845	
16.592643824701195	0.0	0.0	0.0	0.0	11.315365384615383	
16.60264541832669	0.0	0.0	0.0	0.0	11.315365384615383	
16.61264701195219	0.0	0.0	0.0	0.0	11.221070673076921	
16.622648605577687	0.0	0.0	0.0	0.0	11.221070673076921	
16.632650199203187	0.0	0.0	0.0	0.0	11.315365384615383	
16.642651792828683	0.0	0.0	0.0	0.0	11.315365384615383	
16.652653386454183	0.0	0.0	0.0	0.0	11.12677596153846	
16.66265498007968	0.0	0.0	0.0	0.0	11.315365384615383	
16.67265657370518	0.0	0.0	0.0	0.0	11.315365384615383	
16.682658167330676	0.0	0.0	0.0	0.0	11.315365384615383	
16.692659760956175	0.0	0.0	0.0	0.0	11.12677596153846	
16.70266135458167	0.0	0.0	0.0	0.0	11.221070673076921	
16.71266294820717	0.0	0.0	0.0	0.0	11.315365384615383	
16.722664541832668	0.0	0.0	0.0	0.0	11.315365384615383	
16.732666135458167	0.0	0.0	0.0	0.0	11.315365384615383	
16.742667729083664	0.0	0.0	0.0	0.0	11.315365384615383	
16.752669322709163	0.0	0.0	0.0	0.0	11.315365384615383	
16.76267091633466	0.0	0.0	0.0	0.0	11.315365384615383	
16.77267250996016	0.0	0.0	0.0	0.0	11.221070673076921	
16.782674103585656	0.0	0.0	0.0	0.0	11.221070673076921	
16.792675697211155	0.0	0.0	0.0	0.0	11.221070673076921	
16.80267729083665	0.0	0.0	0.0	0.0	11.315365384615383	
16.81267888446215	0.0	0.0	0.0	0.0	11.221070673076921	
16.822680478087648	0.0	0.0	0.0	0.0	11.315365384615383	
16.832682071713148	0.0	0.0	0.0	0.0	11.315365384615383	
16.842683665338644	0.0	0.0	0.0	0.0	11.315365384615383	
16.852685258964144	0.0	0.0	0.0	0.0	11.12677596153846	
16.86268685258964	0.0	0.0	0.0	0.0	11.221070673076921	
16.87268844621514	0.0	0.0	0.0	0.0	11.315365384615383	
16.882690039840636	0.0	0.0	0.0	0.0	11.315365384615383	
16.892691633466136	0.0	0.0	0.0	0.0	11.221070673076921	
16.902693227091632	0.0	0.0	0.0	0.0	11.315365384615383	
16.91269482071713	0.0	0.0	0.0	0.0	11.315365384615383	
16.922696414342628	0.0	0.0	0.0	0.0	11.315365384615383	
16.932698007968128	0.0	0.0	0.0	0.0	11.221070673076921	
16.942699601593624	0.0	0.0	0.0	0.0	11.315365384615383	
16.952701195219124	0.0	0.0	0.0	0.0	11.315365384615383	
16.96270278884462	0.0	0.0	0.0	0.0	11.221070673076921	
16.97270438247012	0.0	0.0	0.0	0.0	11.12677596153846	
16.982705976095616	0.0	0.0	0.0	0.0	11.315365384615383	
16.992707569721116	0.0	0.0	0.0	0.0	11.315365384615383	
17.002709163346612	0.0	0.0	0.0	0.0	11.315365384615383	
17.012710756972112	0.0	0.0	0.0	0.0	11.12677596153846	
17.022712350597608	0.0	0.0	0.0	0.0	11.221070673076921	
17.032713944223108	0.0	0.0	0.0	0.0	11.315365384615383	
17.042715537848604	0.0	0.0	0.0	0.0	11.315365384615383	
17.052717131474104	0.0	0.0	0.0	0.0	11.221070673076921	
17.0627187250996	0.0	0.0	0.0	0.0	11.315365384615383	
17.072720318725096	0.0	0.0	0.0	0.0	11.315365384615383	
17.082721912350596	0.0	0.0	0.0	0.0	11.315365384615383	
17.092723505976092	0.0	0.0	0.0	0.0	11.12677596153846	
17.102725099601592	0.0	0.0	0.0	0.0	11.221070673076921	
17.11272669322709	0.0	0.0	0.0	0.0	11.315365384615383	
17.12272828685259	0.0	0.0	0.0	0.0	11.315365384615383	
17.132729880478085	0.0	0.0	0.0	0.0	11.221070673076921	
17.142731474103584	0.0	0.0	0.0	0.0	11.409660096153845	
17.15273306772908	0.0	0.0	0.0	0.0	11.315365384615383	
17.16273466135458	0.0	0.0	0.0	0.0	11.315365384615383	
17.172736254980077	0.0	0.0	0.0	0.0	11.221070673076921	
17.182737848605576	0.0	0.0	0.0	0.0	11.315365384615383	
17.192739442231073	0.0	0.0	0.0	0.0	11.315365384615383	
17.202741035856572	0.0	0.0	0.0	0.0	11.409660096153845	
17.21274262948207	0.0	0.0	0.0	0.0	11.221070673076921	
17.22274422310757	0.0	0.0	0.0	0.0	11.315365384615383	
17.232745816733065	0.0	0.0	0.0	0.0	11.315365384615383	
17.242747410358565	0.0	0.0	0.0	0.0	11.315365384615383	
17.25274900398406	0.0	0.0	0.0	0.0	11.221070673076921	
17.26275059760956	0.0	0.0	0.0	0.0	11.409660096153845	
17.272752191235057	0.0	0.0	0.0	0.0	11.315365384615383	
17.282753784860557	0.0	0.0	0.0	0.0	11.315365384615383	
17.292755378486053	0.0	0.0	0.0	0.0	11.221070673076921	
17.302756972111553	0.0	0.0	0.0	0.0	11.315365384615383	
17.31275856573705	0.0	0.0	0.0	0.0	11.221070673076921	
17.32276015936255	0.0	0.0	0.0	0.0	11.221070673076921	
17.332761752988045	0.0	0.0	0.0	0.0	11.221070673076921	
17.342763346613545	0.0	0.0	0.0	0.0	11.315365384615383	
17.35276494023904	0.0	0.0	0.0	0.0	11.315365384615383	
17.36276653386454	0.0	0.0	0.0	0.0	11.315365384615383	
17.372768127490037	0.0	0.0	0.0	0.0	11.221070673076921	
17.382769721115537	0.0	0.0	0.0	0.0	11.315365384615383	
17.392771314741033	0.0	0.0	0.0	0.0	11.315365384615383	
17.402772908366533	0.0	0.0	0.0	0.0	11.315365384615383	
17.41277450199203	0.0	0.0	0.0	0.0	11.12677596153846	
17.42277609561753	0.0	0.0	0.0	0.0	11.315365384615383	
17.432777689243025	0.0	0.0	0.0	0.0	11.409660096153845	
17.442779282868525	0.0	0.0	0.0	0.0	11.315365384615383	
17.45278087649402	0.0	0.0	0.0	0.0	11.12677596153846	
17.46278247011952	0.0	0.0	0.0	0.0	11.221070673076921	
17.472784063745017	0.0	0.0	0.0	0.0	11.221070673076921	
17.482785657370517	0.0	0.0	0.0	0.0	11.598249519230766	
17.492787250996013	0.0	0.0	0.0	0.0	11.409660096153845	
17.502788844621513	0.0	0.0	0.0	0.0	11.409660096153845	
17.51279043824701	0.0	0.0	0.0	0.0	11.12677596153846	
17.52279203187251	0.0	0.0	0.0	0.0	11.12677596153846	
17.532793625498005	0.0	0.0	0.0	0.0	10.938186538461538	
17.542795219123505	0.0	0.0	0.0	0.0	11.221070673076921	
17.552796812749	0.0	0.0	0.0	0.0	11.315365384615383	
17.5627984063745	0.0	0.0	0.0	0.0	11.409660096153845	
17.572799999999997	0.0	0.0	0.0	0.0	11.221070673076921	
17.582801593625497	0.0	0.0	0.0	0.0	11.409660096153845	
17.592803187250993	0.0	0.0	0.0	0.0	11.221070673076921	
17.602804780876493	0.0	0.0	0.0	0.0	11.221070673076921	
17.61280637450199	0.0	0.0	0.0	0.0	11.12677596153846	
17.62280796812749	0.0	0.0	0.0	0.0	11.315365384615383	
17.632809561752985	0.0	0.0	0.0	0.0	11.409660096153845	
17.642811155378485	0.0	0.0	0.0	0.0	11.409660096153845	
17.65281274900398	0.0	0.0	0.0	0.0	11.221070673076921	
17.66281434262948	0.0	0.0	0.0	0.0	11.409660096153845	
17.672815936254977	0.0	0.0	0.0	0.0	11.221070673076921	
17.682817529880477	0.0	0.0	0.0	0.0	11.12677596153846	
17.692819123505974	0.0	0.0	0.0	0.0	11.03248125	
17.702820717131473	0.0	0.0	0.0	0.0	11.315365384615383	
17.71282231075697	0.0	0.0	0.0	0.0	11.503954807692306	
17.72282390438247	0.0	0.0	0.0	0.0	11.409660096153845	
17.732825498007966	0.0	0.0	0.0	0.0	11.12677596153846	
17.742827091633465	0.0	0.0	0.0	0.0	11.221070673076921	
17.75282868525896	0.0	0.0	0.0	0.0	11.221070673076921	
17.76283027888446	0.0	0.0	0.0	0.0	11.221070673076921	
17.772831872509958	0.0	0.0	0.0	0.0	11.221070673076921	
17.782833466135457	0.0	0.0	0.0	0.0	11.315365384615383	
17.792835059760954	0.0	0.0	0.0	0.0	11.409660096153845	
17.802836653386453	0.0	0.0	0.0	0.0	11.315365384615383	
17.81283824701195	0.0	0.0	0.0	0.0	11.221070673076921	
17.82283984063745	0.0	0.0	0.0	0.0	11.221070673076921	
17.832841434262946	0.0	0.0	0.0	0.0	11.221070673076921	
17.842843027888446	0.0	0.0	0.0	0.0	11.221070673076921	
17.852844621513942	0.0	0.0	0.0	0.0	11.221070673076921	
17.86284621513944	0.0	0.0	0.0	0.0	11.315365384615383	
17.872847808764938	0.0	0.0	0.0	0.0	11.409660096153845	
17.882849402390438	0.0	0.0	0.0	0.0	11.409660096153845	
17.892850996015934	0.0	0.0	0.0	0.0	11.221070673076921	
17.902852589641434	0.0	0.0	0.0	0.0	11.221070673076921	
17.91285418326693	0.0	0.0	0.0	0.0	11.12677596153846	
17.92285577689243	0.0	0.0	0.0	0.0	11.315365384615383	
17.932857370517926	0.0	0.0	0.0	0.0	11.221070673076921	
17.942858964143426	0.0	0.0	0.0	0.0	11.409660096153845	
17.952860557768922	0.0	0.0	0.0	0.0	11.315365384615383	
17.96286215139442	0.0	0.0	0.0	0.0	11.221070673076921	
17.972863745019918	0.0	0.0	0.0	0.0	11.12677596153846	
17.982865338645418	0.0	0.0	0.0	0.0	11.315365384615383	
17.992866932270914	0.0	0.0	0.0	0.0	11.315365384615383	
18.002868525896414	0.0	0.0	0.0	0.0	11.315365384615383	
18.01287011952191	0.0	0.0	0.0	0.0	11.221070673076921	
18.02287171314741	0.0	0.0	0.0	0.0	11.409660096153845	
18.032873306772906	0.0	0.0	0.0	0.0	11.409660096153845	
18.042874900398406	0.0	0.0	0.0	0.0	11.315365384615383	
18.052876494023902	0.0	0.0	0.0	0.0	11.12677596153846	
18.062878087649402	0.0	0.0	0.0	0.0	11.221070673076921	
18.072879681274898	0.0	0.0	0.0	0.0	11.315365384615383	
18.082881274900398	0.0	0.0	0.0	0.0	11.315365384615383	
18.092882868525894	0.0	0.0	0.0	0.0	11.221070673076921	
18.102884462151394	0.0	0.0	0.0	0.0	11.409660096153845	
18.11288605577689	0.0	0.0	0.0	0.0	11.315365384615383	
18.12288764940239	0.0	0.0	0.0	0.0	11.221070673076921	
18.132889243027886	0.0	0.0	0.0	0.0	11.12677596153846	
18.142890836653386	0.0	0.0	0.0	0.0	11.315365384615383	
18.152892430278882	0.0	0.0	0.0	0.0	11.409660096153845	
18.162894023904382	0.0	0.0	0.0	0.0	11.409660096153845	
18.17289561752988	0.0	0.0	0.0	0.0	11.315365384615383	
18.182897211155378	0.0	0.0	0.0	0.0	11.315365384615383	
18.192898804780874	0.0	0.0	0.0	0.0	11.221070673076921	
18.202900398406374	0.0	0.0	0.0	0.0	11.315365384615383	
18.21290199203187	0.0	0.0	0.0	0.0	11.221070673076921	
18.22290358565737	0.0	0.0	0.0	0.0	11.315365384615383	
18.232905179282866	0.0	0.0	0.0	0.0	11.315365384615383	
18.242906772908366	0.0	0.0	0.0	0.0	11.221070673076921	
18.252908366533863	0.0	0.0	0.0	0.0	11.12677596153846	
18.262909960159362	0.0	0.0	0.0	0.0	11.315365384615383	
18.27291155378486	0.0	0.0	0.0	0.0	11.221070673076921	
18.28291314741036	0.0	0.0	0.0	0.0	11.315365384615383	
18.292914741035855	0.0	0.0	0.0	0.0	11.221070673076921	
18.302916334661354	0.0	0.0	0.0	0.0	11.315365384615383	
18.31291792828685	0.0	0.0	0.0	0.0	11.315365384615383	
18.32291952191235	0.0	0.0	0.0	0.0	11.315365384615383	
18.332921115537847	0.0	0.0	0.0	0.0	11.221070673076921	
18.342922709163346	0.0	0.0	0.0	0.0	11.315365384615383	
18.352924302788843	0.0	0.0	0.0	0.0	11.315365384615383	
18.362925896414342	0.0	0.0	0.0	0.0	11.315365384615383	
18.37292749003984	0.0	0.0	0.0	0.0	11.12677596153846	
18.38292908366534	0.0	0.0	0.0	0.0	11.315365384615383	
18.392930677290835	0.0	0.0	0.0	0.0	11.315365384615383	
18.402932270916335	0.0	0.0	0.0	0.0	11.221070673076921	
18.41293386454183	0.0	0.0	0.0	0.0	11.221070673076921	
18.42293545816733	0.0	0.0	0.0	0.0	11.315365384615383	
18.432937051792827	0.0	0.0	0.0	0.0	11.221070673076921	
18.442938645418327	0.0	0.0	0.0	0.0	11.221070673076921	
18.452940239043823	0.0	0.0	0.0	0.0	11.12677596153846	
18.462941832669323	0.0	0.0	0.0	0.0	11.315365384615383	
18.47294342629482	0.0	0.0	0.0	0.0	11.315365384615383	
18.48294501992032	0.0	0.0	0.0	0.0	11.315365384615383	
18.492946613545815	0.0	0.0	0.0	0.0	11.12677596153846	
18.502948207171315	0.0	0.0	0.0	0.0	11.315365384615383	
18.51294980079681	0.0	0.0	0.0	0.0	11.315365384615383	
18.52295139442231	0.0	0.0	0.0	0.0	11.315365384615383	
18.532952988047807	0.0	0.0	0.0	0.0	11.221070673076921	
18.542954581673307	0.0	0.0	0.0	0.0	11.315365384615383	
18.552956175298803	0.0	0.0	0.0	0.0	11.315365384615383	
18.562957768924303	0.0	0.0	0.0	0.0	11.315365384615383	
18.5729593625498	0.0	0.0	0.0	0.0	11.12677596153846	
18.5829609561753	0.0	0.0	0.0	0.0	11.221070673076921	
18.592962549800795	0.0	0.0	0.0	0.0	11.221070673076921	
18.602964143426295	0.0	0.0	0.0	0.0	11.221070673076921	
18.61296573705179	0.0	0.0	0.0	0.0	11.12677596153846	
18.62296733067729	0.0	0.0	0.0	0.0	11.315365384615383	
18.632968924302787	0.0	0.0	0.0	0.0	11.315365384615383	
18.642970517928287	0.0	0.0	0.0	0.0	11.315365384615383	
18.652972111553783	0.0	0.0	0.0	0.0	11.12677596153846	
18.662973705179283	0.0	0.0	0.0	0.0	11.315365384615383	
18.67297529880478	0.0	0.0	0.0	0.0	11.315365384615383	
18.68297689243028	0.0	0.0	0.0	0.0	11.315365384615383	
18.692978486055775	0.0	0.0	0.0	0.0	11.221070673076921	
18.702980079681275	0.0	0.0	0.0	0.0	11.315365384615383	
18.71298167330677	0.0	0.0	0.0	0.0	11.221070673076921	
18.72298326693227	0.0	0.0	0.0	0.0	11.315365384615383	
18.732984860557767	0.0	0.0	0.0	0.0	11.12677596153846	
18.742986454183267	0.0	0.0	0.0	0.0	11.315365384615383	
18.752988047808763	0.0	0.0	0.0	0.0	11.315365384615383	
18.762989641434263	0.0	0.0	0.0	0.0	11.315365384615383	
18.77299123505976	0.0	0.0	0.0	0.0	11.12677596153846	
18.782992828685256	0.0	0.0	0.0	0.0	11.315365384615383	
18.792994422310755	0.0	0.0	0.0	0.0	11.315365384615383	
18.80299601593625	0.0	0.0	0.0	0.0	11.315365384615383	
18.81299760956175	0.0	0.0	0.0	0.0	11.12677596153846	
18.822999203187248	0.0	0.0	0.0	0.0	11.315365384615383	
18.833000796812748	0.0	0.0	0.0	0.0	11.315365384615383	
18.843002390438244	0.0	0.0	0.0	0.0	11.315365384615383	
18.853003984063744	0.0	0.0	0.0	0.0	11.12677596153846	
18.86300557768924	0.0	0.0	0.0	0.0	11.315365384615383	
18.87300717131474	0.0	0.0	0.0	0.0	11.315365384615383	
18.883008764940236	0.0	0.0	0.0	0.0	11.315365384615383	
18.893010358565736	0.0	0.0	0.0	0.0	11.12677596153846	
18.903011952191232	0.0	0.0	0.0	0.0	11.315365384615383	
18.91301354581673	0.0	0.0	0.0	0.0	11.221070673076921	
18.923015139442228	0.0	0.0	0.0	0.0	11.315365384615383	
18.933016733067728	0.0	0.0	0.0	0.0	11.12677596153846	
18.943018326693224	0.0	0.0	0.0	0.0	11.221070673076921	
18.953019920318724	0.0	0.0	0.0	0.0	11.12677596153846	
18.96302151394422	0.0	0.0	0.0	0.0	11.315365384615383	
18.97302310756972	0.0	0.0	0.0	0.0	11.12677596153846	
18.983024701195216	0.0	0.0	0.0	0.0	11.221070673076921	
18.993026294820716	0.0	0.0	0.0	0.0	11.221070673076921	
19.003027888446212	0.0	0.0	0.0	0.0	11.409660096153845	
19.013029482071712	0.0	0.0	0.0	0.0	11.315365384615383	
19.023031075697208	0.0	0.0	0.0	0.0	11.409660096153845	
19.033032669322708	0.0	0.0	0.0	0.0	11.315365384615383	
19.043034262948204	0.0	0.0	0.0	0.0	11.221070673076921	
19.053035856573704	0.0	0.0	0.0	0.0	11.03248125	
19.0630374501992	0.0	0.0	0.0	0.0	11.221070673076921	
19.0730390438247	0.0	0.0	0.0	0.0	11.315365384615383	
19.083040637450196	0.0	0.0	0.0	0.0	11.315365384615383	
19.093042231075696	0.0	0.0	0.0	0.0	11.12677596153846	
19.103043824701192	0.0	0.0	0.0	0.0	11.221070673076921	
19.113045418326692	0.0	0.0	0.0	0.0	11.12677596153846	
19.12304701195219	0.0	0.0	0.0	0.0	11.221070673076921	
19.133048605577688	0.0	0.0	0.0	0.0	11.221070673076921	
19.143050199203184	0.0	0.0	0.0	0.0	11.315365384615383	
19.153051792828684	0.0	0.0	0.0	0.0	11.315365384615383	
19.16305338645418	0.0	0.0	0.0	0.0	11.315365384615383	
19.17305498007968	0.0	0.0	0.0	0.0	11.315365384615383	
19.183056573705176	0.0	0.0	0.0	0.0	11.409660096153845	
19.193058167330676	0.0	0.0	0.0	0.0	11.409660096153845	
19.203059760956172	0.0	0.0	0.0	0.0	11.315365384615383	
19.213061354581672	0.0	0.0	0.0	0.0	11.03248125	
19.22306294820717	0.0	0.0	0.0	0.0	11.315365384615383	
19.23306454183267	0.0	0.0	0.0	0.0	11.315365384615383	
19.243066135458164	0.0	0.0	0.0	0.0	11.315365384615383	
19.253067729083664	0.0	0.0	0.0	0.0	11.03248125	
19.26306932270916	0.0	0.0	0.0	0.0	11.221070673076921	
19.27307091633466	0.0	0.0	0.0	0.0	11.221070673076921	
19.283072509960157	0.0	0.0	0.0	0.0	11.315365384615383	
19.293074103585656	0.0	0.0	0.0	0.0	11.221070673076921	
19.303075697211153	0.0	0.0	0.0	0.0	11.315365384615383	
19.313077290836652	0.0	0.0	0.0	0.0	11.315365384615383	
19.32307888446215	0.0	0.0	0.0	0.0	11.315365384615383	
19.33308047808765	0.0	0.0	0.0	0.0	11.221070673076921	
19.343082071713145	0.0	0.0	0.0	0.0	11.315365384615383	
19.353083665338644	0.0	0.0	0.0	0.0	11.315365384615383	
19.36308525896414	0.0	0.0	0.0	0.0	11.315365384615383	
19.37308685258964	0.0	0.0	0.0	0.0	11.221070673076921	
19.383088446215137	0.0	0.0	0.0	0.0	11.315365384615383	
19.393090039840637	0.0	0.0	0.0	0.0	11.315365384615383	
19.403091633466133	0.0	0.0	0.0	0.0	11.315365384615383	
19.413093227091633	0.0	0.0	0.0	0.0	11.12677596153846	
19.42309482071713	0.0	0.0	0.0	0.0	11.12677596153846	
19.43309641434263	0.0	0.0	0.0	0.0	11.221070673076921	
19.443098007968125	0.0	0.0	0.0	0.0	11.315365384615383	
19.453099601593625	0.0	0.0	0.0	0.0	11.12677596153846	
19.46310119521912	0.0	0.0	0.0	0.0	11.315365384615383	
19.47310278884462	0.0	0.0	0.0	0.0	11.221070673076921	
19.483104382470117	0.0	0.0	0.0	0.0	11.221070673076921	
19.493105976095617	0.0	0.0	0.0	0.0	11.12677596153846	
19.503107569721113	0.0	0.0	0.0	0.0	11.315365384615383	
19.513109163346613	0.0	0.0	0.0	0.0	11.315365384615383	
19.52311075697211	0.0	0.0	0.0	0.0	11.315365384615383	
19.53311235059761	0.0	0.0	0.0	0.0	11.221070673076921	
19.543113944223105	0.0	0.0	0.0	0.0	11.315365384615383	
19.553115537848605	0.0	0.0	0.0	0.0	11.315365384615383	
19.5631171314741	0.0	0.0	0.0	0.0	11.315365384615383	
19.5731187250996	0.0	0.0	0.0	0.0	11.12677596153846	
19.583120318725097	0.0	0.0	0.0	0.0	11.315365384615383	
19.593121912350597	0.0	0.0	0.0	0.0	11.315365384615383	
19.603123505976093	0.0	0.0	0.0	0.0	11.315365384615383	
19.613125099601593	0.0	0.0	0.0	0.0	11.12677596153846	
19.62312669322709	0.0	0.0	0.0	0.0	11.221070673076921	
19.63312828685259	0.0	0.0	0.0	0.0	11.221070673076921	
19.643129880478085	0.0	0.0	0.0	0.0	11.221070673076921	
19.653131474103585	0.0	0.0	0.0	0.0	11.12677596153846	
19.66313306772908	0.0	0.0	0.0	0.0	11.315365384615383	
19.67313466135458	0.0	0.0	0.0	0.0	11.315365384615383	
19.683136254980077	0.0	0.0	0.0	0.0	11.315365384615383	
19.693137848605577	0.0	0.0	0.0	0.0	11.221070673076921	
19.703139442231073	0.0	0.0	0.0	0.0	11.315365384615383	
19.713141035856573	0.0	0.0	0.0	0.0	11.315365384615383	
19.72314262948207	0.0	0.0	0.0	0.0	11.315365384615383	
19.73314422310757	0.0	0.0	0.0	0.0	11.221070673076921	
19.743145816733065	0.0	0.0	0.0	0.0	11.221070673076921	
19.753147410358565	0.0	0.0	0.0	0.0	11.315365384615383	
19.76314900398406	0.0	0.0	0.0	0.0	11.315365384615383	
19.77315059760956	0.0	0.0	0.0	0.0	11.12677596153846	
19.783152191235057	0.0	0.0	0.0	0.0	11.315365384615383	
19.793153784860557	0.0	0.0	0.0	0.0	11.221070673076921	
19.803155378486053	0.0	0.0	0.0	0.0	11.221070673076921	
19.813156972111553	0.0	0.0	0.0	0.0	11.12677596153846	
19.82315856573705	0.0	0.0	0.0	0.0	11.221070673076921	
19.83316015936255	0.0	0.0	0.0	0.0	11.315365384615383	
19.843161752988046	0.0	0.0	0.0	0.0	11.315365384615383	
19.853163346613545	0.0	0.0	0.0	0.0	11.12677596153846	
19.86316494023904	0.0	0.0	0.0	0.0	11.315365384615383	
19.87316653386454	0.0	0.0	0.0	0.0	11.315365384615383	
19.883168127490038	0.0	0.0	0.0	0.0	11.315365384615383	
19.893169721115537	0.0	0.0	0.0	0.0	11.221070673076921	
19.903171314741034	0.0	0.0	0.0	0.0	11.221070673076921	
19.913172908366533	0.0	0.0	0.0	0.0	11.315365384615383	
19.92317450199203	0.0	0.0	0.0	0.0	11.315365384615383	
19.93317609561753	0.0	0.0	0.0	0.0	11.12677596153846	
19.943177689243026	0.0	0.0	0.0	0.0	11.221070673076921	
19.953179282868525	0.0	0.0	0.0	0.0	11.221070673076921	
19.96318087649402	0.0	0.0	0.0	0.0	11.221070673076921	
19.97318247011952	0.0	0.0	0.0	0.0	11.12677596153846	
19.983184063745018	0.0	0.0	0.0	0.0	11.221070673076921	
19.993185657370518	0.0	0.0	0.0	0.0	11.315365384615383	
20.003187250996014	0.0	0.0	0.0	0.0	11.315365384615383	
20.013188844621514	0.0	0.0	0.0	0.0	11.221070673076921	
20.02319043824701	0.0	0.0	0.0	0.0	11.315365384615383	
20.03319203187251	0.0	0.0	0.0	0.0	11.315365384615383	
20.043193625498006	0.0	0.0	0.0	0.0	11.315365384615383	
20.053195219123506	0.0	0.0	0.0	0.0	11.221070673076921	
20.063196812749002	0.0	0.0	0.0	0.0	11.315365384615383	
20.0731984063745	0.0	0.0	0.0	0.0	11.315365384615383	
20.083199999999998	0.0	0.0	0.0	0.0	11.315365384615383	
20.093201593625498	0.0	0.0	0.0	0.0	11.12677596153846	
20.103203187250994	0.0	0.0	0.0	0.0	11.221070673076921	
20.113204780876494	0.0	0.0	0.0	0.0	11.221070673076921	
20.12320637450199	0.0	0.0	0.0	0.0	11.221070673076921	
20.13320796812749	0.0	0.0	0.0	0.0	11.12677596153846	
20.143209561752986	0.0	0.0	0.0	0.0	11.221070673076921	
20.153211155378486	0.0	0.0	0.0	0.0	11.221070673076921	
20.163212749003982	0.0	0.0	0.0	0.0	11.315365384615383	
20.173214342629482	0.0	0.0	0.0	0.0	11.12677596153846	
20.183215936254978	0.0	0.0	0.0	0.0	11.315365384615383	
20.193217529880478	0.0	0.0	0.0	0.0	11.315365384615383	
20.203219123505974	0.0	0.0	0.0	0.0	11.315365384615383	
20.213220717131474	0.0	0.0	0.0	0.0	11.221070673076921	
20.22322231075697	0.0	0.0	0.0	0.0	11.315365384615383	
20.23322390438247	0.0	0.0	0.0	0.0	11.221070673076921	
20.243225498007966	0.0	0.0	0.0	0.0	11.221070673076921	
20.253227091633466	0.0	0.0	0.0	0.0	11.12677596153846	
20.263228685258962	0.0	0.0	0.0	0.0	11.315365384615383	
20.273230278884462	0.0	0.0	0.0	0.0	11.315365384615383	
20.28323187250996	0.0	0.0	0.0	0.0	11.315365384615383	
20.293233466135458	0.0	0.0	0.0	0.0	11.12677596153846	
20.303235059760954	0.0	0.0	0.0	0.0	11.315365384615383	
20.313236653386454	0.0	0.0	0.0	0.0	11.315365384615383	
20.32323824701195	0.0	0.0	0.0	0.0	11.221070673076921	
20.33323984063745	0.0	0.0	0.0	0.0	11.12677596153846	
20.343241434262946	0.0	0.0	0.0	0.0	11.221070673076921	
20.353243027888446	0.0	0.0	0.0	0.0	11.315365384615383	
20.363244621513942	0.0	0.0	0.0	0.0	11.221070673076921	
20.373246215139442	0.0	0.0	0.0	0.0	11.221070673076921	
20.38324780876494	0.0	0.0	0.0	0.0	11.315365384615383	
20.39324940239044	0.0	0.0	0.0	0.0	11.315365384615383	
20.403250996015935	0.0	0.0	0.0	0.0	11.315365384615383	
20.413252589641434	0.0	0.0	0.0	0.0	11.12677596153846	
20.42325418326693	0.0	0.0	0.0	0.0	11.315365384615383	
20.43325577689243	0.0	0.0	0.0	0.0	11.315365384615383	
20.443257370517927	0.0	0.0	0.0	0.0	11.315365384615383	
20.453258964143426	0.0	0.0	0.0	0.0	11.12677596153846	
20.463260557768923	0.0	0.0	0.0	0.0	11.221070673076921	
20.473262151394422	0.0	0.0	0.0	0.0	11.221070673076921	
20.48326374501992	0.0	0.0	0.0	0.0	11.221070673076921	
20.493265338645415	0.0	0.0	0.0	0.0	11.12677596153846	
20.503266932270915	0.0	0.0	0.0	0.0	11.315365384615383	
20.51326852589641	0.0	0.0	0.0	0.0	11.315365384615383	
20.52327011952191	0.0	0.0	0.0	0.0	11.315365384615383	
20.533271713147407	0.0	0.0	0.0	0.0	11.221070673076921	
20.543273306772907	0.0	0.0	0.0	0.0	11.221070673076921	
20.553274900398403	0.0	0.0	0.0	0.0	11.315365384615383	
20.563276494023903	0.0	0.0	0.0	0.0	11.315365384615383	
20.5732780876494	0.0	0.0	0.0	0.0	11.12677596153846	
20.5832796812749	0.0	0.0	0.0	0.0	11.315365384615383	
20.593281274900395	0.0	0.0	0.0	0.0	11.315365384615383	
20.603282868525895	0.0	0.0	0.0	0.0	11.315365384615383	
20.61328446215139	0.0	0.0	0.0	0.0	11.221070673076921	
20.62328605577689	0.0	0.0	0.0	0.0	11.315365384615383	
20.633287649402387	0.0	0.0	0.0	0.0	11.221070673076921	
20.643289243027887	0.0	0.0	0.0	0.0	11.221070673076921	
20.653290836653383	0.0	0.0	0.0	0.0	11.12677596153846	
20.663292430278883	0.0	0.0	0.0	0.0	11.315365384615383	
20.67329402390438	0.0	0.0	0.0	0.0	11.221070673076921	
20.68329561752988	0.0	0.0	0.0	0.0	11.221070673076921	
20.693297211155375	0.0	0.0	0.0	0.0	11.221070673076921	
20.703298804780875	0.0	0.0	0.0	0.0	11.315365384615383	
20.71330039840637	0.0	0.0	0.0	0.0	11.409660096153845	
20.72330199203187	0.0	0.0	0.0	0.0	11.315365384615383	
20.733303585657367	0.0	0.0	0.0	0.0	11.12677596153846	
20.743305179282867	0.0	0.0	0.0	0.0	11.221070673076921	
20.753306772908363	0.0	0.0	0.0	0.0	11.315365384615383	
20.763308366533863	0.0	0.0	0.0	0.0	11.315365384615383	
20.77330996015936	0.0	0.0	0.0	0.0	11.221070673076921	
20.78331155378486	0.0	0.0	0.0	0.0	11.315365384615383	
20.793313147410355	0.0	0.0	0.0	0.0	11.221070673076921	
20.803314741035855	0.0	0.0	0.0	0.0	11.221070673076921	
20.81331633466135	0.0	0.0	0.0	0.0	11.12677596153846	
20.82331792828685	0.0	0.0	0.0	0.0	11.221070673076921	
20.833319521912347	0.0	0.0	0.0	0.0	11.221070673076921	
20.843321115537847	0.0	0.0	0.0	0.0	11.315365384615383	
20.853322709163344	0.0	0.0	0.0	0.0	11.12677596153846	
20.863324302788843	0.0	0.0	0.0	0.0	11.12677596153846	
20.87332589641434	0.0	0.0	0.0	0.0	11.221070673076921	
20.88332749003984	0.0	0.0	0.0	0.0	11.315365384615383	
20.893329083665336	0.0	0.0	0.0	0.0	11.221070673076921	
20.903330677290835	0.0	0.0	0.0	0.0	11.315365384615383	
20.91333227091633	0.0	0.0	0.0	0.0	11.315365384615383	
20.92333386454183	0.0	0.0	0.0	0.0	11.315365384615383	
20.933335458167328	0.0	0.0	0.0	0.0	11.221070673076921	
20.943337051792827	0.0	0.0	0.0	0.0	11.315365384615383	
20.953338645418324	0.0	0.0	0.0	0.0	11.315365384615383	
20.963340239043823	0.0	0.0	0.0	0.0	11.315365384615383	
20.97334183266932	0.0	0.0	0.0	0.0	11.221070673076921	
20.98334342629482	0.0	0.0	0.0	0.0	11.315365384615383	
20.993345019920316	0.0	0.0	0.0	0.0	11.221070673076921	
21.003346613545816	0.0	0.0	0.0	0.0	11.221070673076921	
21.013348207171312	0.0	0.0	0.0	0.0	11.03248125	
21.02334980079681	0.0	0.0	0.0	0.0	11.221070673076921	
21.033351394422308	0.0	0.0	0.0	0.0	11.315365384615383	
21.043352988047808	0.0	0.0	0.0	0.0	11.315365384615383	
21.053354581673304	0.0	0.0	0.0	0.0	11.221070673076921	
21.063356175298804	0.0	0.0	0.0	0.0	11.221070673076921	
21.0733577689243	0.0	0.0	0.0	0.0	11.315365384615383	
21.0833593625498	0.0	0.0	0.0	0.0	11.315365384615383	
21.093360956175296	0.0	0.0	0.0	0.0	11.12677596153846	
21.103362549800796	0.0	0.0	0.0	0.0	11.315365384615383	
21.113364143426292	0.0	0.0	0.0	0.0	11.315365384615383	
21.12336573705179	0.0	0.0	0.0	0.0	11.409660096153845	
21.133367330677288	0.0	0.0	0.0	0.0	11.221070673076921	
21.143368924302788	0.0	0.0	0.0	0.0	11.315365384615383	
21.153370517928284	0.0	0.0	0.0	0.0	11.315365384615383	
21.163372111553784	0.0	0.0	0.0	0.0	11.221070673076921	
21.17337370517928	0.0	0.0	0.0	0.0	11.12677596153846	
21.18337529880478	0.0	0.0	0.0	0.0	11.315365384615383	
21.193376892430276	0.0	0.0	0.0	0.0	11.315365384615383	
21.203378486055776	0.0	0.0	0.0	0.0	11.315365384615383	
21.213380079681272	0.0	0.0	0.0	0.0	11.12677596153846	
21.223381673306772	0.0	0.0	0.0	0.0	11.221070673076921	
21.233383266932268	0.0	0.0	0.0	0.0	11.221070673076921	
21.243384860557768	0.0	0.0	0.0	0.0	11.221070673076921	
21.253386454183264	0.0	0.0	0.0	0.0	11.12677596153846	
21.263388047808764	0.0	0.0	0.0	0.0	11.315365384615383	
21.27338964143426	0.0	0.0	0.0	0.0	11.409660096153845	
21.28339123505976	0.0	0.0	0.0	0.0	11.409660096153845	
21.293392828685256	0.0	0.0	0.0	0.0	11.12677596153846	
21.303394422310756	0.0	0.0	0.0	0.0	11.315365384615383	
21.313396015936252	0.0	0.0	0.0	0.0	11.315365384615383	
21.323397609561752	0.0	0.0	0.0	0.0	11.315365384615383	
21.33339920318725	0.0	0.0	0.0	0.0	11.221070673076921	
21.343400796812748	0.0	0.0	0.0	0.0	11.315365384615383	
21.353402390438244	0.0	0.0	0.0	0.0	11.221070673076921	
21.363403984063744	0.0	0.0	0.0	0.0	11.221070673076921	
21.37340557768924	0.0	0.0	0.0	0.0	11.03248125	
21.38340717131474	0.0	0.0	0.0	0.0	11.221070673076921	
21.393408764940236	0.0	0.0	0.0	0.0	11.315365384615383	
21.403410358565736	0.0	0.0	0.0	0.0	11.315365384615383	
21.413411952191233	0.0	0.0	0.0	0.0	11.12677596153846	
21.423413545816732	0.0	0.0	0.0	0.0	11.409660096153845	
21.43341513944223	0.0	0.0	0.0	0.0	11.315365384615383	
21.44341673306773	0.0	0.0	0.0	0.0	11.315365384615383	
21.453418326693225	0.0	0.0	0.0	0.0	11.12677596153846	
21.463419920318724	0.0	0.0	0.0	0.0	11.315365384615383	
21.47342151394422	0.0	0.0	0.0	0.0	11.315365384615383	
21.48342310756972	0.0	0.0	0.0	0.0	11.315365384615383	
21.493424701195217	0.0	0.0	0.0	0.0	11.12677596153846	
21.503426294820716	0.0	0.0	0.0	0.0	11.315365384615383	
21.513427888446213	0.0	0.0	0.0	0.0	11.315365384615383	
21.523429482071712	0.0	0.0	0.0	0.0	11.315365384615383	
21.53343107569721	0.0	0.0	0.0	0.0	11.03248125	
21.54343266932271	0.0	0.0	0.0	0.0	11.12677596153846	
21.553434262948205	0.0	0.0	0.0	0.0	11.315365384615383	
21.563435856573705	0.0	0.0	0.0	0.0	11.315365384615383	
21.5734374501992	0.0	0.0	0.0	0.0	11.221070673076921	
21.5834390438247	0.0	0.0	0.0	0.0	11.315365384615383	
21.593440637450197	0.0	0.0	0.0	0.0	11.315365384615383	
21.603442231075697	0.0	0.0	0.0	0.0	11.221070673076921	
21.613443824701193	0.0	0.0	0.0	0.0	11.12677596153846	
21.623445418326693	0.0	0.0	0.0	0.0	11.315365384615383	
21.63344701195219	0.0	0.0	0.0	0.0	11.409660096153845	
21.64344860557769	0.0	0.0	0.0	0.0	11.409660096153845	
21.653450199203185	0.0	0.0	0.0	0.0	11.315365384615383	
21.663451792828685	0.0	0.0	0.0	0.0	11.315365384615383	
21.67345338645418	0.0	0.0	0.0	0.0	11.315365384615383	
21.68345498007968	0.0	0.0	0.0	0.0	11.221070673076921	
21.693456573705177	0.0	0.0	0.0	0.0	11.03248125	
21.703458167330677	0.0	0.0	0.0	0.0	11.221070673076921	
21.713459760956173	0.0	0.0	0.0	0.0	11.315365384615383	
21.723461354581673	0.0	0.0	0.0	0.0	11.315365384615383	
21.73346294820717	0.0	0.0	0.0	0.0	11.315365384615383	
21.74346454183267	0.0	0.0	0.0	0.0	11.409660096153845	
21.753466135458165	0.0	0.0	0.0	0.0	11.315365384615383	
21.763467729083665	0.0	0.0	0.0	0.0	11.221070673076921	
21.77346932270916	0.0	0.0	0.0	0.0	11.03248125	
21.78347091633466	0.0	0.0	0.0	0.0	11.221070673076921	
21.793472509960157	0.0	0.0	0.0	0.0	11.409660096153845	
21.803474103585657	0.0	0.0	0.0	0.0	11.409660096153845	
21.813475697211153	0.0	0.0	0.0	0.0	11.221070673076921	
21.823477290836653	0.0	0.0	0.0	0.0	11.315365384615383	
21.83347888446215	0.0	0.0	0.0	0.0	11.221070673076921	
21.84348047808765	0.0	0.0	0.0	0.0	11.315365384615383	
21.853482071713145	0.0	0.0	0.0	0.0	11.221070673076921	
21.863483665338645	0.0	0.0	0.0	0.0	11.315365384615383	
21.87348525896414	0.0	0.0	0.0	0.0	11.315365384615383	
21.88348685258964	0.0	0.0	0.0	0.0	11.221070673076921	
21.893488446215137	0.0	0.0	0.0	0.0	11.12677596153846	
21.903490039840637	0.0	0.0	0.0	0.0	11.221070673076921	
21.913491633466133	0.0	0.0	0.0	0.0	11.221070673076921	
21.923493227091633	0.0	0.0	0.0	0.0	11.315365384615383	
21.93349482071713	0.0	0.0	0.0	0.0	11.12677596153846	
21.94349641434263	0.0	0.0	0.0	0.0	11.315365384615383	
21.953498007968125	0.0	0.0	0.0	0.0	11.315365384615383	
21.963499601593625	0.0	0.0	0.0	0.0	11.315365384615383	
21.97350119521912	0.0	0.0	0.0	0.0	11.221070673076921	
21.98350278884462	0.0	0.0	0.0	0.0	11.315365384615383	
21.993504382470118	0.0	0.0	0.0	0.0	11.315365384615383	
22.003505976095617	0.0	0.0	0.0	0.0	11.315365384615383	
22.013507569721114	0.0	0.0	0.0	0.0	11.221070673076921	
22.023509163346613	0.0	0.0	0.0	0.0	11.315365384615383	
22.03351075697211	0.0	0.0	0.0	0.0	11.315365384615383	
22.04351235059761	0.0	0.0	0.0	0.0	11.221070673076921	
22.053513944223106	0.0	0.0	0.0	0.0	11.12677596153846	
22.063515537848605	0.0	0.0	0.0	0.0	11.221070673076921	
22.0735171314741	0.0	0.0	0.0	0.0	11.221070673076921	
22.0835187250996	0.0	0.0	0.0	0.0	11.315365384615383	
22.093520318725098	0.0	0.0	0.0	0.0	11.12677596153846	
