# OpenSignals Text File Format. Version 1
# {"00:07:80:D8:A8:82": {"sensor": ["EMG"], "device name": "00:07:80:D8:A8:82", "column": ["nSeq", "DI", "PORT1_CHN1"], "sync interval": 2, "time": "16:52:39.448", "comments": "", "device connection": "BTH00:07:80:D8:A8:82", "channels": [1], "keywords": "", "convertedValues": 0, "mode": 0, "digital IO": [0, 1], "firmware version": 775, "device": "channeller", "position": 0, "sampling rate": 1000, "label": ["PORT1_CHN1"], "resolution": [16], "date": "2019-10-14", "special": [{"SpO2": [100, 51, 5, 4, 3, 3]}, {"SpO2": [100, 51, 5, 4, 3, 3]}, {"SpO2": [100, 51, 5, 4, 3, 3]}, {"SpO2": [100, 51, 5, 4, 3, 3]}, {"SpO2": [100, 51, 5, 4, 3, 3]}, {"SpO2": [100, 51, 5, 4, 3, 3]}, {"SpO2": [100, 51, 5, 4, 3, 3]}, {"SpO2": [100, 51, 5, 4, 3, 3]}, {"SpO2": [100, 51, 5, 4, 3, 3]}, {"SpO2": [100, 51, 5, 4, 3, 3]}, {"SpO2": [100, 51, 5, 4, 3, 3]}, {"SpO2": [100, 51, 5, 4, 3, 3]}, {"SpO2": [100, 51, 5, 4, 3, 3]}, {"SpO2": [100, 51, 5, 4, 3, 3]}, {"SpO2": [100, 51, 5, 4, 3, 3]}]}}
# EndOfHeader
0	0	32960	
1	0	33014	
2	0	32967	
3	0	32842	
4	0	32848	
5	0	32884	
6	0	32804	
7	0	32775	
8	0	32842	
9	0	32877	
10	0	32810	
11	0	32862	
12	0	32799	
13	0	32844	
14	0	32737	
15	0	32799	
16	0	32840	
17	0	32793	
18	0	32871	
19	0	32839	
20	0	32838	
21	0	32800	
22	0	32792	
23	0	32771	
24	0	32770	
25	0	32775	
26	0	32732	
27	0	32726	
28	0	32726	
29	0	32748	
30	0	32775	
31	0	32798	
32	0	32736	
33	0	32758	
34	0	32708	
35	0	32718	
36	0	32756	
37	0	32756	
38	0	32707	
39	0	32733	
40	0	32720	
41	0	32799	
42	0	32768	
43	0	32829	
44	0	32798	
45	0	32797	
46	0	32760	
47	0	32775	
48	0	32834	
49	0	32854	
50	0	32903	
51	0	32840	
52	0	32856	
53	0	32845	
54	0	32928	
55	0	32930	
56	0	32956	
57	0	32987	
58	0	32996	
59	0	32946	
60	0	32896	
61	0	32940	
62	0	32839	
63	0	32858	
64	0	32860	
65	0	32794	
66	0	32772	
67	0	32740	
68	0	32792	
69	0	32775	
70	0	32903	
71	0	32865	
72	0	32842	
73	0	32809	
74	0	32750	
75	0	32797	
76	0	32788	
77	0	32761	
78	0	32794	
79	0	32771	
80	0	32793	
81	0	32752	
82	0	32750	
83	0	32749	
84	0	32754	
85	0	32826	
86	0	32805	
87	0	32819	
88	0	32765	
89	0	32804	
90	0	32821	
91	0	32743	
92	0	32751	
93	0	32794	
94	0	32800	
95	0	32764	
96	0	32816	
97	0	32823	
98	0	32878	
99	0	32824	
100	0	32886	
101	0	32866	
102	0	32839	
103	0	32903	
104	0	32822	
105	0	32822	
106	0	32836	
107	0	32819	
108	0	32844	
109	0	32816	
110	0	32882	
111	0	32824	
112	0	32848	
113	0	32830	
114	0	32786	
115	0	32775	
116	0	32732	
117	0	32712	
118	0	32730	
119	0	32748	
120	0	32775	
121	0	32775	
122	0	32813	
123	0	32857	
124	0	32868	
125	0	32839	
126	0	32874	
127	0	32832	
128	0	32761	
129	0	32741	
130	0	32792	
131	0	32786	
132	0	32766	
133	0	32696	
134	0	32704	
135	0	32706	
136	0	32775	
137	0	32825	
138	0	32893	
139	0	32879	
140	0	32869	
141	0	32848	
142	0	32850	
143	0	32775	
144	0	32784	
145	0	32808	
146	0	32798	
147	0	32853	
148	0	32887	
149	0	32793	
150	0	32836	
151	0	32873	
152	0	32836	
153	0	32871	
154	0	32850	
155	0	32850	
156	0	32893	
157	0	32903	
158	0	32850	
159	0	32806	
160	0	32808	
161	0	32833	
162	0	32798	
163	0	32857	
164	0	32826	
165	0	32823	
166	0	32796	
167	0	32748	
168	0	32764	
169	0	32664	
170	0	32690	
171	0	32720	
172	0	32671	
173	0	32756	
174	0	32868	
175	0	32848	
176	0	32868	
177	0	32810	
178	0	32839	
179	0	32846	
180	0	32820	
181	0	32825	
182	0	32952	
183	0	32856	
184	0	32866	
185	0	32903	
186	0	32826	
187	0	32789	
188	0	32749	
189	0	32732	
190	0	32770	
191	0	32680	
192	0	32674	
193	0	32718	
194	0	32775	
195	0	32870	
196	0	32792	
197	0	32814	
198	0	32850	
199	0	32829	
200	0	32740	
201	0	32762	
202	0	32743	
203	0	32855	
204	0	32775	
205	0	32831	
206	0	32815	
207	0	32918	
208	0	32824	
209	0	32824	
210	0	32772	
211	0	32708	
212	0	32715	
213	0	32732	
214	0	32774	
215	0	32831	
216	0	32855	
217	0	32861	
218	0	32848	
219	0	32928	
220	0	32944	
221	0	32932	
222	0	32928	
223	0	32910	
224	0	32821	
225	0	32813	
226	0	32799	
227	0	32850	
228	0	32832	
229	0	32849	
230	0	32868	
231	0	32864	
232	0	32775	
233	0	32810	
234	0	32711	
235	0	32710	
236	0	32774	
237	0	32815	
238	0	32882	
239	0	32927	
240	0	32954	
241	0	32860	
242	0	32732	
243	0	32751	
244	0	32712	
245	0	32694	
246	0	32626	
247	0	32707	
248	0	32740	
249	0	32653	
250	0	32686	
251	0	32710	
252	0	32728	
253	0	32806	
254	0	32786	
255	0	32806	
256	0	32820	
257	0	32877	
258	0	32856	
259	0	32873	
260	0	32878	
261	0	32899	
262	0	32824	
263	0	32809	
264	0	32843	
265	0	32884	
266	0	32839	
267	0	32878	
268	0	32854	
269	0	32819	
270	0	32842	
271	0	32746	
272	0	32848	
273	0	32866	
274	0	32788	
275	0	32768	
276	0	32750	
277	0	32679	
278	0	32792	
279	0	32796	
280	0	32829	
281	0	32892	
282	0	32864	
283	0	32812	
284	0	32768	
285	0	32758	
286	0	32742	
287	0	32775	
288	0	32817	
289	0	32720	
290	0	32733	
291	0	32814	
292	0	32794	
293	0	32743	
294	0	32838	
295	0	32874	
296	0	32912	
297	0	32862	
298	0	32772	
299	0	32728	
300	0	32808	
301	0	32796	
302	0	32832	
303	0	32810	
304	0	32774	
305	0	32804	
306	0	32775	
307	0	32752	
308	0	32764	
309	0	32726	
310	0	32872	
311	0	32877	
312	0	32862	
313	0	32840	
314	0	32828	
315	0	32822	
316	0	32820	
317	0	32769	
318	0	32839	
319	0	32775	
320	0	32738	
321	0	32744	
322	0	32770	
323	0	32775	
324	0	32829	
325	0	32870	
326	0	32906	
327	0	32916	
328	0	32890	
329	0	32916	
330	0	32876	
331	0	32832	
332	0	32820	
333	0	32762	
334	0	32775	
335	0	32786	
336	0	32756	
337	0	32737	
338	0	32784	
339	0	32788	
340	0	32829	
341	0	32884	
342	0	32872	
343	0	32896	
344	0	32881	
345	0	32856	
346	0	32814	
347	0	32806	
348	0	32831	
349	0	32794	
350	0	32706	
351	0	32696	
352	0	32711	
353	0	32792	
354	0	32805	
355	0	32849	
356	0	32858	
357	0	32869	
358	0	32793	
359	0	32826	
360	0	32832	
361	0	32956	
362	0	32996	
363	0	32877	
364	0	32868	
365	0	32854	
366	0	32768	
367	0	32753	
368	0	32763	
369	0	32750	
370	0	32741	
371	0	32762	
372	0	32749	
373	0	32662	
374	0	32720	
375	0	32684	
376	0	32708	
377	0	32764	
378	0	32796	
379	0	32854	
380	0	32903	
381	0	32950	
382	0	32927	
383	0	32927	
384	0	32903	
385	0	32895	
386	0	32892	
387	0	32893	
388	0	32872	
389	0	32787	
390	0	32775	
391	0	32775	
392	0	32788	
393	0	32809	
394	0	32836	
395	0	32775	
396	0	32804	
397	0	32796	
398	0	32797	
399	0	32786	
400	0	32712	
401	0	32704	
402	0	32706	
403	0	32798	
404	0	32836	
405	0	32898	
406	0	32847	
407	0	32892	
408	0	32884	
409	0	32839	
410	0	32732	
411	0	32741	
412	0	32754	
413	0	32786	
414	0	32828	
415	0	32825	
416	0	32794	
417	0	32819	
418	0	32802	
419	0	32860	
420	0	32860	
421	0	32796	
422	0	32860	
423	0	32868	
424	0	32837	
425	0	32770	
426	0	32722	
427	0	32804	
428	0	32838	
429	0	32812	
430	0	32775	
431	0	32722	
432	0	32754	
433	0	32775	
434	0	32817	
435	0	32842	
436	0	32885	
437	0	32921	
438	0	32971	
439	0	32851	
440	0	32896	
441	0	32864	
442	0	32853	
443	0	32839	
444	0	32839	
445	0	32873	
446	0	32869	
447	0	32832	
448	0	32716	
449	0	32715	
450	0	32665	
451	0	32656	
452	0	32678	
453	0	32759	
454	0	32756	
455	0	32706	
456	0	32868	
457	0	32874	
458	0	32833	
459	0	32764	
460	0	32760	
461	0	32794	
462	0	32737	
463	0	32720	
464	0	32751	
465	0	32804	
466	0	32812	
467	0	32786	
468	0	32908	
469	0	32900	
470	0	32924	
471	0	32969	
472	0	32934	
473	0	32873	
474	0	32835	
475	0	32815	
476	0	32820	
477	0	32826	
478	0	32859	
479	0	32855	
480	0	32817	
481	0	32770	
482	0	32790	
483	0	32734	
484	0	32703	
485	0	32729	
486	0	32751	
487	0	32798	
488	0	32871	
489	0	32863	
490	0	32878	
491	0	32834	
492	0	32836	
493	0	32857	
494	0	32828	
495	0	32822	
496	0	32789	
497	0	32846	
498	0	32839	
499	0	32798	
500	0	32820	
501	0	32892	
502	0	32823	
503	0	32794	
504	0	32850	
505	0	32860	
506	0	32834	
507	0	32842	
508	0	32774	
509	0	32741	
510	0	32678	
511	0	32752	
512	0	32712	
513	0	32684	
514	0	32720	
515	0	32795	
516	0	32804	
517	0	32856	
518	0	32732	
519	0	32794	
520	0	32775	
521	0	32750	
522	0	32805	
523	0	32770	
524	0	32815	
525	0	32760	
526	0	32812	
527	0	32775	
528	0	32742	
529	0	32804	
530	0	32857	
531	0	32870	
532	0	32820	
533	0	32828	
534	0	32756	
535	0	32788	
536	0	32805	
537	0	32846	
538	0	32836	
539	0	32821	
540	0	32903	
541	0	32866	
542	0	32900	
543	0	32828	
544	0	32882	
545	0	32824	
546	0	32824	
547	0	32857	
548	0	32902	
549	0	32876	
550	0	32903	
551	0	32882	
552	0	32775	
553	0	32744	
554	0	32792	
555	0	32751	
556	0	32693	
557	0	32658	
558	0	32618	
559	0	32700	
560	0	32711	
561	0	32792	
562	0	32868	
563	0	32820	
564	0	32834	
565	0	32902	
566	0	32828	
567	0	32796	
568	0	32857	
569	0	32862	
570	0	32866	
571	0	32896	
572	0	32925	
573	0	32902	
574	0	32837	
575	0	32813	
576	0	32820	
577	0	32808	
578	0	32797	
579	0	32808	
580	0	32805	
581	0	32824	
582	0	32790	
583	0	32832	
584	0	32720	
585	0	32718	
586	0	32775	
587	0	32839	
588	0	32873	
589	0	32903	
590	0	32915	
591	0	32915	
592	0	32793	
593	0	32792	
594	0	32788	
595	0	32786	
596	0	32754	
597	0	32758	
598	0	32766	
599	0	32775	
600	0	32811	
601	0	32746	
602	0	32790	
603	0	32855	
604	0	32788	
605	0	32769	
606	0	32850	
607	0	32871	
608	0	32838	
609	0	32786	
610	0	32807	
611	0	32736	
612	0	32784	
613	0	32775	
614	0	32732	
615	0	32735	
616	0	32749	
617	0	32747	
618	0	32793	
619	0	32767	
620	0	32770	
621	0	32772	
622	0	32774	
623	0	32813	
624	0	32884	
625	0	32872	
626	0	32834	
627	0	32806	
628	0	32846	
629	0	32802	
630	0	32829	
631	0	32886	
632	0	32892	
633	0	32901	
634	0	32945	
635	0	32920	
636	0	32873	
637	0	32860	
638	0	32856	
639	0	32857	
640	0	32824	
641	0	32909	
642	0	32868	
643	0	32829	
644	0	32802	
645	0	32820	
646	0	32775	
647	0	32740	
648	0	32678	
649	0	32711	
650	0	32702	
651	0	32664	
652	0	32706	
653	0	32728	
654	0	32874	
655	0	32801	
656	0	32760	
657	0	32765	
658	0	32722	
659	0	32812	
660	0	32894	
661	0	32853	
662	0	32828	
663	0	32788	
664	0	32836	
665	0	32872	
666	0	32836	
667	0	32840	
668	0	32806	
669	0	32816	
670	0	32764	
671	0	32793	
672	0	32903	
673	0	32853	
674	0	32842	
675	0	32900	
676	0	32908	
677	0	32899	
678	0	32849	
679	0	32839	
680	0	32846	
681	0	32870	
682	0	32838	
683	0	32882	
684	0	32896	
685	0	32884	
686	0	32854	
687	0	32862	
688	0	32756	
689	0	32768	
690	0	32736	
691	0	32734	
692	0	32710	
693	0	32775	
694	0	32761	
695	0	32774	
696	0	32716	
697	0	32743	
698	0	32718	
699	0	32798	
700	0	32838	
701	0	32822	
702	0	32886	
703	0	32810	
704	0	32828	
705	0	32806	
706	0	32842	
707	0	32784	
708	0	32871	
709	0	32837	
710	0	32864	
711	0	32790	
712	0	32761	
713	0	32815	
714	0	32797	
715	0	32882	
716	0	32871	
717	0	32872	
718	0	32896	
719	0	32856	
720	0	32852	
721	0	32868	
722	0	32811	
723	0	32799	
724	0	32760	
725	0	32685	
726	0	32675	
727	0	32710	
728	0	32703	
729	0	32794	
730	0	32834	
731	0	32886	
732	0	32804	
733	0	32743	
734	0	32774	
735	0	32731	
736	0	32804	
737	0	32789	
738	0	32796	
739	0	32816	
740	0	32834	
741	0	32872	
742	0	32832	
743	0	32807	
744	0	32841	
745	0	32847	
746	0	32839	
747	0	32840	
748	0	32788	
749	0	32852	
750	0	32804	
751	0	32808	
752	0	32846	
753	0	32824	
754	0	32828	
755	0	32806	
756	0	32760	
757	0	32770	
758	0	32845	
759	0	32752	
760	0	32794	
761	0	32795	
762	0	32847	
763	0	32924	
764	0	32892	
765	0	32837	
766	0	32804	
767	0	32828	
768	0	32836	
769	0	32900	
770	0	32909	
771	0	32877	
772	0	32856	
773	0	32882	
774	0	32884	
775	0	32797	
776	0	32761	
777	0	32775	
778	0	32775	
779	0	32775	
780	0	32750	
781	0	32775	
782	0	32760	
783	0	32748	
784	0	32692	
785	0	32775	
786	0	32751	
787	0	32742	
788	0	32768	
789	0	32751	
790	0	32782	
791	0	32863	
792	0	32903	
793	0	32926	
794	0	32826	
795	0	32884	
796	0	32846	
797	0	32884	
798	0	32892	
799	0	32895	
800	0	32839	
801	0	32800	
802	0	32754	
803	0	32772	
804	0	32812	
805	0	32784	
806	0	32822	
807	0	32848	
808	0	32832	
809	0	32807	
810	0	32775	
811	0	32766	
812	0	32775	
813	0	32818	
814	0	32750	
815	0	32788	
816	0	32788	
817	0	32830	
818	0	32805	
819	0	32839	
820	0	32834	
821	0	32816	
822	0	32799	
823	0	32839	
824	0	32734	
825	0	32749	
826	0	32827	
827	0	32818	
828	0	32774	
829	0	32743	
830	0	32750	
831	0	32804	
832	0	32826	
833	0	32818	
834	0	32796	
835	0	32805	
836	0	32824	
837	0	32774	
838	0	32764	
839	0	32792	
840	0	32757	
841	0	32762	
842	0	32710	
843	0	32790	
844	0	32814	
845	0	32804	
846	0	32828	
847	0	32824	
848	0	32884	
849	0	32818	
850	0	32832	
851	0	32816	
852	0	32850	
853	0	32832	
854	0	32846	
855	0	32837	
856	0	32835	
857	0	32861	
858	0	32862	
859	0	32875	
860	0	32863	
861	0	32820	
862	0	32763	
863	0	32798	
864	0	32765	
865	0	32822	
866	0	32768	
867	0	32813	
868	0	32862	
869	0	32838	
870	0	32844	
871	0	32868	
872	0	32836	
873	0	32883	
874	0	32812	
875	0	32831	
876	0	32757	
877	0	32811	
878	0	32828	
879	0	32766	
880	0	32690	
881	0	32686	
882	0	32690	
883	0	32718	
884	0	32775	
885	0	32845	
886	0	32917	
887	0	32930	
888	0	32934	
889	0	32824	
890	0	32876	
891	0	32748	
892	0	32800	
893	0	32756	
894	0	32838	
895	0	32836	
896	0	32813	
897	0	32814	
898	0	32793	
899	0	32839	
900	0	32832	
901	0	32877	
902	0	32774	
903	0	32765	
904	0	32720	
905	0	32792	
906	0	32769	
907	0	32775	
908	0	32725	
909	0	32756	
910	0	32764	
911	0	32825	
912	0	32860	
913	0	32810	
914	0	32870	
915	0	32854	
916	0	32913	
917	0	32850	
918	0	32821	
919	0	32838	
920	0	32809	
921	0	32806	
922	0	32817	
923	0	32806	
924	0	32834	
925	0	32839	
926	0	32824	
927	0	32793	
928	0	32750	
929	0	32790	
930	0	32800	
931	0	32772	
932	0	32773	
933	0	32748	
934	0	32800	
935	0	32766	
936	0	32836	
937	0	32744	
938	0	32782	
939	0	32838	
940	0	32832	
941	0	32842	
942	0	32822	
943	0	32809	
944	0	32768	
945	0	32796	
946	0	32745	
947	0	32839	
948	0	32855	
949	0	32809	
950	0	32849	
951	0	32790	
952	0	32839	
953	0	32871	
954	0	32850	
955	0	32862	
956	0	32788	
957	0	32790	
958	0	32760	
959	0	32786	
960	0	32792	
961	0	32729	
962	0	32800	
963	0	32775	
964	0	32816	
965	0	32874	
966	0	32812	
967	0	32858	
968	0	32817	
969	0	32751	
970	0	32746	
971	0	32816	
972	0	32834	
973	0	32870	
974	0	32832	
975	0	32817	
976	0	32834	
977	0	32795	
978	0	32775	
979	0	32755	
980	0	32812	
981	0	32832	
982	0	32850	
983	0	32835	
984	0	32863	
985	0	32775	
986	0	32826	
987	0	32823	
988	0	32774	
989	0	32775	
990	0	32798	
991	0	32807	
992	0	32846	
993	0	32812	
994	0	32839	
995	0	32856	
996	0	32794	
997	0	32802	
998	0	32822	
999	0	32775	
1000	0	32774	
1001	0	32829	
1002	0	32933	
1003	0	32912	
1004	0	32899	
1005	0	32877	
1006	0	32900	
1007	0	32832	
1008	0	32806	
1009	0	32734	
1010	0	32736	
1011	0	32610	
1012	0	32718	
1013	0	32744	
1014	0	32740	
1015	0	32809	
1016	0	32772	
1017	0	32766	
1018	0	32808	
1019	0	32768	
1020	0	32856	
1021	0	32837	
1022	0	32882	
1023	0	32880	
1024	0	32766	
1025	0	32813	
1026	0	32772	
1027	0	32720	
1028	0	32708	
1029	0	32740	
1030	0	32772	
1031	0	32736	
1032	0	32803	
1033	0	32817	
1034	0	32886	
1035	0	32932	
1036	0	32896	
1037	0	32848	
1038	0	32743	
1039	0	32790	
1040	0	32832	
1041	0	32827	
1042	0	32790	
1043	0	32750	
1044	0	32770	
1045	0	32822	
1046	0	32788	
1047	0	32810	
1048	0	32845	
1049	0	32840	
1050	0	32893	
1051	0	32938	
1052	0	32916	
1053	0	32917	
1054	0	32898	
1055	0	32848	
1056	0	32840	
1057	0	32816	
1058	0	32896	
1059	0	32790	
1060	0	32844	
1061	0	32822	
1062	0	32813	
1063	0	32729	
1064	0	32744	
1065	0	32689	
1066	0	32696	
1067	0	32742	
1068	0	32820	
1069	0	32828	
1070	0	32834	
1071	0	32920	
1072	0	32886	
1073	0	32836	
1074	0	32775	
1075	0	32743	
1076	0	32775	
1077	0	32770	
1078	0	32760	
1079	0	32760	
1080	0	32760	
1081	0	32774	
1082	0	32824	
1083	0	32786	
1084	0	32876	
1085	0	32839	
1086	0	32819	
1087	0	32854	
1088	0	32811	
1089	0	32788	
1090	0	32775	
1091	0	32742	
1092	0	32741	
1093	0	32812	
1094	0	32812	
1095	0	32804	
1096	0	32768	
1097	0	32817	
1098	0	32838	
1099	0	32866	
1100	0	32794	
1101	0	32765	
1102	0	32745	
1103	0	32737	
1104	0	32791	
1105	0	32813	
1106	0	32786	
1107	0	32764	
1108	0	32775	
1109	0	32808	
1110	0	32794	
1111	0	32839	
1112	0	32888	
1113	0	32924	
1114	0	32865	
1115	0	32799	
1116	0	32855	
1117	0	32896	
1118	0	32903	
1119	0	32914	
1120	0	32940	
1121	0	32887	
1122	0	32873	
1123	0	32900	
1124	0	32844	
1125	0	32748	
1126	0	32725	
1127	0	32696	
1128	0	32699	
1129	0	32793	
1130	0	32764	
1131	0	32792	
1132	0	32756	
1133	0	32796	
1134	0	32717	
1135	0	32840	
1136	0	32890	
1137	0	32832	
1138	0	32744	
1139	0	32744	
1140	0	32772	
1141	0	32741	
1142	0	32812	
1143	0	32864	
1144	0	32852	
1145	0	32910	
1146	0	32806	
1147	0	32844	
1148	0	32903	
1149	0	32890	
1150	0	32864	
1151	0	32860	
1152	0	32786	
1153	0	32800	
1154	0	32824	
1155	0	32848	
1156	0	32758	
1157	0	32701	
1158	0	32751	
1159	0	32760	
1160	0	32775	
1161	0	32769	
1162	0	32796	
1163	0	32775	
1164	0	32782	
1165	0	32864	
1166	0	32861	
1167	0	32848	
1168	0	32868	
1169	0	32868	
1170	0	32798	
1171	0	32775	
1172	0	32707	
1173	0	32788	
1174	0	32767	
1175	0	32842	
1176	0	32752	
1177	0	32739	
1178	0	32748	
1179	0	32720	
1180	0	32746	
1181	0	32743	
1182	0	32821	
1183	0	32808	
1184	0	32864	
1185	0	32895	
1186	0	32903	
1187	0	32892	
1188	0	32813	
1189	0	32814	
1190	0	32829	
1191	0	32816	
1192	0	32759	
1193	0	32775	
1194	0	32772	
1195	0	32768	
1196	0	32843	
1197	0	32848	
1198	0	32825	
1199	0	32839	
1200	0	32883	
1201	0	32872	
1202	0	32920	
1203	0	32914	
1204	0	32902	
1205	0	32872	
1206	0	32820	
1207	0	32827	
1208	0	32820	
1209	0	32756	
1210	0	32797	
1211	0	32775	
1212	0	32749	
1213	0	32788	
1214	0	32775	
1215	0	32760	
1216	0	32806	
1217	0	32814	
1218	0	32894	
1219	0	32858	
1220	0	32805	
1221	0	32857	
1222	0	32762	
1223	0	32749	
1224	0	32732	
1225	0	32754	
1226	0	32740	
1227	0	32811	
1228	0	32786	
1229	0	32764	
1230	0	32632	
1231	0	32665	
1232	0	32731	
1233	0	32760	
1234	0	32797	
1235	0	32840	
1236	0	32865	
1237	0	32848	
1238	0	32844	
1239	0	32844	
1240	0	32896	
1241	0	32868	
1242	0	32903	
1243	0	32936	
1244	0	32924	
1245	0	32903	
1246	0	32917	
1247	0	32919	
1248	0	32924	
1249	0	32891	
1250	0	32829	
1251	0	32748	
1252	0	32696	
1253	0	32576	
1254	0	32612	
1255	0	32687	
1256	0	32724	
1257	0	32711	
1258	0	32748	
1259	0	32745	
1260	0	32890	
1261	0	32824	
1262	0	32845	
1263	0	32756	
1264	0	32733	
1265	0	32714	
1266	0	32753	
1267	0	32787	
1268	0	32834	
1269	0	32917	
1270	0	32861	
1271	0	32886	
1272	0	32808	
1273	0	32860	
1274	0	32846	
1275	0	32831	
1276	0	32775	
1277	0	32851	
1278	0	32904	
1279	0	32844	
1280	0	32842	
1281	0	32809	
1282	0	32775	
1283	0	32711	
1284	0	32679	
1285	0	32653	
1286	0	32711	
1287	0	32710	
1288	0	32812	
1289	0	32826	
1290	0	32818	
1291	0	32837	
1292	0	32846	
1293	0	32896	
1294	0	32834	
1295	0	32821	
1296	0	32828	
1297	0	32804	
1298	0	32868	
1299	0	32768	
1300	0	32794	
1301	0	32886	
1302	0	32829	
1303	0	32866	
1304	0	32848	
1305	0	32902	
1306	0	32866	
1307	0	32802	
1308	0	32844	
1309	0	32775	
1310	0	32814	
1311	0	32741	
1312	0	32790	
1313	0	32794	
1314	0	32800	
1315	0	32816	
1316	0	32716	
1317	0	32868	
1318	0	32770	
1319	0	32717	
1320	0	32743	
1321	0	32749	
1322	0	32743	
1323	0	32762	
1324	0	32805	
1325	0	32910	
1326	0	32947	
1327	0	32914	
1328	0	32834	
1329	0	32846	
1330	0	32928	
1331	0	32892	
1332	0	32880	
1333	0	32858	
1334	0	32888	
1335	0	32852	
1336	0	32866	
1337	0	32832	
1338	0	32824	
1339	0	32810	
1340	0	32890	
1341	0	32809	
1342	0	32818	
1343	0	32727	
1344	0	32686	
1345	0	32736	
1346	0	32688	
1347	0	32702	
1348	0	32741	
1349	0	32720	
1350	0	32795	
1351	0	32762	
1352	0	32808	
1353	0	32894	
1354	0	32808	
1355	0	32826	
1356	0	32839	
1357	0	32817	
1358	0	32816	
1359	0	32796	
1360	0	32800	
1361	0	32752	
1362	0	32760	
1363	0	32720	
1364	0	32759	
1365	0	32772	
1366	0	32808	
1367	0	32799	
1368	0	32864	
1369	0	32893	
1370	0	32868	
1371	0	32878	
1372	0	32903	
1373	0	32838	
1374	0	32908	
1375	0	32775	
1376	0	32746	
1377	0	32694	
1378	0	32735	
1379	0	32722	
1380	0	32824	
1381	0	32806	
1382	0	32796	
1383	0	32833	
1384	0	32759	
1385	0	32860	
1386	0	32860	
1387	0	32816	
1388	0	32835	
1389	0	32774	
1390	0	32736	
1391	0	32765	
1392	0	32761	
1393	0	32828	
1394	0	32804	
1395	0	32774	
1396	0	32824	
1397	0	32722	
1398	0	32761	
1399	0	32797	
1400	0	32802	
1401	0	32764	
1402	0	32836	
1403	0	32832	
1404	0	32891	
1405	0	32872	
1406	0	32804	
1407	0	32856	
1408	0	32902	
1409	0	32876	
1410	0	32878	
1411	0	32804	
1412	0	32798	
1413	0	32840	
1414	0	32821	
1415	0	32840	
1416	0	32791	
1417	0	32752	
1418	0	32741	
1419	0	32720	
1420	0	32863	
1421	0	32875	
1422	0	32838	
1423	0	32842	
1424	0	32858	
1425	0	32868	
1426	0	32868	
1427	0	32775	
1428	0	32794	
1429	0	32775	
1430	0	32854	
1431	0	32830	
1432	0	32822	
1433	0	32772	
1434	0	32763	
1435	0	32799	
1436	0	32793	
1437	0	32790	
1438	0	32754	
1439	0	32754	
1440	0	32804	
1441	0	32775	
1442	0	32870	
1443	0	32799	
1444	0	32771	
1445	0	32837	
1446	0	32775	
1447	0	32834	
1448	0	32826	
1449	0	32843	
1450	0	32802	
1451	0	32750	
1452	0	32792	
1453	0	32738	
1454	0	32762	
1455	0	32833	
1456	0	32812	
1457	0	32844	
1458	0	32802	
1459	0	32806	
1460	0	32798	
1461	0	32765	
1462	0	32857	
1463	0	32825	
1464	0	32824	
1465	0	32848	
1466	0	32823	
1467	0	32876	
1468	0	32879	
1469	0	32868	
1470	0	32772	
1471	0	32743	
1472	0	32740	
1473	0	32768	
1474	0	32764	
1475	0	32821	
1476	0	32829	
1477	0	32839	
1478	0	32882	
1479	0	32812	
1480	0	32875	
1481	0	32897	
1482	0	32784	
1483	0	32768	
1484	0	32810	
1485	0	32860	
1486	0	32820	
1487	0	32793	
1488	0	32834	
1489	0	32839	
1490	0	32774	
1491	0	32792	
1492	0	32772	
1493	0	32765	
1494	0	32718	
1495	0	32742	
1496	0	32749	
1497	0	32796	
1498	0	32839	
1499	0	32829	
1500	0	32824	
1501	0	32829	
1502	0	32815	
1503	0	32772	
1504	0	32850	
1505	0	32775	
1506	0	32844	
1507	0	32839	
1508	0	32814	
1509	0	32797	
1510	0	32844	
1511	0	32832	
1512	0	32817	
1513	0	32814	
1514	0	32824	
1515	0	32809	
1516	0	32760	
1517	0	32812	
1518	0	32775	
1519	0	32742	
1520	0	32755	
1521	0	32855	
1522	0	32872	
1523	0	32797	
1524	0	32800	
1525	0	32832	
1526	0	32748	
1527	0	32748	
1528	0	32803	
1529	0	32831	
1530	0	32810	
1531	0	32860	
1532	0	32866	
1533	0	32808	
1534	0	32738	
1535	0	32711	
1536	0	32728	
1537	0	32624	
1538	0	32698	
1539	0	32674	
1540	0	32716	
1541	0	32711	
1542	0	32740	
1543	0	32883	
1544	0	32832	
1545	0	32870	
1546	0	32927	
1547	0	32842	
1548	0	32926	
1549	0	32960	
1550	0	32915	
1551	0	32928	
1552	0	32882	
1553	0	32864	
1554	0	32839	
1555	0	32876	
1556	0	32870	
1557	0	32829	
1558	0	32800	
1559	0	32804	
1560	0	32800	
1561	0	32816	
1562	0	32828	
1563	0	32811	
1564	0	32819	
1565	0	32773	
1566	0	32758	
1567	0	32766	
1568	0	32808	
1569	0	32792	
1570	0	32823	
1571	0	32788	
1572	0	32761	
1573	0	32730	
1574	0	32740	
1575	0	32714	
1576	0	32711	
1577	0	32724	
1578	0	32706	
1579	0	32808	
1580	0	32754	
1581	0	32830	
1582	0	32837	
1583	0	32848	
1584	0	32880	
1585	0	32943	
1586	0	32918	
1587	0	32912	
1588	0	32944	
1589	0	32889	
1590	0	32775	
1591	0	32743	
1592	0	32805	
1593	0	32796	
1594	0	32807	
1595	0	32786	
1596	0	32775	
1597	0	32813	
1598	0	32863	
1599	0	32800	
1600	0	32791	
1601	0	32852	
1602	0	32868	
1603	0	32845	
1604	0	32896	
1605	0	32804	
1606	0	32804	
1607	0	32775	
1608	0	32708	
1609	0	32814	
1610	0	32887	
1611	0	32853	
1612	0	32839	
1613	0	32815	
1614	0	32834	
1615	0	32808	
1616	0	32864	
1617	0	32878	
1618	0	32833	
1619	0	32884	
1620	0	32772	
1621	0	32807	
1622	0	32775	
1623	0	32775	
1624	0	32762	
1625	0	32784	
1626	0	32807	
1627	0	32734	
1628	0	32680	
1629	0	32723	
1630	0	32794	
1631	0	32817	
1632	0	32804	
1633	0	32862	
1634	0	32768	
1635	0	32805	
1636	0	32730	
1637	0	32775	
1638	0	32682	
1639	0	32796	
1640	0	32842	
1641	0	32866	
1642	0	32861	
1643	0	32770	
1644	0	32740	
1645	0	32702	
1646	0	32758	
1647	0	32822	
1648	0	32854	
1649	0	32874	
1650	0	32852	
1651	0	32866	
1652	0	32798	
1653	0	32788	
1654	0	32816	
1655	0	32791	
1656	0	32834	
1657	0	32775	
1658	0	32802	
1659	0	32824	
1660	0	32882	
1661	0	32903	
1662	0	32895	
1663	0	32888	
1664	0	32873	
1665	0	32832	
1666	0	32720	
1667	0	32713	
1668	0	32754	
1669	0	32775	
1670	0	32809	
1671	0	32810	
1672	0	32821	
1673	0	32844	
1674	0	32864	
1675	0	32811	
1676	0	32796	
1677	0	32837	
1678	0	32846	
1679	0	32849	
1680	0	32846	
1681	0	32790	
1682	0	32749	
1683	0	32796	
1684	0	32848	
1685	0	32771	
1686	0	32768	
1687	0	32756	
1688	0	32765	
1689	0	32768	
1690	0	32768	
1691	0	32834	
1692	0	32919	
1693	0	32919	
1694	0	32976	
1695	0	32967	
1696	0	32956	
1697	0	32959	
1698	0	32930	
1699	0	32918	
1700	0	32828	
1701	0	32791	
1702	0	32676	
1703	0	32654	
1704	0	32624	
1705	0	32654	
1706	0	32652	
1707	0	32680	
1708	0	32708	
1709	0	32704	
1710	0	32730	
1711	0	32800	
1712	0	32860	
1713	0	32860	
1714	0	32857	
1715	0	32808	
1716	0	32775	
1717	0	32852	
1718	0	32817	
1719	0	32754	
1720	0	32772	
1721	0	32802	
1722	0	32786	
1723	0	32740	
1724	0	32760	
1725	0	32719	
1726	0	32712	
1727	0	32642	
1728	0	32765	
1729	0	32839	
1730	0	32741	
1731	0	32809	
1732	0	32796	
1733	0	32794	
1734	0	32750	
1735	0	32762	
1736	0	32806	
1737	0	32903	
1738	0	32909	
1739	0	32762	
1740	0	32775	
1741	0	32758	
1742	0	32762	
1743	0	32726	
1744	0	32696	
1745	0	32767	
1746	0	32742	
1747	0	32814	
1748	0	32878	
1749	0	32916	
1750	0	32869	
1751	0	32803	
1752	0	32830	
1753	0	32897	
1754	0	32861	
1755	0	32962	
1756	0	32933	
1757	0	32832	
1758	0	32872	
1759	0	32774	
1760	0	32832	
1761	0	32792	
1762	0	32811	
1763	0	32829	
1764	0	32800	
1765	0	32878	
1766	0	32836	
1767	0	32902	
1768	0	32882	
1769	0	32884	
1770	0	32848	
1771	0	32820	
1772	0	32823	
1773	0	32846	
1774	0	32804	
1775	0	32714	
1776	0	32708	
1777	0	32680	
1778	0	32744	
1779	0	32766	
1780	0	32817	
1781	0	32775	
1782	0	32775	
1783	0	32809	
1784	0	32844	
1785	0	32850	
1786	0	32928	
1787	0	32880	
1788	0	32828	
1789	0	32853	
1790	0	32860	
1791	0	32829	
1792	0	32882	
1793	0	32803	
1794	0	32743	
1795	0	32732	
1796	0	32738	
1797	0	32700	
1798	0	32775	
1799	0	32801	
1800	0	32828	
1801	0	32950	
1802	0	32912	
1803	0	32903	
1804	0	32848	
1805	0	32769	
1806	0	32771	
1807	0	32828	
1808	0	32884	
1809	0	32866	
1810	0	32892	
1811	0	32842	
1812	0	32823	
1813	0	32775	
1814	0	32817	
1815	0	32823	
1816	0	32846	
1817	0	32770	
1818	0	32754	
1819	0	32729	
1820	0	32669	
1821	0	32708	
1822	0	32734	
1823	0	32694	
1824	0	32710	
1825	0	32775	
1826	0	32840	
1827	0	32955	
1828	0	32888	
1829	0	32896	
1830	0	32868	
1831	0	32852	
1832	0	32832	
1833	0	32852	
1834	0	32886	
1835	0	32808	
1836	0	32775	
1837	0	32774	
1838	0	32768	
1839	0	32744	
1840	0	32788	
1841	0	32852	
1842	0	32854	
1843	0	32795	
1844	0	32768	
1845	0	32814	
1846	0	32834	
1847	0	32840	
1848	0	32737	
1849	0	32762	
1850	0	32725	
1851	0	32613	
1852	0	32648	
1853	0	32698	
1854	0	32649	
1855	0	32752	
1856	0	32775	
1857	0	32815	
1858	0	32815	
1859	0	32830	
1860	0	32874	
1861	0	32877	
1862	0	32836	
1863	0	32863	
1864	0	32881	
1865	0	32924	
1866	0	32903	
1867	0	32875	
1868	0	32790	
1869	0	32816	
1870	0	32884	
1871	0	32890	
1872	0	32762	
1873	0	32773	
1874	0	32836	
1875	0	32816	
1876	0	32879	
1877	0	32848	
1878	0	32898	
1879	0	32868	
1880	0	32864	
1881	0	32800	
1882	0	32798	
1883	0	32896	
1884	0	32872	
1885	0	32865	
1886	0	32850	
1887	0	32834	
1888	0	32797	
1889	0	32755	
1890	0	32770	
1891	0	32768	
1892	0	32775	
1893	0	32774	
1894	0	32755	
1895	0	32767	
1896	0	32788	
1897	0	32738	
1898	0	32744	
1899	0	32722	
1900	0	32736	
1901	0	32711	
1902	0	32765	
1903	0	32840	
1904	0	32854	
1905	0	32888	
1906	0	32819	
1907	0	32825	
1908	0	32842	
1909	0	32845	
1910	0	32841	
1911	0	32812	
1912	0	32828	
1913	0	32885	
1914	0	32805	
1915	0	32903	
1916	0	32890	
1917	0	32780	
1918	0	32752	
1919	0	32802	
1920	0	32772	
1921	0	32732	
1922	0	32765	
1923	0	32775	
1924	0	32812	
1925	0	32823	
1926	0	32765	
1927	0	32752	
1928	0	32800	
1929	0	32807	
1930	0	32804	
1931	0	32816	
1932	0	32795	
1933	0	32822	
1934	0	32884	
1935	0	32912	
1936	0	32901	
1937	0	32902	
1938	0	32892	
1939	0	32903	
1940	0	32878	
1941	0	32851	
1942	0	32792	
1943	0	32842	
1944	0	32775	
1945	0	32831	
1946	0	32772	
1947	0	32719	
1948	0	32797	
1949	0	32838	
1950	0	32816	
1951	0	32706	
1952	0	32678	
1953	0	32674	
1954	0	32692	
1955	0	32740	
1956	0	32722	
1957	0	32734	
1958	0	32731	
1959	0	32712	
1960	0	32712	
1961	0	32748	
1962	0	32832	
1963	0	32836	
1964	0	32877	
1965	0	32811	
1966	0	32775	
1967	0	32831	
1968	0	32850	
1969	0	32768	
1970	0	32792	
1971	0	32839	
1972	0	32814	
1973	0	32874	
1974	0	32837	
1975	0	32864	
1976	0	32809	
1977	0	32839	
1978	0	32788	
1979	0	32769	
1980	0	32828	
1981	0	32836	
1982	0	32868	
1983	0	32903	
1984	0	32970	
1985	0	32978	
1986	0	32919	
1987	0	32930	
1988	0	32967	
1989	0	32912	
1990	0	32886	
1991	0	32796	
1992	0	32759	
1993	0	32706	
1994	0	32765	
1995	0	32722	
1996	0	32758	
1997	0	32743	
1998	0	32796	
1999	0	32747	
2000	0	32749	
2001	0	32720	
2002	0	32795	
2003	0	32823	
2004	0	32730	
2005	0	32774	
2006	0	32775	
2007	0	32750	
2008	0	32754	
2009	0	32690	
2010	0	32793	
2011	0	32775	
2012	0	32824	
2013	0	32836	
2014	0	32845	
2015	0	32853	
2016	0	32927	
2017	0	32895	
2018	0	32837	
2019	0	32847	
2020	0	32896	
2021	0	32927	
2022	0	32890	
2023	0	32886	
2024	0	32902	
2025	0	32886	
2026	0	32863	
2027	0	32793	
2028	0	32748	
2029	0	32770	
2030	0	32808	
2031	0	32710	
2032	0	32829	
2033	0	32793	
2034	0	32685	
2035	0	32731	
2036	0	32775	
2037	0	32775	
2038	0	32775	
2039	0	32764	
2040	0	32732	
2041	0	32729	
2042	0	32748	
2043	0	32728	
2044	0	32768	
2045	0	32800	
2046	0	32807	
2047	0	32796	
2048	0	32828	
2049	0	32813	
2050	0	32864	
2051	0	32792	
2052	0	32746	
2053	0	32768	
2054	0	32839	
2055	0	32836	
2056	0	32775	
2057	0	32752	
2058	0	32766	
2059	0	32775	
2060	0	32870	
2061	0	32932	
2062	0	32981	
2063	0	32921	
2064	0	32869	
2065	0	32977	
2066	0	32896	
2067	0	32929	
2068	0	32860	
2069	0	32831	
2070	0	32811	
2071	0	32774	
2072	0	32741	
2073	0	32752	
2074	0	32710	
2075	0	32738	
2076	0	32753	
2077	0	32756	
2078	0	32820	
2079	0	32805	
2080	0	32816	
2081	0	32809	
2082	0	32760	
2083	0	32770	
2084	0	32767	
2085	0	32795	
2086	0	32798	
2087	0	32825	
2088	0	32861	
2089	0	32870	
2090	0	32811	
2091	0	32775	
2092	0	32807	
2093	0	32742	
2094	0	32764	
2095	0	32806	
2096	0	32792	
2097	0	32738	
2098	0	32794	
2099	0	32804	
2100	0	32775	
2101	0	32841	
2102	0	32802	
2103	0	32843	
2104	0	32847	
2105	0	32882	
2106	0	32758	
2107	0	32794	
2108	0	32867	
2109	0	32940	
2110	0	32862	
2111	0	32826	
2112	0	32796	
2113	0	32758	
2114	0	32720	
2115	0	32750	
2116	0	32814	
2117	0	32805	
2118	0	32862	
2119	0	32896	
2120	0	32938	
2121	0	32967	
2122	0	32967	
2123	0	32896	
2124	0	32855	
2125	0	32828	
2126	0	32800	
2127	0	32738	
2128	0	32690	
2129	0	32775	
2130	0	32746	
2131	0	32735	
2132	0	32757	
2133	0	32786	
2134	0	32798	
2135	0	32839	
2136	0	32882	
2137	0	32848	
2138	0	32817	
2139	0	32745	
2140	0	32760	
2141	0	32758	
2142	0	32772	
2143	0	32800	
2144	0	32863	
2145	0	32903	
2146	0	32858	
2147	0	32860	
2148	0	32775	
2149	0	32820	
2150	0	32860	
2151	0	32824	
2152	0	32746	
2153	0	32784	
2154	0	32790	
2155	0	32805	
2156	0	32775	
2157	0	32800	
2158	0	32823	
2159	0	32764	
2160	0	32847	
2161	0	32775	
2162	0	32813	
2163	0	32932	
2164	0	32924	
2165	0	33003	
2166	0	32934	
2167	0	32908	
2168	0	32921	
2169	0	32892	
2170	0	32893	
2171	0	32813	
2172	0	32839	
2173	0	32826	
2174	0	32797	
2175	0	32743	
2176	0	32666	
2177	0	32756	
2178	0	32748	
2179	0	32706	
2180	0	32760	
2181	0	32775	
2182	0	32737	
2183	0	32765	
2184	0	32750	
2185	0	32736	
2186	0	32738	
2187	0	32796	
2188	0	32866	
2189	0	32786	
2190	0	32857	
2191	0	32892	
2192	0	32806	
2193	0	32711	
2194	0	32688	
2195	0	32742	
2196	0	32804	
2197	0	32799	
2198	0	32887	
2199	0	32885	
2200	0	32858	
2201	0	32850	
2202	0	32838	
2203	0	32868	
2204	0	32684	
2205	0	32738	
2206	0	32716	
2207	0	32720	
2208	0	32741	
2209	0	32820	
2210	0	32844	
2211	0	32878	
2212	0	32863	
2213	0	32861	
2214	0	32771	
2215	0	32785	
2216	0	32848	
2217	0	32906	
2218	0	32961	
2219	0	32996	
2220	0	32988	
2221	0	32933	
2222	0	32962	
2223	0	32918	
2224	0	32826	
2225	0	32792	
2226	0	32799	
2227	0	32807	
2228	0	32880	
2229	0	32800	
2230	0	32772	
2231	0	32775	
2232	0	32728	
2233	0	32710	
2234	0	32708	
2235	0	32722	
2236	0	32645	
2237	0	32728	
2238	0	32679	
2239	0	32696	
2240	0	32726	
2241	0	32807	
2242	0	32798	
2243	0	32790	
2244	0	32758	
2245	0	32703	
2246	0	32733	
2247	0	32822	
2248	0	32796	
2249	0	32826	
2250	0	32868	
2251	0	32749	
2252	0	32797	
2253	0	32824	
2254	0	32820	
2255	0	32840	
2256	0	32922	
2257	0	32940	
2258	0	32927	
2259	0	32876	
2260	0	32843	
2261	0	32854	
2262	0	32860	
2263	0	32887	
2264	0	32866	
2265	0	32856	
2266	0	32882	
2267	0	32890	
2268	0	32821	
2269	0	32804	
2270	0	32860	
2271	0	32860	
2272	0	32804	
2273	0	32820	
2274	0	32808	
2275	0	32734	
2276	0	32722	
2277	0	32662	
2278	0	32676	
2279	0	32775	
2280	0	32857	
2281	0	32886	
2282	0	32857	
2283	0	32806	
2284	0	32804	
2285	0	32830	
2286	0	32786	
2287	0	32805	
2288	0	32864	
2289	0	32848	
2290	0	32860	
2291	0	32917	
2292	0	32873	
2293	0	32940	
2294	0	32900	
2295	0	32856	
2296	0	32855	
2297	0	32863	
2298	0	32863	
2299	0	32863	
2300	0	32788	
2301	0	32804	
2302	0	32692	
2303	0	32658	
2304	0	32741	
2305	0	32696	
2306	0	32702	
2307	0	32688	
2308	0	32726	
2309	0	32696	
2310	0	32684	
2311	0	32734	
2312	0	32775	
2313	0	32870	
2314	0	32844	
2315	0	32908	
2316	0	32858	
2317	0	32884	
2318	0	32856	
2319	0	32800	
2320	0	32798	
2321	0	32736	
2322	0	32698	
2323	0	32713	
2324	0	32685	
2325	0	32759	
2326	0	32756	
2327	0	32756	
2328	0	32806	
2329	0	32842	
2330	0	32898	
2331	0	32914	
2332	0	32963	
2333	0	32900	
2334	0	32886	
2335	0	32842	
2336	0	32816	
2337	0	32740	
2338	0	32699	
2339	0	32687	
2340	0	32642	
2341	0	32662	
2342	0	32726	
2343	0	32824	
2344	0	32822	
2345	0	32846	
2346	0	32816	
2347	0	32799	
2348	0	32871	
2349	0	32940	
2350	0	32967	
2351	0	32951	
2352	0	32938	
2353	0	32980	
2354	0	32941	
2355	0	32849	
2356	0	32796	
2357	0	32814	
2358	0	32860	
2359	0	32758	
2360	0	32756	
2361	0	32726	
2362	0	32774	
2363	0	32755	
2364	0	32770	
2365	0	32782	
2366	0	32839	
2367	0	32845	
2368	0	32774	
2369	0	32775	
2370	0	32790	
2371	0	32798	
2372	0	32784	
2373	0	32839	
2374	0	32839	
2375	0	32800	
2376	0	32925	
2377	0	32882	
2378	0	32860	
2379	0	32846	
2380	0	32796	
2381	0	32726	
2382	0	32775	
2383	0	32790	
2384	0	32839	
2385	0	32836	
2386	0	32872	
2387	0	32900	
2388	0	32804	
2389	0	32756	
2390	0	32804	
2391	0	32848	
2392	0	32789	
2393	0	32760	
2394	0	32696	
2395	0	32746	
2396	0	32716	
2397	0	32748	
2398	0	32802	
2399	0	32818	
2400	0	32914	
2401	0	32904	
2402	0	32857	
2403	0	32822	
2404	0	32886	
2405	0	32917	
2406	0	32880	
2407	0	32954	
2408	0	32908	
2409	0	32839	
2410	0	32793	
2411	0	32792	
2412	0	32682	
2413	0	32821	
2414	0	32825	
2415	0	32775	
2416	0	32854	
2417	0	32866	
2418	0	32830	
2419	0	32871	
2420	0	32792	
2421	0	32774	
2422	0	32766	
2423	0	32700	
2424	0	32772	
2425	0	32732	
2426	0	32644	
2427	0	32620	
2428	0	32644	
2429	0	32629	
2430	0	32732	
2431	0	32759	
2432	0	32873	
2433	0	32932	
2434	0	32999	
2435	0	32936	
2436	0	32862	
2437	0	32828	
2438	0	32878	
2439	0	32890	
2440	0	32903	
2441	0	32812	
2442	0	32796	
2443	0	32810	
2444	0	32767	
2445	0	32666	
2446	0	32688	
2447	0	32708	
2448	0	32732	
2449	0	32716	
2450	0	32744	
2451	0	32772	
2452	0	32858	
2453	0	32874	
2454	0	32843	
2455	0	32856	
2456	0	32748	
2457	0	32718	
2458	0	32730	
2459	0	32710	
2460	0	32828	
2461	0	32863	
2462	0	32839	
2463	0	32878	
2464	0	32837	
2465	0	32832	
2466	0	32814	
2467	0	32806	
2468	0	32842	
2469	0	32832	
2470	0	32862	
2471	0	32839	
2472	0	32807	
2473	0	32810	
2474	0	32824	
2475	0	32825	
2476	0	32842	
2477	0	32794	
2478	0	32800	
2479	0	32806	
2480	0	32775	
2481	0	32802	
2482	0	32754	
2483	0	32754	
2484	0	32767	
2485	0	32767	
2486	0	32792	
2487	0	32759	
2488	0	32784	
2489	0	32825	
2490	0	32862	
2491	0	32944	
2492	0	32958	
2493	0	32956	
2494	0	33042	
2495	0	32991	
2496	0	32964	
2497	0	32975	
2498	0	32903	
2499	0	32903	
2500	0	32850	
2501	0	32774	
2502	0	32730	
2503	0	32775	
2504	0	32802	
2505	0	32816	
2506	0	32938	
2507	0	33390	
2508	0	34392	
2509	0	34522	
2510	0	34068	
2511	0	33324	
2512	0	32878	
2513	0	32508	
2514	0	32167	
2515	0	32284	
2516	0	32484	
2517	0	33392	
2518	0	34589	
2519	0	35560	
2520	0	35476	
2521	0	34164	
2522	0	32344	
2523	0	30540	
2524	0	28998	
2525	0	26600	
2526	0	26412	
2527	0	27778	
2528	0	29420	
2529	0	31201	
2530	0	32766	
2531	0	33664	
2532	0	34117	
2533	0	34245	
2534	0	34260	
2535	0	34353	
2536	0	34800	
2537	0	34948	
2538	0	34578	
2539	0	34420	
2540	0	34388	
2541	0	33582	
2542	0	33964	
2543	0	34136	
2544	0	33159	
2545	0	33175	
2546	0	34076	
2547	0	34927	
2548	0	35754	
2549	0	37152	
2550	0	36665	
2551	0	36996	
2552	0	36770	
2553	0	31385	
2554	0	26821	
2555	0	27810	
2556	0	30831	
2557	0	32477	
2558	0	31828	
2559	0	35776	
2560	0	41344	
2561	0	38200	
2562	0	31352	
2563	0	24406	
2564	0	22682	
2565	0	32468	
2566	0	39468	
2567	0	44588	
2568	0	44102	
2569	0	35398	
2570	0	15056	
2571	0	6277	
2572	0	16300	
2573	0	26370	
2574	0	29394	
2575	0	30330	
2576	0	28839	
2577	0	28386	
2578	0	37780	
2579	0	49594	
2580	0	50900	
2581	0	51564	
2582	0	47476	
2583	0	33364	
2584	0	21128	
2585	0	17530	
2586	0	14192	
2587	0	14082	
2588	0	16608	
2589	0	28160	
2590	0	35148	
2591	0	38720	
2592	0	39100	
2593	0	42170	
2594	0	48768	
2595	0	43272	
2596	0	31944	
2597	0	30357	
2598	0	25068	
2599	0	24208	
2600	0	34017	
2601	0	35250	
2602	0	38616	
2603	0	41220	
2604	0	40293	
2605	0	37530	
2606	0	33284	
2607	0	30544	
2608	0	35714	
2609	0	40044	
2610	0	41538	
2611	0	34572	
2612	0	18864	
2613	0	8744	
2614	0	19692	
2615	0	30668	
2616	0	36976	
2617	0	39549	
2618	0	39964	
2619	0	41652	
2620	0	42736	
2621	0	43292	
2622	0	41324	
2623	0	35512	
2624	0	27836	
2625	0	21353	
2626	0	19400	
2627	0	22984	
2628	0	33612	
2629	0	40790	
2630	0	37364	
2631	0	31369	
2632	0	28544	
2633	0	21382	
2634	0	24676	
2635	0	33466	
2636	0	35987	
2637	0	36040	
2638	0	37942	
2639	0	35890	
2640	0	34166	
2641	0	34992	
2642	0	33272	
2643	0	33088	
2644	0	36272	
2645	0	37255	
2646	0	35734	
2647	0	32208	
2648	0	27748	
2649	0	25132	
2650	0	26436	
2651	0	29333	
2652	0	31111	
2653	0	33637	
2654	0	35768	
2655	0	36422	
2656	0	36611	
2657	0	36332	
2658	0	35672	
2659	0	32570	
2660	0	30599	
2661	0	32420	
2662	0	34438	
2663	0	38604	
2664	0	39649	
2665	0	35894	
2666	0	34496	
2667	0	26472	
2668	0	22786	
2669	0	25412	
2670	0	28507	
2671	0	30532	
2672	0	33316	
2673	0	34376	
2674	0	34586	
2675	0	33814	
2676	0	33903	
2677	0	33448	
2678	0	33011	
2679	0	33281	
2680	0	33550	
2681	0	33488	
2682	0	33493	
2683	0	33462	
2684	0	33368	
2685	0	33320	
2686	0	33228	
2687	0	33436	
2688	0	33389	
2689	0	32896	
2690	0	32760	
2691	0	32316	
2692	0	32724	
2693	0	32858	
2694	0	32821	
2695	0	32813	
2696	0	32808	
2697	0	32775	
2698	0	32749	
2699	0	32711	
2700	0	32719	
2701	0	32701	
2702	0	32694	
2703	0	32676	
2704	0	32704	
2705	0	32724	
2706	0	32647	
2707	0	32711	
2708	0	32771	
2709	0	32765	
2710	0	32746	
2711	0	32838	
2712	0	32890	
2713	0	32896	
2714	0	32846	
2715	0	32868	
2716	0	32966	
2717	0	32914	
2718	0	32791	
2719	0	32812	
2720	0	32775	
2721	0	32873	
2722	0	32768	
2723	0	32775	
2724	0	32741	
2725	0	32732	
2726	0	32762	
2727	0	32720	
2728	0	32722	
2729	0	32765	
2730	0	32801	
2731	0	32812	
2732	0	32860	
2733	0	32873	
2734	0	32772	
2735	0	32685	
2736	0	32656	
2737	0	32760	
2738	0	32871	
2739	0	32825	
2740	0	32886	
2741	0	32822	
2742	0	32804	
2743	0	32754	
2744	0	32740	
2745	0	32775	
2746	0	32760	
2747	0	32744	
2748	0	32758	
2749	0	32802	
2750	0	32802	
2751	0	32858	
2752	0	32845	
2753	0	32848	
2754	0	32839	
2755	0	32838	
2756	0	32796	
2757	0	32789	
2758	0	32866	
2759	0	32744	
2760	0	32822	
2761	0	32847	
2762	0	32812	
2763	0	32809	
2764	0	32695	
2765	0	32832	
2766	0	32770	
2767	0	32862	
2768	0	32739	
2769	0	32805	
2770	0	32846	
2771	0	32862	
2772	0	32879	
2773	0	32858	
2774	0	32872	
2775	0	32728	
2776	0	32698	
2777	0	32767	
2778	0	32836	
2779	0	32749	
2780	0	32762	
2781	0	32813	
2782	0	32790	
2783	0	32764	
2784	0	32728	
2785	0	32768	
2786	0	32740	
2787	0	32804	
2788	0	32746	
2789	0	32748	
2790	0	32839	
2791	0	32814	
2792	0	32789	
2793	0	32788	
2794	0	32770	
2795	0	32819	
2796	0	32869	
2797	0	32922	
2798	0	32884	
2799	0	32856	
2800	0	32860	
2801	0	32914	
2802	0	32868	
2803	0	32838	
2804	0	32794	
2805	0	32727	
2806	0	32694	
2807	0	32684	
2808	0	32775	
2809	0	32788	
2810	0	32812	
2811	0	32618	
2812	0	32614	
2813	0	32662	
2814	0	32812	
2815	0	32836	
2816	0	32871	
2817	0	32812	
2818	0	32881	
2819	0	32733	
2820	0	32623	
2821	0	32794	
2822	0	32930	
2823	0	32966	
2824	0	33028	
2825	0	32984	
2826	0	32940	
2827	0	32818	
2828	0	32828	
2829	0	32870	
2830	0	32867	
2831	0	32917	
2832	0	32754	
2833	0	32712	
2834	0	32712	
2835	0	32713	
2836	0	32827	
2837	0	32832	
2838	0	32832	
2839	0	32798	
2840	0	32836	
2841	0	32818	
2842	0	32790	
2843	0	32839	
2844	0	32819	
2845	0	32941	
2846	0	32876	
2847	0	32903	
2848	0	32876	
2849	0	32832	
2850	0	32865	
2851	0	32861	
2852	0	32741	
2853	0	32730	
2854	0	32761	
2855	0	32799	
2856	0	32819	
2857	0	32790	
2858	0	32838	
2859	0	32850	
2860	0	32886	
2861	0	32924	
2862	0	32952	
2863	0	32978	
2864	0	32962	
2865	0	32948	
2866	0	32873	
2867	0	32738	
2868	0	32525	
2869	0	32609	
2870	0	32809	
2871	0	32953	
2872	0	32933	
2873	0	32968	
2874	0	32932	
2875	0	32745	
2876	0	32679	
2877	0	32691	
2878	0	32684	
2879	0	32796	
2880	0	32848	
2881	0	32859	
2882	0	32845	
2883	0	32807	
2884	0	32758	
2885	0	32698	
2886	0	32748	
2887	0	32738	
2888	0	32774	
2889	0	32715	
2890	0	32710	
2891	0	32724	
2892	0	32794	
2893	0	32854	
2894	0	33002	
2895	0	33047	
2896	0	33028	
2897	0	32959	
2898	0	32952	
2899	0	32868	
2900	0	32722	
2901	0	32742	
2902	0	32646	
2903	0	32678	
2904	0	32797	
2905	0	32808	
2906	0	32704	
2907	0	32773	
2908	0	32775	
2909	0	32744	
2910	0	32813	
2911	0	32729	
2912	0	32736	
2913	0	32692	
2914	0	32708	
2915	0	32794	
2916	0	32875	
2917	0	32922	
2918	0	32918	
2919	0	32836	
2920	0	32856	
2921	0	32886	
2922	0	32866	
2923	0	32804	
2924	0	32760	
2925	0	32762	
2926	0	32696	
2927	0	32722	
2928	0	32802	
2929	0	32816	
2930	0	32856	
2931	0	32909	
2932	0	32918	
2933	0	32935	
2934	0	32960	
2935	0	32855	
2936	0	32876	
2937	0	32930	
2938	0	32967	
2939	0	32954	
2940	0	32860	
2941	0	32846	
2942	0	32744	
2943	0	32711	
2944	0	32746	
2945	0	32761	
2946	0	32717	
2947	0	32701	
2948	0	32726	
2949	0	32757	
2950	0	32766	
2951	0	32754	
2952	0	32800	
2953	0	32802	
2954	0	32788	
2955	0	32775	
2956	0	32795	
2957	0	32770	
2958	0	32699	
2959	0	32713	
2960	0	32756	
2961	0	32836	
2962	0	32828	
2963	0	32807	
2964	0	32830	
2965	0	32848	
2966	0	32896	
2967	0	32892	
2968	0	32824	
2969	0	32862	
2970	0	32830	
2971	0	32808	
2972	0	32822	
2973	0	32808	
2974	0	32809	
2975	0	32794	
2976	0	32855	
2977	0	32820	
2978	0	32760	
2979	0	32861	
2980	0	32833	
2981	0	32820	
2982	0	32767	
2983	0	32822	
2984	0	32775	
2985	0	32775	
2986	0	32732	
2987	0	32801	
2988	0	32862	
2989	0	32837	
2990	0	32794	
2991	0	32806	
2992	0	32832	
2993	0	32878	
2994	0	32922	
2995	0	32881	
2996	0	32820	
2997	0	32775	
2998	0	32803	
2999	0	32710	
3000	0	32771	
3001	0	32820	
3002	0	32814	
3003	0	32801	
3004	0	32811	
3005	0	32754	
3006	0	32760	
3007	0	32734	
3008	0	32688	
3009	0	32724	
3010	0	32749	
3011	0	32729	
3012	0	32846	
3013	0	32886	
3014	0	32852	
3015	0	32903	
3016	0	32900	
3017	0	32964	
3018	0	33018	
3019	0	32988	
3020	0	32914	
3021	0	32999	
3022	0	32903	
3023	0	32800	
3024	0	32716	
3025	0	32732	
3026	0	32716	
3027	0	32676	
3028	0	32622	
3029	0	32676	
3030	0	32750	
3031	0	32756	
3032	0	32813	
3033	0	32816	
3034	0	32844	
3035	0	32808	
3036	0	32765	
3037	0	32775	
3038	0	32812	
3039	0	32824	
3040	0	32842	
3041	0	32821	
3042	0	32812	
3043	0	32814	
3044	0	32804	
3045	0	32757	
3046	0	32775	
3047	0	32814	
3048	0	32792	
3049	0	32844	
3050	0	32868	
3051	0	32798	
3052	0	32790	
3053	0	32889	
3054	0	32775	
3055	0	32808	
3056	0	32775	
3057	0	32808	
3058	0	32817	
3059	0	32848	
3060	0	32830	
3061	0	32820	
3062	0	32786	
3063	0	32772	
3064	0	32760	
3065	0	32708	
3066	0	32754	
3067	0	32792	
3068	0	32812	
3069	0	32802	
3070	0	32870	
3071	0	32878	
3072	0	32937	
3073	0	32883	
3074	0	32828	
3075	0	32858	
3076	0	32803	
3077	0	32839	
3078	0	32880	
3079	0	32892	
3080	0	32834	
3081	0	32807	
3082	0	32784	
3083	0	32826	
3084	0	32831	
3085	0	32744	
3086	0	32756	
3087	0	32834	
3088	0	32792	
3089	0	32736	
3090	0	32744	
3091	0	32751	
3092	0	32743	
3093	0	32816	
3094	0	32920	
3095	0	32802	
3096	0	32808	
3097	0	32855	
3098	0	32882	
3099	0	32839	
3100	0	32775	
3101	0	32816	
3102	0	32801	
3103	0	32900	
3104	0	32861	
3105	0	32874	
3106	0	32866	
3107	0	32893	
3108	0	32842	
3109	0	32862	
3110	0	32874	
3111	0	32822	
3112	0	32802	
3113	0	32790	
3114	0	32696	
3115	0	32701	
3116	0	32674	
3117	0	32728	
3118	0	32754	
3119	0	32727	
3120	0	32774	
3121	0	32792	
3122	0	32742	
3123	0	32771	
3124	0	32708	
3125	0	32735	
3126	0	32816	
3127	0	32787	
3128	0	32934	
3129	0	32924	
3130	0	32948	
3131	0	32934	
3132	0	32916	
3133	0	32839	
3134	0	32737	
3135	0	32727	
3136	0	32772	
3137	0	32736	
3138	0	32710	
3139	0	32846	
3140	0	32852	
3141	0	32844	
3142	0	32870	
3143	0	32892	
3144	0	32854	
3145	0	32786	
3146	0	32844	
3147	0	32847	
3148	0	32797	
3149	0	32797	
3150	0	32745	
3151	0	32772	
3152	0	32811	
3153	0	32790	
3154	0	32860	
3155	0	32908	
3156	0	32893	
3157	0	32930	
3158	0	32941	
3159	0	32872	
3160	0	32817	
3161	0	32743	
3162	0	32711	
3163	0	32704	
3164	0	32718	
3165	0	32706	
3166	0	32692	
3167	0	32674	
3168	0	32769	
3169	0	32828	
3170	0	32788	
3171	0	32821	
3172	0	32788	
3173	0	32839	
3174	0	32864	
3175	0	32846	
3176	0	32788	
3177	0	32775	
3178	0	32770	
3179	0	32734	
3180	0	32736	
3181	0	32872	
3182	0	32838	
3183	0	32837	
3184	0	32870	
3185	0	32812	
3186	0	32838	
3187	0	32888	
3188	0	32792	
3189	0	32822	
3190	0	32775	
3191	0	32864	
3192	0	32824	
3193	0	32900	
3194	0	32872	
3195	0	32848	
3196	0	32846	
3197	0	32770	
3198	0	32770	
3199	0	32734	
3200	0	32726	
3201	0	32863	
3202	0	32832	
3203	0	32789	
3204	0	32775	
3205	0	32759	
3206	0	32796	
3207	0	32733	
3208	0	32792	
3209	0	32822	
3210	0	32848	
3211	0	32875	
3212	0	32870	
3213	0	32820	
3214	0	32799	
3215	0	32870	
3216	0	32890	
3217	0	32816	
3218	0	32833	
3219	0	32801	
3220	0	32838	
3221	0	32861	
3222	0	32814	
3223	0	32874	
3224	0	32954	
3225	0	32955	
3226	0	32965	
3227	0	32898	
3228	0	32898	
3229	0	32711	
3230	0	32644	
3231	0	32684	
3232	0	32706	
3233	0	32770	
3234	0	32733	
3235	0	32751	
3236	0	32836	
3237	0	32878	
3238	0	32854	
3239	0	32775	
3240	0	32832	
3241	0	32872	
3242	0	32880	
3243	0	32900	
3244	0	32938	
3245	0	32839	
3246	0	32832	
3247	0	32722	
3248	0	32756	
3249	0	32690	
3250	0	32746	
3251	0	32737	
3252	0	32768	
3253	0	32816	
3254	0	32866	
3255	0	32796	
3256	0	32788	
3257	0	32762	
3258	0	32775	
3259	0	32762	
3260	0	32772	
3261	0	32745	
3262	0	32772	
3263	0	32765	
3264	0	32838	
3265	0	32810	
3266	0	32839	
3267	0	32896	
3268	0	32868	
3269	0	32838	
3270	0	32842	
3271	0	32741	
3272	0	32737	
3273	0	32711	
3274	0	32690	
3275	0	32708	
3276	0	32786	
3277	0	32839	
3278	0	32808	
3279	0	32832	
3280	0	32852	
3281	0	32828	
3282	0	32839	
3283	0	32838	
3284	0	32860	
3285	0	32864	
3286	0	32876	
3287	0	32856	
3288	0	32828	
3289	0	32840	
3290	0	32885	
3291	0	32804	
3292	0	32725	
3293	0	32822	
3294	0	32768	
3295	0	32754	
3296	0	32812	
3297	0	32950	
3298	0	32908	
3299	0	32948	
3300	0	32879	
3301	0	32873	
3302	0	32816	
3303	0	32860	
3304	0	32797	
3305	0	32735	
3306	0	32751	
3307	0	32704	
3308	0	32743	
3309	0	32729	
3310	0	32711	
3311	0	32658	
3312	0	32704	
3313	0	32802	
3314	0	32807	
3315	0	32881	
3316	0	32850	
3317	0	32828	
3318	0	32828	
3319	0	32768	
3320	0	32818	
3321	0	32852	
3322	0	32912	
3323	0	32850	
3324	0	32804	
3325	0	32809	
3326	0	32752	
3327	0	32694	
3328	0	32742	
3329	0	32804	
3330	0	32740	
3331	0	32790	
3332	0	32869	
3333	0	32903	
3334	0	32933	
3335	0	32946	
3336	0	32919	
3337	0	32914	
3338	0	32886	
3339	0	32775	
3340	0	32790	
3341	0	32704	
3342	0	32669	
3343	0	32797	
3344	0	32793	
3345	0	32770	
3346	0	32752	
3347	0	32775	
3348	0	32828	
3349	0	32870	
3350	0	32806	
3351	0	32774	
3352	0	32670	
3353	0	32740	
3354	0	32704	
3355	0	32751	
3356	0	32786	
3357	0	32836	
3358	0	32901	
3359	0	32904	
3360	0	32863	
3361	0	32892	
3362	0	32841	
3363	0	32843	
3364	0	32812	
3365	0	32775	
3366	0	32839	
3367	0	32900	
3368	0	32975	
3369	0	32918	
3370	0	32921	
3371	0	32932	
3372	0	32882	
3373	0	32869	
3374	0	32792	
3375	0	32834	
3376	0	32850	
3377	0	32879	
3378	0	32889	
3379	0	32947	
3380	0	32815	
3381	0	32790	
3382	0	32788	
3383	0	32794	
3384	0	32775	
3385	0	32736	
3386	0	32792	
3387	0	32802	
3388	0	32775	
3389	0	32746	
3390	0	32710	
3391	0	32674	
3392	0	32658	
3393	0	32717	
3394	0	32712	
3395	0	32704	
3396	0	32737	
3397	0	32799	
3398	0	32856	
3399	0	32816	
3400	0	32811	
3401	0	32849	
3402	0	32818	
3403	0	32814	
3404	0	32822	
3405	0	32880	
3406	0	32793	
3407	0	32775	
3408	0	32832	
3409	0	32856	
3410	0	32805	
3411	0	32903	
3412	0	32976	
3413	0	32934	
3414	0	32848	
3415	0	32829	
3416	0	32876	
3417	0	32819	
3418	0	32822	
3419	0	32869	
3420	0	32914	
3421	0	32856	
3422	0	32808	
3423	0	32817	
3424	0	32724	
3425	0	32686	
3426	0	32753	
3427	0	32734	
3428	0	32681	
3429	0	32813	
3430	0	32824	
3431	0	32820	
3432	0	32816	
3433	0	32839	
3434	0	32816	
3435	0	32790	
3436	0	32740	
3437	0	32775	
3438	0	32843	
3439	0	32893	
3440	0	32926	
3441	0	32986	
3442	0	32951	
3443	0	32950	
3444	0	32898	
3445	0	32876	
3446	0	32786	
3447	0	32792	
3448	0	32764	
3449	0	32792	
3450	0	32743	
3451	0	32775	
3452	0	32823	
3453	0	32802	
3454	0	32835	
3455	0	32741	
3456	0	32797	
3457	0	32742	
3458	0	32760	
3459	0	32742	
3460	0	32756	
3461	0	32772	
3462	0	32766	
3463	0	32802	
3464	0	32830	
3465	0	32844	
3466	0	32863	
3467	0	32775	
3468	0	32775	
3469	0	32790	
3470	0	32756	
3471	0	32696	
3472	0	32736	
3473	0	32756	
3474	0	32807	
3475	0	32751	
3476	0	32764	
3477	0	32720	
3478	0	32763	
3479	0	32798	
3480	0	32740	
3481	0	32832	
3482	0	32886	
3483	0	32884	
3484	0	32775	
3485	0	32810	
3486	0	32800	
3487	0	32833	
3488	0	32812	
3489	0	32857	
3490	0	32811	
3491	0	32774	
3492	0	32775	
3493	0	32788	
3494	0	32794	
3495	0	32879	
3496	0	32895	
3497	0	32804	
3498	0	32831	
3499	0	32791	
3500	0	32842	
3501	0	32802	
3502	0	32892	
3503	0	32903	
3504	0	32909	
3505	0	32818	
3506	0	32832	
3507	0	32800	
3508	0	32882	
3509	0	32879	
3510	0	32873	
3511	0	32864	
3512	0	32840	
3513	0	32722	
3514	0	32812	
3515	0	32813	
3516	0	32887	
3517	0	32831	
3518	0	32748	
3519	0	32795	
3520	0	32800	
3521	0	32775	
3522	0	32738	
3523	0	32724	
3524	0	32732	
3525	0	32858	
3526	0	32844	
3527	0	32831	
3528	0	32808	
3529	0	32763	
3530	0	32693	
3531	0	32676	
3532	0	32750	
3533	0	32741	
3534	0	32820	
3535	0	32866	
3536	0	32850	
3537	0	32903	
3538	0	32853	
3539	0	32841	
3540	0	32836	
3541	0	32886	
3542	0	32886	
3543	0	32894	
3544	0	32888	
3545	0	32894	
3546	0	32878	
3547	0	32820	
3548	0	32775	
3549	0	32810	
3550	0	32804	
3551	0	32808	
3552	0	32775	
3553	0	32704	
3554	0	32730	
3555	0	32734	
3556	0	32731	
3557	0	32766	
3558	0	32821	
3559	0	32824	
3560	0	32790	
3561	0	32724	
3562	0	32775	
3563	0	32769	
3564	0	32823	
3565	0	32775	
3566	0	32896	
3567	0	32862	
3568	0	32836	
3569	0	32850	
3570	0	32875	
3571	0	32808	
3572	0	32812	
3573	0	32804	
3574	0	32818	
3575	0	32839	
3576	0	32839	
3577	0	32820	
3578	0	32858	
3579	0	32786	
3580	0	32756	
3581	0	32762	
3582	0	32814	
3583	0	32799	
3584	0	32737	
3585	0	32804	
3586	0	32851	
3587	0	32832	
3588	0	32786	
3589	0	32742	
3590	0	32775	
3591	0	32817	
3592	0	32788	
3593	0	32736	
3594	0	32703	
3595	0	32745	
3596	0	32754	
3597	0	32768	
3598	0	32784	
3599	0	32839	
3600	0	32846	
3601	0	32839	
3602	0	32808	
3603	0	32800	
3604	0	32818	
3605	0	32775	
3606	0	32801	
3607	0	32822	
3608	0	32892	
3609	0	32916	
3610	0	32870	
3611	0	32820	
3612	0	32751	
3613	0	32706	
3614	0	32784	
3615	0	32802	
3616	0	32944	
3617	0	32870	
3618	0	32860	
3619	0	32838	
3620	0	32812	
3621	0	32796	
3622	0	32855	
3623	0	32846	
3624	0	32893	
3625	0	32832	
3626	0	32846	
3627	0	32855	
3628	0	32712	
3629	0	32748	
3630	0	32810	
3631	0	32775	
3632	0	32804	
3633	0	32806	
3634	0	32754	
3635	0	32795	
3636	0	32822	
3637	0	32783	
3638	0	32850	
3639	0	32863	
3640	0	32894	
3641	0	32775	
3642	0	32816	
3643	0	32796	
3644	0	32734	
3645	0	32728	
3646	0	32831	
3647	0	32844	
3648	0	32775	
3649	0	32815	
3650	0	32842	
3651	0	32812	
3652	0	32828	
3653	0	32745	
3654	0	32775	
3655	0	32764	
3656	0	32808	
3657	0	32817	
3658	0	32857	
3659	0	32846	
3660	0	32832	
3661	0	32788	
3662	0	32823	
3663	0	32802	
3664	0	32926	
3665	0	32878	
3666	0	32890	
3667	0	32807	
3668	0	32898	
3669	0	32900	
3670	0	32876	
3671	0	32842	
3672	0	32903	
3673	0	32808	
3674	0	32710	
3675	0	32756	
3676	0	32768	
3677	0	32775	
3678	0	32756	
3679	0	32710	
3680	0	32765	
3681	0	32749	
3682	0	32732	
3683	0	32733	
3684	0	32786	
3685	0	32775	
3686	0	32820	
3687	0	32856	
3688	0	32928	
3689	0	32869	
3690	0	32887	
3691	0	32848	
3692	0	32775	
3693	0	32836	
3694	0	32798	
3695	0	32744	
3696	0	32677	
3697	0	32635	
3698	0	32676	
3699	0	32664	
3700	0	32715	
3701	0	32812	
3702	0	32878	
3703	0	32824	
3704	0	32900	
3705	0	32940	
3706	0	32998	
3707	0	32976	
3708	0	32943	
3709	0	32897	
3710	0	32808	
3711	0	32799	
3712	0	32821	
3713	0	32764	
3714	0	32768	
3715	0	32775	
3716	0	32856	
3717	0	32753	
3718	0	32770	
3719	0	32740	
3720	0	32796	
3721	0	32775	
3722	0	32804	
3723	0	32874	
3724	0	32786	
3725	0	32839	
3726	0	32818	
3727	0	32839	
3728	0	32847	
3729	0	32818	
3730	0	32820	
3731	0	32775	
3732	0	32749	
3733	0	32728	
3734	0	32700	
3735	0	32768	
3736	0	32789	
3737	0	32761	
3738	0	32756	
3739	0	32674	
3740	0	32775	
3741	0	32787	
3742	0	32809	
3743	0	32831	
3744	0	32789	
3745	0	32814	
3746	0	32906	
3747	0	32940	
3748	0	32896	
3749	0	32836	
3750	0	32870	
3751	0	32903	
3752	0	32812	
3753	0	32835	
3754	0	32820	
3755	0	32772	
3756	0	32808	
3757	0	32830	
3758	0	32880	
3759	0	32809	
3760	0	32848	
3761	0	32840	
3762	0	32890	
3763	0	32872	
3764	0	32902	
3765	0	32846	
3766	0	32826	
3767	0	32772	
3768	0	32770	
3769	0	32788	
3770	0	32822	
3771	0	32796	
3772	0	32765	
3773	0	32797	
3774	0	32775	
3775	0	32822	
3776	0	32808	
3777	0	32680	
3778	0	32658	
3779	0	32724	
3780	0	32735	
3781	0	32743	
3782	0	32772	
3783	0	32804	
3784	0	32844	
3785	0	32858	
3786	0	32793	
3787	0	32775	
3788	0	32755	
3789	0	32750	
3790	0	32809	
3791	0	32843	
3792	0	32812	
3793	0	32802	
3794	0	32860	
3795	0	32806	
3796	0	32793	
3797	0	32754	
3798	0	32806	
3799	0	32812	
3800	0	32887	
3801	0	32886	
3802	0	32914	
3803	0	32846	
3804	0	32838	
3805	0	32895	
3806	0	32862	
3807	0	32818	
3808	0	32748	
3809	0	32798	
3810	0	32784	
3811	0	32760	
3812	0	32808	
3813	0	32870	
3814	0	32881	
3815	0	32886	
3816	0	32903	
3817	0	32994	
3818	0	32882	
3819	0	32880	
3820	0	32832	
3821	0	32808	
3822	0	32820	
3823	0	32775	
3824	0	32773	
3825	0	32699	
3826	0	32690	
3827	0	32720	
3828	0	32731	
3829	0	32752	
3830	0	32772	
3831	0	32828	
3832	0	32775	
3833	0	32824	
3834	0	32888	
3835	0	32876	
3836	0	32860	
3837	0	32834	
3838	0	32839	
3839	0	32884	
3840	0	32851	
3841	0	32893	
3842	0	32914	
3843	0	32868	
3844	0	32820	
3845	0	32728	
3846	0	32722	
3847	0	32756	
3848	0	32770	
3849	0	32737	
3850	0	32700	
3851	0	32752	
3852	0	32827	
3853	0	32871	
3854	0	32805	
3855	0	32732	
3856	0	32708	
3857	0	32702	
3858	0	32750	
3859	0	32768	
3860	0	32775	
3861	0	32844	
3862	0	32903	
3863	0	32925	
3864	0	32913	
3865	0	32884	
3866	0	32799	
3867	0	32768	
3868	0	32744	
3869	0	32718	
3870	0	32775	
3871	0	32716	
3872	0	32775	
3873	0	32830	
3874	0	32890	
3875	0	32845	
3876	0	32848	
3877	0	32802	
3878	0	32798	
3879	0	32805	
3880	0	32829	
3881	0	32886	
3882	0	32816	
3883	0	32792	
3884	0	32734	
3885	0	32770	
3886	0	32789	
3887	0	32768	
3888	0	32747	
3889	0	32678	
3890	0	32630	
3891	0	32633	
3892	0	32720	
3893	0	32754	
3894	0	32773	
3895	0	32789	
3896	0	32846	
3897	0	32828	
3898	0	32813	
3899	0	32893	
3900	0	32868	
3901	0	32924	
3902	0	32884	
3903	0	32845	
3904	0	32846	
3905	0	32871	
3906	0	32838	
3907	0	32848	
3908	0	32885	
3909	0	32900	
3910	0	32866	
3911	0	32829	
3912	0	32762	
3913	0	32870	
3914	0	32882	
3915	0	32884	
3916	0	32871	
3917	0	32916	
3918	0	32933	
3919	0	32844	
3920	0	32863	
3921	0	32775	
3922	0	32768	
3923	0	32786	
3924	0	32728	
3925	0	32702	
3926	0	32711	
3927	0	32804	
3928	0	32828	
3929	0	32923	
3930	0	32880	
3931	0	32868	
3932	0	32751	
3933	0	32804	
3934	0	32794	
3935	0	32753	
3936	0	32699	
3937	0	32786	
3938	0	32753	
3939	0	32775	
3940	0	32708	
3941	0	32809	
3942	0	32798	
3943	0	32820	
3944	0	32832	
3945	0	32804	
3946	0	32799	
3947	0	32798	
3948	0	32774	
3949	0	32796	
3950	0	32876	
3951	0	32799	
3952	0	32856	
3953	0	32852	
3954	0	32852	
3955	0	32792	
3956	0	32887	
3957	0	32892	
3958	0	32800	
3959	0	32828	
3960	0	32844	
3961	0	32787	
3962	0	32756	
3963	0	32773	
3964	0	32706	
3965	0	32775	
3966	0	32748	
3967	0	32708	
3968	0	32706	
3969	0	32770	
3970	0	32711	
3971	0	32837	
3972	0	32791	
3973	0	32816	
3974	0	32903	
3975	0	32852	
3976	0	32836	
3977	0	32805	
3978	0	32804	
3979	0	32762	
3980	0	32775	
3981	0	32756	
3982	0	32806	
3983	0	32784	
3984	0	32858	
3985	0	32856	
3986	0	32890	
3987	0	32922	
3988	0	32926	
3989	0	32936	
3990	0	32903	
3991	0	32860	
3992	0	32748	
3993	0	32746	
3994	0	32775	
3995	0	32772	
3996	0	32790	
3997	0	32850	
3998	0	32853	
3999	0	32890	
4000	0	32900	
4001	0	32857	
4002	0	32775	
4003	0	32813	
4004	0	32672	
4005	0	32684	
4006	0	32782	
4007	0	32775	
4008	0	32740	
4009	0	32808	
4010	0	32802	
4011	0	32751	
4012	0	32789	
4013	0	32804	
4014	0	32808	
4015	0	32809	
4016	0	32860	
4017	0	32859	
4018	0	32903	
4019	0	32786	
4020	0	32798	
4021	0	32754	
4022	0	32749	
4023	0	32786	
4024	0	32810	
4025	0	32852	
4026	0	32806	
4027	0	32807	
4028	0	32814	
4029	0	32832	
4030	0	32800	
4031	0	32788	
4032	0	32846	
4033	0	32837	
4034	0	32826	
4035	0	32766	
4036	0	32808	
4037	0	32813	
4038	0	32752	
4039	0	32775	
4040	0	32853	
4041	0	32860	
4042	0	32868	
4043	0	32796	
4044	0	32830	
4045	0	32848	
4046	0	32861	
4047	0	32902	
4048	0	32909	
4049	0	32876	
4050	0	32882	
4051	0	32924	
4052	0	32854	
4053	0	32796	
4054	0	32796	
4055	0	32770	
4056	0	32775	
4057	0	32710	
4058	0	32665	
4059	0	32676	
4060	0	32673	
4061	0	32630	
4062	0	32640	
4063	0	32710	
4064	0	32720	
4065	0	32832	
4066	0	32732	
4067	0	32804	
4068	0	32854	
4069	0	32902	
4070	0	32924	
4071	0	32898	
4072	0	33048	
4073	0	32967	
4074	0	32926	
4075	0	32970	
4076	0	32962	
4077	0	32898	
4078	0	32884	
4079	0	32820	
4080	0	32839	
4081	0	32749	
4082	0	32725	
4083	0	32711	
4084	0	32672	
4085	0	32700	
4086	0	32718	
4087	0	32762	
4088	0	32760	
4089	0	32736	
4090	0	32772	
4091	0	32676	
4092	0	32732	
4093	0	32734	
4094	0	32732	
4095	0	32740	
4096	0	32775	
4097	0	32862	
4098	0	32809	
4099	0	32891	
4100	0	32866	
4101	0	32832	
4102	0	32848	
4103	0	32820	
4104	0	32863	
4105	0	32804	
4106	0	32796	
4107	0	32805	
4108	0	32808	
4109	0	32769	
4110	0	32758	
4111	0	32775	
4112	0	32775	
4113	0	32754	
4114	0	32798	
4115	0	32812	
4116	0	32749	
4117	0	32829	
4118	0	32828	
4119	0	32831	
4120	0	32804	
4121	0	32840	
4122	0	32826	
4123	0	32844	
4124	0	32800	
4125	0	32809	
4126	0	32850	
4127	0	32835	
4128	0	32903	
4129	0	32882	
4130	0	32918	
4131	0	32862	
4132	0	32843	
4133	0	32852	
4134	0	32847	
4135	0	32856	
4136	0	32836	
4137	0	32896	
4138	0	32890	
4139	0	32882	
4140	0	32836	
4141	0	32764	
4142	0	32760	
4143	0	32805	
4144	0	32824	
4145	0	32802	
4146	0	32808	
4147	0	32862	
4148	0	32797	
4149	0	32709	
4150	0	32740	
4151	0	32716	
4152	0	32772	
4153	0	32824	
4154	0	32808	
4155	0	32817	
4156	0	32751	
4157	0	32804	
4158	0	32775	
4159	0	32724	
4160	0	32786	
4161	0	32816	
4162	0	32874	
4163	0	32850	
4164	0	32850	
4165	0	32848	
4166	0	32845	
4167	0	32820	
4168	0	32822	
4169	0	32792	
4170	0	32804	
4171	0	32734	
4172	0	32759	
4173	0	32711	
4174	0	32737	
4175	0	32720	
4176	0	32748	
4177	0	32812	
4178	0	32884	
4179	0	32848	
4180	0	32862	
4181	0	32893	
4182	0	32926	
4183	0	32886	
4184	0	32900	
4185	0	32796	
4186	0	32821	
4187	0	32786	
4188	0	32707	
4189	0	32730	
4190	0	32741	
4191	0	32775	
4192	0	32800	
4193	0	32832	
4194	0	32863	
4195	0	32880	
4196	0	32895	
4197	0	32823	
4198	0	32817	
4199	0	32888	
4200	0	32806	
4201	0	32775	
4202	0	32748	
4203	0	32794	
4204	0	32775	
4205	0	32832	
4206	0	32838	
4207	0	32814	
4208	0	32825	
4209	0	32760	
4210	0	32788	
4211	0	32784	
4212	0	32826	
4213	0	32800	
4214	0	32844	
4215	0	32888	
4216	0	32902	
4217	0	32963	
4218	0	32878	
4219	0	32813	
4220	0	32806	
4221	0	32745	
4222	0	32750	
4223	0	32708	
4224	0	32760	
4225	0	32753	
4226	0	32821	
4227	0	32826	
4228	0	32786	
4229	0	32695	
4230	0	32844	
4231	0	32820	
4232	0	32796	
4233	0	32800	
4234	0	32856	
4235	0	32856	
4236	0	32870	
4237	0	32775	
4238	0	32751	
4239	0	32839	
4240	0	32758	
4241	0	32740	
4242	0	32722	
4243	0	32736	
4244	0	32704	
4245	0	32706	
4246	0	32720	
4247	0	32756	
4248	0	32839	
4249	0	32839	
4250	0	32900	
4251	0	32921	
4252	0	32903	
4253	0	32836	
4254	0	32820	
4255	0	32832	
4256	0	32832	
4257	0	32872	
4258	0	32877	
4259	0	32878	
4260	0	32900	
4261	0	32880	
4262	0	32860	
4263	0	32832	
4264	0	32883	
4265	0	32788	
4266	0	32808	
4267	0	32820	
4268	0	32819	
4269	0	32841	
4270	0	32840	
4271	0	32844	
4272	0	32772	
4273	0	32694	
4274	0	32673	
4275	0	32740	
4276	0	32752	
4277	0	32825	
4278	0	32873	
4279	0	32807	
4280	0	32765	
4281	0	32792	
4282	0	32826	
4283	0	32760	
4284	0	32797	
4285	0	32808	
4286	0	32887	
4287	0	32902	
4288	0	32943	
4289	0	32877	
4290	0	32850	
4291	0	32804	
4292	0	32798	
4293	0	32806	
4294	0	32842	
4295	0	32752	
4296	0	32892	
4297	0	32828	
4298	0	32804	
4299	0	32741	
4300	0	32610	
4301	0	32694	
4302	0	32676	
4303	0	32660	
4304	0	32725	
4305	0	32793	
4306	0	32775	
4307	0	32812	
4308	0	32807	
4309	0	32877	
4310	0	32830	
4311	0	32848	
4312	0	32837	
4313	0	32848	
4314	0	32828	
4315	0	32814	
4316	0	32840	
4317	0	32814	
4318	0	32806	
4319	0	32853	
4320	0	32868	
4321	0	32925	
4322	0	32914	
4323	0	32910	
4324	0	32868	
4325	0	32826	
4326	0	32768	
4327	0	32823	
4328	0	32812	
4329	0	32761	
4330	0	32728	
4331	0	32775	
4332	0	32736	
4333	0	32732	
4334	0	32711	
4335	0	32772	
4336	0	32823	
4337	0	32842	
4338	0	32799	
4339	0	32775	
4340	0	32821	
4341	0	32799	
4342	0	32878	
4343	0	32860	
4344	0	32820	
4345	0	32807	
4346	0	32852	
4347	0	32869	
4348	0	32836	
4349	0	32814	
4350	0	32884	
4351	0	32898	
4352	0	32804	
4353	0	32794	
4354	0	32816	
4355	0	32824	
4356	0	32839	
4357	0	32836	
4358	0	32824	
4359	0	32823	
4360	0	32859	
4361	0	32800	
4362	0	32838	
4363	0	32756	
4364	0	32740	
4365	0	32807	
4366	0	32871	
4367	0	32765	
4368	0	32821	
4369	0	32862	
4370	0	32828	
4371	0	32832	
4372	0	32730	
4373	0	32770	
4374	0	32816	
4375	0	32826	
4376	0	32827	
4377	0	32764	
4378	0	32831	
4379	0	32876	
4380	0	32946	
4381	0	32908	
4382	0	32772	
4383	0	32786	
4384	0	32723	
4385	0	32684	
4386	0	32766	
4387	0	32775	
4388	0	32839	
4389	0	32844	
4390	0	32805	
4391	0	32775	
4392	0	32839	
4393	0	32844	
4394	0	32729	
4395	0	32804	
4396	0	32716	
4397	0	32647	
4398	0	32757	
4399	0	32768	
4400	0	32852	
4401	0	32896	
4402	0	32782	
4403	0	32820	
4404	0	32750	
4405	0	32762	
4406	0	32828	
4407	0	32881	
4408	0	32848	
4409	0	32832	
4410	0	32817	
4411	0	32848	
4412	0	32836	
4413	0	32920	
4414	0	32868	
4415	0	32819	
4416	0	32878	
4417	0	32768	
4418	0	32760	
4419	0	32790	
4420	0	32752	
4421	0	32720	
4422	0	32824	
4423	0	32730	
4424	0	32866	
4425	0	32882	
4426	0	32942	
4427	0	32932	
4428	0	32956	
4429	0	32897	
4430	0	32895	
4431	0	32847	
4432	0	32889	
4433	0	32880	
4434	0	32822	
4435	0	32873	
4436	0	32853	
4437	0	32828	
4438	0	32798	
4439	0	32775	
4440	0	32790	
4441	0	32820	
4442	0	32775	
4443	0	32806	
4444	0	32764	
4445	0	32754	
4446	0	32756	
4447	0	32704	
4448	0	32724	
4449	0	32774	
4450	0	32810	
4451	0	32732	
4452	0	32702	
4453	0	32799	
4454	0	32868	
4455	0	32845	
4456	0	32832	
4457	0	32882	
4458	0	32889	
4459	0	32866	
4460	0	32718	
4461	0	32692	
4462	0	32698	
4463	0	32754	
4464	0	32711	
4465	0	32736	
4466	0	32775	
4467	0	32775	
4468	0	32737	
4469	0	32786	
4470	0	32848	
4471	0	32820	
4472	0	32850	
4473	0	32839	
4474	0	32759	
4475	0	32720	
4476	0	32800	
4477	0	32794	
4478	0	32829	
4479	0	32772	
4480	0	32848	
4481	0	32844	
4482	0	32840	
4483	0	32839	
4484	0	32915	
4485	0	32921	
4486	0	32913	
4487	0	32828	
4488	0	32808	
4489	0	32762	
4490	0	32716	
4491	0	32854	
4492	0	32786	
4493	0	32786	
4494	0	32754	
4495	0	32804	
4496	0	32812	
4497	0	32797	
4498	0	32838	
4499	0	32839	
4500	0	32888	
4501	0	32792	
4502	0	32884	
4503	0	32833	
4504	0	32835	
4505	0	32761	
4506	0	32786	
4507	0	32820	
4508	0	32743	
4509	0	32774	
4510	0	32722	
4511	0	32758	
4512	0	32737	
4513	0	32741	
4514	0	32749	
4515	0	32744	
4516	0	32774	
4517	0	32817	
4518	0	32794	
4519	0	32844	
4520	0	32812	
4521	0	32917	
4522	0	32935	
4523	0	32912	
4524	0	32864	
4525	0	32833	
4526	0	32794	
4527	0	32768	
4528	0	32767	
4529	0	32819	
4530	0	32839	
4531	0	32824	
4532	0	32845	
4533	0	32795	
4534	0	32856	
4535	0	32820	
4536	0	32804	
4537	0	32838	
4538	0	32852	
4539	0	32946	
4540	0	32839	
4541	0	32775	
4542	0	32743	
4543	0	32729	
4544	0	32775	
4545	0	32735	
4546	0	32710	
4547	0	32708	
4548	0	32763	
4549	0	32826	
4550	0	32743	
4551	0	32768	
4552	0	32751	
4553	0	32784	
4554	0	32833	
4555	0	32822	
4556	0	32878	
4557	0	32829	
4558	0	32840	
4559	0	32894	
4560	0	32799	
4561	0	32796	
4562	0	32766	
4563	0	32802	
4564	0	32756	
4565	0	32764	
4566	0	32737	
4567	0	32830	
4568	0	32775	
4569	0	32810	
4570	0	32844	
4571	0	32807	
4572	0	32853	
4573	0	32808	
4574	0	32872	
4575	0	32939	
4576	0	32878	
4577	0	32869	
4578	0	32807	
4579	0	32769	
4580	0	32704	
4581	0	32790	
4582	0	32790	
4583	0	32764	
4584	0	32775	
4585	0	32818	
4586	0	32844	
4587	0	32768	
4588	0	32740	
4589	0	32767	
4590	0	32745	
4591	0	32720	
4592	0	32805	
4593	0	32740	
4594	0	32808	
4595	0	32825	
4596	0	32802	
4597	0	32793	
4598	0	32844	
4599	0	32927	
4600	0	32925	
4601	0	32914	
4602	0	32928	
4603	0	32880	
4604	0	32834	
4605	0	32820	
4606	0	32853	
4607	0	32828	
4608	0	32809	
4609	0	32832	
4610	0	32829	
4611	0	32808	
4612	0	32829	
4613	0	32817	
4614	0	32813	
4615	0	32720	
4616	0	32711	
4617	0	32810	
4618	0	32865	
4619	0	32876	
4620	0	32910	
4621	0	32960	
4622	0	32956	
4623	0	32912	
4624	0	32895	
4625	0	32850	
4626	0	32788	
4627	0	32788	
4628	0	32711	
4629	0	32740	
4630	0	32735	
4631	0	32729	
4632	0	32729	
4633	0	32687	
4634	0	32740	
4635	0	32727	
4636	0	32811	
4637	0	32809	
4638	0	32852	
4639	0	32855	
4640	0	32794	
4641	0	32800	
4642	0	32816	
4643	0	32836	
4644	0	32823	
4645	0	32806	
4646	0	32756	
4647	0	32799	
4648	0	32828	
4649	0	32824	
4650	0	32848	
4651	0	32857	
4652	0	32824	
4653	0	32834	
4654	0	32802	
4655	0	32800	
4656	0	32834	
4657	0	32870	
4658	0	32861	
4659	0	32890	
4660	0	32828	
4661	0	32880	
4662	0	32820	
4663	0	32692	
4664	0	32735	
4665	0	32692	
4666	0	32722	
4667	0	32754	
4668	0	32786	
4669	0	32880	
4670	0	32857	
4671	0	32869	
4672	0	32869	
4673	0	32868	
4674	0	32818	
4675	0	32804	
4676	0	32870	
4677	0	32831	
4678	0	32857	
4679	0	32855	
4680	0	32848	
4681	0	32844	
4682	0	32836	
4683	0	32844	
4684	0	32828	
4685	0	32868	
4686	0	32808	
4687	0	32786	
4688	0	32804	
4689	0	32819	
4690	0	32844	
4691	0	32844	
4692	0	32860	
4693	0	32844	
4694	0	32822	
4695	0	32775	
4696	0	32811	
4697	0	32736	
4698	0	32738	
4699	0	32760	
4700	0	32711	
4701	0	32748	
4702	0	32706	
4703	0	32716	
4704	0	32767	
4705	0	32786	
4706	0	32759	
4707	0	32728	
4708	0	32816	
4709	0	32802	
4710	0	32800	
4711	0	32825	
4712	0	32854	
4713	0	32863	
4714	0	32882	
4715	0	32888	
4716	0	32834	
4717	0	32792	
4718	0	32820	
4719	0	32864	
4720	0	32894	
4721	0	32902	
4722	0	32860	
4723	0	32820	
4724	0	32845	
4725	0	32792	
4726	0	32734	
4727	0	32740	
4728	0	32792	
4729	0	32718	
4730	0	32710	
4731	0	32704	
4732	0	32786	
4733	0	32790	
4734	0	32742	
4735	0	32790	
4736	0	32748	
4737	0	32813	
4738	0	32815	
4739	0	32902	
4740	0	32871	
4741	0	32791	
4742	0	32801	
4743	0	32767	
4744	0	32876	
4745	0	32850	
4746	0	32871	
4747	0	32858	
4748	0	32852	
4749	0	32850	
4750	0	32900	
4751	0	32887	
4752	0	32878	
4753	0	32914	
4754	0	32848	
4755	0	32801	
4756	0	32820	
4757	0	32792	
4758	0	32706	
4759	0	32722	
4760	0	32733	
4761	0	32742	
4762	0	32734	
4763	0	32775	
4764	0	32806	
4765	0	32828	
4766	0	32837	
4767	0	32772	
4768	0	32763	
4769	0	32772	
4770	0	32800	
4771	0	32774	
4772	0	32704	
4773	0	32839	
4774	0	32806	
4775	0	32846	
4776	0	32812	
4777	0	32817	
4778	0	32762	
4779	0	32812	
4780	0	32823	
4781	0	32794	
4782	0	32743	
4783	0	32807	
4784	0	32796	
4785	0	32857	
4786	0	32852	
4787	0	32854	
4788	0	32924	
4789	0	32839	
4790	0	32855	
4791	0	32839	
4792	0	32768	
4793	0	32765	
4794	0	32826	
4795	0	32837	
4796	0	32793	
4797	0	32796	
4798	0	32773	
4799	0	32874	
4800	0	32825	
4801	0	32820	
4802	0	32849	
4803	0	32836	
4804	0	32839	
4805	0	32864	
4806	0	32790	
4807	0	32742	
4808	0	32799	
4809	0	32813	
4810	0	32784	
4811	0	32775	
4812	0	32775	
4813	0	32697	
4814	0	32793	
4815	0	32848	
4816	0	32772	
4817	0	32788	
4818	0	32834	
4819	0	32844	
4820	0	32875	
4821	0	32813	
4822	0	32864	
4823	0	32824	
4824	0	32863	
4825	0	32909	
4826	0	32884	
4827	0	32922	
4828	0	32952	
4829	0	32871	
4830	0	32774	
4831	0	32774	
4832	0	32628	
4833	0	32696	
4834	0	32692	
4835	0	32775	
4836	0	32788	
4837	0	32792	
4838	0	32812	
4839	0	32789	
4840	0	32848	
4841	0	32791	
4842	0	32839	
4843	0	32834	
4844	0	32888	
4845	0	32809	
4846	0	32819	
4847	0	32831	
4848	0	32784	
4849	0	32796	
4850	0	32790	
4851	0	32752	
4852	0	32696	
4853	0	32769	
4854	0	32820	
4855	0	32831	
4856	0	32808	
4857	0	32820	
4858	0	32868	
4859	0	32891	
4860	0	32855	
4861	0	32873	
4862	0	32869	
4863	0	32873	
4864	0	32832	
4865	0	32816	
4866	0	32834	
4867	0	32790	
4868	0	32863	
4869	0	32832	
4870	0	32839	
4871	0	32864	
4872	0	32820	
4873	0	32854	
4874	0	32820	
4875	0	32743	
4876	0	32735	
4877	0	32742	
4878	0	32686	
4879	0	32629	
4880	0	32688	
4881	0	32658	
4882	0	32656	
4883	0	32775	
4884	0	32887	
4885	0	32976	
4886	0	32984	
4887	0	32986	
4888	0	32951	
4889	0	32853	
4890	0	32840	
4891	0	32775	
4892	0	32775	
4893	0	32774	
4894	0	32797	
4895	0	32816	
4896	0	32764	
4897	0	32799	
4898	0	32797	
4899	0	32806	
4900	0	32863	
4901	0	32809	
4902	0	32829	
4903	0	32820	
4904	0	32830	
4905	0	32824	
4906	0	32775	
4907	0	32804	
4908	0	32793	
4909	0	32722	
4910	0	32678	
4911	0	32723	
4912	0	32775	
4913	0	32796	
4914	0	32828	
4915	0	32830	
4916	0	32764	
4917	0	32830	
4918	0	32775	
4919	0	32898	
4920	0	32877	
4921	0	32810	
4922	0	32812	
4923	0	32824	
4924	0	32794	
4925	0	32748	
4926	0	32784	
4927	0	32711	
4928	0	32826	
4929	0	32834	
4930	0	32872	
4931	0	32849	
4932	0	32936	
4933	0	32882	
4934	0	32850	
4935	0	32846	
4936	0	32846	
4937	0	32816	
4938	0	32827	
4939	0	32876	
4940	0	32804	
4941	0	32762	
4942	0	32764	
4943	0	32801	
4944	0	32813	
4945	0	32832	
4946	0	32857	
4947	0	32839	
4948	0	32757	
4949	0	32828	
4950	0	32752	
4951	0	32844	
4952	0	32809	
4953	0	32853	
4954	0	32866	
4955	0	32858	
4956	0	32839	
4957	0	32847	
4958	0	32884	
4959	0	32752	
4960	0	32775	
4961	0	32744	
4962	0	32720	
4963	0	32742	
4964	0	32793	
4965	0	32818	
4966	0	32794	
4967	0	32836	
4968	0	32820	
4969	0	32845	
4970	0	32837	
4971	0	32829	
4972	0	32820	
4973	0	32848	
4974	0	32807	
4975	0	32872	
4976	0	32744	
4977	0	32775	
4978	0	32790	
4979	0	32771	
4980	0	32800	
4981	0	32812	
4982	0	32736	
4983	0	32809	
4984	0	32806	
4985	0	32803	
4986	0	32740	
4987	0	32775	
4988	0	32738	
4989	0	32741	
4990	0	32775	
4991	0	32850	
4992	0	32826	
4993	0	32770	
4994	0	32750	
4995	0	32748	
4996	0	32799	
4997	0	32786	
4998	0	32816	
4999	0	32823	
5000	0	32900	
5001	0	32934	
5002	0	32889	
5003	0	32849	
5004	0	32872	
5005	0	32795	
5006	0	32847	
5007	0	32942	
5008	0	32919	
5009	0	32914	
5010	0	32822	
5011	0	32860	
5012	0	32864	
5013	0	32845	
5014	0	32736	
5015	0	32748	
5016	0	32706	
5017	0	32672	
5018	0	32754	
5019	0	32712	
5020	0	32750	
5021	0	32724	
5022	0	32773	
5023	0	32815	
5024	0	32764	
5025	0	32812	
5026	0	32839	
5027	0	32838	
5028	0	32867	
5029	0	32856	
5030	0	32847	
5031	0	32880	
5032	0	32799	
5033	0	32760	
5034	0	32843	
5035	0	32787	
5036	0	32805	
5037	0	32772	
5038	0	32786	
5039	0	32796	
5040	0	32792	
5041	0	32813	
5042	0	32880	
5043	0	32912	
5044	0	32938	
5045	0	32919	
5046	0	32810	
5047	0	32806	
5048	0	32839	
5049	0	32877	
5050	0	32828	
5051	0	32772	
5052	0	32760	
5053	0	32792	
5054	0	32718	
5055	0	32775	
5056	0	32758	
5057	0	32854	
5058	0	32871	
5059	0	32858	
5060	0	32902	
5061	0	32832	
5062	0	32848	
5063	0	32756	
5064	0	32876	
5065	0	32873	
5066	0	32836	
5067	0	32801	
5068	0	32784	
5069	0	32733	
5070	0	32732	
5071	0	32762	
5072	0	32680	
5073	0	32684	
5074	0	32729	
5075	0	32716	
5076	0	32842	
5077	0	32798	
5078	0	32832	
5079	0	32846	
5080	0	32870	
5081	0	32844	
5082	0	32836	
5083	0	32772	
5084	0	32828	
5085	0	32833	
5086	0	32886	
5087	0	32869	
5088	0	32922	
5089	0	32860	
5090	0	32895	
5091	0	32815	
5092	0	32807	
5093	0	32807	
5094	0	32810	
5095	0	32740	
5096	0	32756	
5097	0	32804	
5098	0	32723	
5099	0	32758	
5100	0	32794	
5101	0	32807	
5102	0	32762	
5103	0	32806	
5104	0	32839	
5105	0	32928	
5106	0	32854	
5107	0	32878	
5108	0	32804	
5109	0	32860	
5110	0	32809	
5111	0	32853	
5112	0	32845	
5113	0	32826	
5114	0	32843	
5115	0	32877	
5116	0	32882	
5117	0	32831	
5118	0	32796	
5119	0	32870	
5120	0	32845	
5121	0	32812	
5122	0	32808	
5123	0	32746	
5124	0	32756	
5125	0	32760	
5126	0	32724	
5127	0	32775	
5128	0	32790	
5129	0	32854	
5130	0	32846	
5131	0	32871	
5132	0	32768	
5133	0	32756	
5134	0	32839	
5135	0	32748	
5136	0	32767	
5137	0	32775	
5138	0	32823	
5139	0	32809	
5140	0	32793	
5141	0	32848	
5142	0	32832	
5143	0	32812	
5144	0	32795	
5145	0	32746	
5146	0	32738	
5147	0	32760	
5148	0	32716	
5149	0	32796	
5150	0	32832	
5151	0	32824	
5152	0	32806	
5153	0	32864	
5154	0	32858	
5155	0	32873	
5156	0	32914	
5157	0	32950	
5158	0	32938	
5159	0	32900	
5160	0	32885	
5161	0	32865	
5162	0	32903	
5163	0	32896	
5164	0	32930	
5165	0	32882	
5166	0	32890	
5167	0	32828	
5168	0	32786	
5169	0	32685	
5170	0	32688	
5171	0	32590	
5172	0	32592	
5173	0	32674	
5174	0	32636	
5175	0	32668	
5176	0	32738	
5177	0	32828	
5178	0	32913	
5179	0	32877	
5180	0	32876	
5181	0	32869	
5182	0	32798	
5183	0	32828	
5184	0	32768	
5185	0	32786	
5186	0	32793	
5187	0	32796	
5188	0	32764	
5189	0	32831	
5190	0	32821	
5191	0	32841	
5192	0	32903	
5193	0	32868	
5194	0	32964	
5195	0	32924	
5196	0	32850	
5197	0	32882	
5198	0	32865	
5199	0	32832	
5200	0	32748	
5201	0	32746	
5202	0	32800	
5203	0	32816	
5204	0	32822	
5205	0	32816	
5206	0	32824	
5207	0	32822	
5208	0	32804	
5209	0	32852	
5210	0	32814	
5211	0	32804	
5212	0	32775	
5213	0	32845	
5214	0	32770	
5215	0	32805	
5216	0	32736	
5217	0	32876	
5218	0	32816	
5219	0	32798	
5220	0	32720	
5221	0	32714	
5222	0	32744	
5223	0	32762	
5224	0	32775	
5225	0	32769	
5226	0	32864	
5227	0	32828	
5228	0	32880	
5229	0	32834	
5230	0	32788	
5231	0	32753	
5232	0	32830	
5233	0	32808	
5234	0	32817	
5235	0	32752	
5236	0	32786	
5237	0	32868	
5238	0	32841	
5239	0	32872	
5240	0	32884	
5241	0	32897	
5242	0	32835	
5243	0	32824	
5244	0	32785	
5245	0	32762	
5246	0	32756	
5247	0	32762	
5248	0	32797	
5249	0	32809	
5250	0	32744	
5251	0	32733	
5252	0	32764	
5253	0	32820	
5254	0	32784	
5255	0	32792	
5256	0	32801	
5257	0	32836	
5258	0	32821	
5259	0	32857	
5260	0	32828	
5261	0	32808	
5262	0	32826	
5263	0	32858	
5264	0	32850	
5265	0	32775	
5266	0	32796	
5267	0	32792	
5268	0	32797	
5269	0	32759	
5270	0	32696	
5271	0	32774	
5272	0	32764	
5273	0	32752	
5274	0	32805	
5275	0	32908	
5276	0	32854	
5277	0	32888	
5278	0	32836	
5279	0	32842	
5280	0	32846	
5281	0	32886	
5282	0	32817	
5283	0	32836	
5284	0	32802	
5285	0	32864	
5286	0	32768	
5287	0	32788	
5288	0	32754	
5289	0	32754	
5290	0	32727	
5291	0	32730	
5292	0	32728	
5293	0	32711	
5294	0	32710	
5295	0	32736	
5296	0	32798	
5297	0	32902	
5298	0	32965	
5299	0	32924	
5300	0	32982	
5301	0	32938	
5302	0	33007	
5303	0	32924	
5304	0	32891	
5305	0	32822	
5306	0	32824	
5307	0	32832	
5308	0	32730	
5309	0	32727	
5310	0	32741	
5311	0	32796	
5312	0	32773	
5313	0	32836	
5314	0	32842	
5315	0	32919	
5316	0	32832	
5317	0	32784	
5318	0	32821	
5319	0	32844	
5320	0	32804	
5321	0	32775	
5322	0	32790	
5323	0	32727	
5324	0	32730	
5325	0	32789	
5326	0	32784	
5327	0	32765	
5328	0	32773	
5329	0	32805	
5330	0	32844	
5331	0	32838	
5332	0	32850	
5333	0	32790	
5334	0	32766	
5335	0	32817	
5336	0	32791	
5337	0	32790	
5338	0	32786	
5339	0	32774	
5340	0	32826	
5341	0	32839	
5342	0	32901	
5343	0	32903	
5344	0	32853	
5345	0	32819	
5346	0	32820	
5347	0	32882	
5348	0	32939	
5349	0	32850	
5350	0	32798	
5351	0	32774	
5352	0	32738	
5353	0	32711	
5354	0	32646	
5355	0	32789	
5356	0	32992	
5357	0	33098	
5358	0	33039	
5359	0	32972	
5360	0	32820	
5361	0	32616	
5362	0	32507	
5363	0	32446	
5364	0	32356	
5365	0	32276	
5366	0	32498	
5367	0	32775	
5368	0	32902	
5369	0	32952	
5370	0	32903	
5371	0	32911	
5372	0	32978	
5373	0	33012	
5374	0	32978	
5375	0	32903	
5376	0	32940	
5377	0	32846	
5378	0	32868	
5379	0	32852	
5380	0	32842	
5381	0	32878	
5382	0	32856	
5383	0	32898	
5384	0	32839	
5385	0	32772	
5386	0	32775	
5387	0	32743	
5388	0	32712	
5389	0	32666	
5390	0	32752	
5391	0	32884	
5392	0	32937	
5393	0	32903	
5394	0	32898	
5395	0	32918	
5396	0	32902	
5397	0	32812	
5398	0	32701	
5399	0	32694	
5400	0	32769	
5401	0	32665	
5402	0	32713	
5403	0	32770	
5404	0	32774	
5405	0	32745	
5406	0	32775	
5407	0	32834	
5408	0	32820	
5409	0	32882	
5410	0	32845	
5411	0	32796	
5412	0	32790	
5413	0	32832	
5414	0	32772	
5415	0	32775	
5416	0	32732	
5417	0	32775	
5418	0	32772	
5419	0	32847	
5420	0	32880	
5421	0	32839	
5422	0	32861	
5423	0	32903	
5424	0	32821	
5425	0	32832	
5426	0	32813	
5427	0	32792	
5428	0	32748	
5429	0	32793	
5430	0	32772	
5431	0	32795	
5432	0	32772	
5433	0	32855	
5434	0	32812	
5435	0	32797	
5436	0	32826	
5437	0	32770	
5438	0	32818	
5439	0	32796	
5440	0	32738	
5441	0	32822	
5442	0	32820	
5443	0	32797	
5444	0	32899	
5445	0	32804	
5446	0	32850	
5447	0	32828	
5448	0	32836	
5449	0	32874	
5450	0	32940	
5451	0	32956	
5452	0	32839	
5453	0	32806	
5454	0	32797	
5455	0	32711	
5456	0	32687	
5457	0	32734	
5458	0	32734	
5459	0	32830	
5460	0	32722	
5461	0	32740	
5462	0	32701	
5463	0	32724	
5464	0	32807	
5465	0	32788	
5466	0	32838	
5467	0	32790	
5468	0	32891	
5469	0	32903	
5470	0	32868	
5471	0	32949	
5472	0	32908	
5473	0	32864	
5474	0	32839	
5475	0	32892	
5476	0	32902	
5477	0	32883	
5478	0	32788	
5479	0	32793	
5480	0	32832	
5481	0	32768	
5482	0	32831	
5483	0	32837	
5484	0	32775	
5485	0	32790	
5486	0	32796	
5487	0	32796	
5488	0	32784	
5489	0	32730	
5490	0	32775	
5491	0	32733	
5492	0	32839	
5493	0	32826	
5494	0	32826	
5495	0	32806	
5496	0	32793	
5497	0	32732	
5498	0	32696	
5499	0	32694	
5500	0	32763	
5501	0	32825	
5502	0	32862	
5503	0	32874	
5504	0	32844	
5505	0	32826	
5506	0	32811	
5507	0	32902	
5508	0	32879	
5509	0	32834	
5510	0	32858	
5511	0	32911	
5512	0	32804	
5513	0	32774	
5514	0	32805	
5515	0	32834	
5516	0	32857	
5517	0	32844	
5518	0	32878	
5519	0	32892	
5520	0	32820	
5521	0	32890	
5522	0	32865	
5523	0	32890	
5524	0	32838	
5525	0	32760	
5526	0	32775	
5527	0	32804	
5528	0	32820	
5529	0	32760	
5530	0	32825	
5531	0	32820	
5532	0	32800	
5533	0	32760	
5534	0	32712	
5535	0	32712	
5536	0	32695	
5537	0	32704	
5538	0	32738	
5539	0	32768	
5540	0	32748	
5541	0	32770	
5542	0	32775	
5543	0	32758	
5544	0	32796	
5545	0	32825	
5546	0	32805	
5547	0	32850	
5548	0	32770	
5549	0	32773	
5550	0	32774	
5551	0	32811	
5552	0	32843	
5553	0	32814	
5554	0	32774	
5555	0	32815	
5556	0	32745	
5557	0	32722	
5558	0	32828	
5559	0	32796	
5560	0	32762	
5561	0	32824	
5562	0	32826	
5563	0	32864	
5564	0	32809	
5565	0	32824	
5566	0	32874	
5567	0	32879	
5568	0	32954	
5569	0	32965	
5570	0	32967	
5571	0	32882	
5572	0	32879	
5573	0	32816	
5574	0	32826	
5575	0	32806	
5576	0	32743	
5577	0	32704	
5578	0	32687	
5579	0	32775	
5580	0	32746	
5581	0	32845	
5582	0	32903	
5583	0	32832	
5584	0	32732	
5585	0	32742	
5586	0	32736	
5587	0	32761	
5588	0	32820	
5589	0	32839	
5590	0	32892	
5591	0	32924	
5592	0	32824	
5593	0	32908	
5594	0	32903	
5595	0	32806	
5596	0	32824	
5597	0	32848	
5598	0	32910	
5599	0	32903	
5600	0	32895	
5601	0	32766	
5602	0	32804	
5603	0	32770	
5604	0	32690	
5605	0	32692	
5606	0	32754	
5607	0	32788	
5608	0	32792	
5609	0	32824	
5610	0	32836	
5611	0	32773	
5612	0	32806	
5613	0	32827	
5614	0	32814	
5615	0	32775	
5616	0	32822	
5617	0	32756	
5618	0	32784	
5619	0	32839	
5620	0	32775	
5621	0	32814	
5622	0	32775	
5623	0	32848	
5624	0	32858	
5625	0	32824	
5626	0	32850	
5627	0	32810	
5628	0	32839	
5629	0	32848	
5630	0	32829	
5631	0	32734	
5632	0	32725	
5633	0	32726	
5634	0	32744	
5635	0	32708	
5636	0	32761	
5637	0	32798	
5638	0	32806	
5639	0	32852	
5640	0	32880	
5641	0	32898	
5642	0	32798	
5643	0	32799	
5644	0	32813	
5645	0	32830	
5646	0	32821	
5647	0	32739	
5648	0	32761	
5649	0	32760	
5650	0	32800	
5651	0	32854	
5652	0	32810	
5653	0	32808	
5654	0	32845	
5655	0	32800	
5656	0	32846	
5657	0	32756	
5658	0	32816	
5659	0	32775	
5660	0	32827	
5661	0	32879	
5662	0	32884	
5663	0	32850	
5664	0	32854	
5665	0	32820	
5666	0	32840	
5667	0	32807	
5668	0	32775	
5669	0	32786	
5670	0	32767	
5671	0	32816	
5672	0	32921	
5673	0	32872	
5674	0	32812	
5675	0	32842	
5676	0	32806	
5677	0	32830	
5678	0	32792	
5679	0	32803	
5680	0	32762	
5681	0	32920	
5682	0	32898	
5683	0	32903	
5684	0	32985	
5685	0	32866	
5686	0	32800	
5687	0	32828	
5688	0	32792	
5689	0	32743	
5690	0	32760	
5691	0	32775	
5692	0	32788	
5693	0	32825	
5694	0	32791	
5695	0	32839	
5696	0	32704	
5697	0	32714	
5698	0	32711	
5699	0	32762	
5700	0	32775	
5701	0	32753	
5702	0	32716	
5703	0	32737	
5704	0	32820	
5705	0	32804	
5706	0	32800	
5707	0	32708	
5708	0	32736	
5709	0	32706	
5710	0	32722	
5711	0	32822	
5712	0	32824	
5713	0	32840	
5714	0	32894	
5715	0	32856	
5716	0	32877	
5717	0	32900	
5718	0	32896	
5719	0	32854	
5720	0	32800	
5721	0	32835	
5722	0	32823	
5723	0	32830	
5724	0	32826	
5725	0	32902	
5726	0	32804	
5727	0	32848	
5728	0	32864	
5729	0	32775	
5730	0	32794	
5731	0	32722	
5732	0	32775	
5733	0	32707	
5734	0	32758	
5735	0	32775	
5736	0	32756	
5737	0	32716	
5738	0	32684	
5739	0	32736	
5740	0	32738	
5741	0	32746	
5742	0	32716	
5743	0	32748	
5744	0	32762	
5745	0	32804	
5746	0	32949	
5747	0	32884	
5748	0	32870	
5749	0	32845	
5750	0	32890	
5751	0	32876	
5752	0	32890	
5753	0	32895	
5754	0	32916	
5755	0	32934	
5756	0	32933	
5757	0	32924	
5758	0	32887	
5759	0	32878	
5760	0	32884	
5761	0	32807	
5762	0	32774	
5763	0	32728	
5764	0	32713	
5765	0	32706	
5766	0	32775	
5767	0	32786	
5768	0	32824	
5769	0	32775	
5770	0	32728	
5771	0	32717	
5772	0	32674	
5773	0	32724	
5774	0	32754	
5775	0	32857	
5776	0	32770	
5777	0	32797	
5778	0	32704	
5779	0	32814	
5780	0	32838	
5781	0	32864	
5782	0	32914	
5783	0	32876	
5784	0	32880	
5785	0	32911	
5786	0	32903	
5787	0	32892	
5788	0	32837	
5789	0	32807	
5790	0	32767	
5791	0	32836	
5792	0	32833	
5793	0	32823	
5794	0	32879	
5795	0	32803	
5796	0	32792	
5797	0	32714	
5798	0	32775	
5799	0	32788	
5800	0	32749	
5801	0	32773	
5802	0	32742	
5803	0	32754	
5804	0	32722	
5805	0	32677	
5806	0	32754	
5807	0	32790	
5808	0	32790	
5809	0	32839	
5810	0	32818	
5811	0	32775	
5812	0	32806	
5813	0	32775	
5814	0	32775	
5815	0	32808	
5816	0	32799	
5817	0	32800	
5818	0	32792	
5819	0	32829	
5820	0	32839	
5821	0	32930	
5822	0	32978	
5823	0	32854	
5824	0	32807	
5825	0	32810	
5826	0	32767	
5827	0	32810	
5828	0	32802	
5829	0	32835	
5830	0	32810	
5831	0	32868	
5832	0	32856	
5833	0	32802	
5834	0	32806	
5835	0	32796	
5836	0	32696	
5837	0	32644	
5838	0	32733	
5839	0	32775	
5840	0	32768	
5841	0	32860	
5842	0	32808	
5843	0	32873	
5844	0	32856	
5845	0	32852	
5846	0	32946	
5847	0	32863	
5848	0	32868	
5849	0	32847	
5850	0	32816	
5851	0	32741	
5852	0	32720	
5853	0	32764	
5854	0	32847	
5855	0	32750	
5856	0	32746	
5857	0	32796	
5858	0	32926	
5859	0	32898	
5860	0	32966	
5861	0	32892	
5862	0	32829	
5863	0	32786	
5864	0	32748	
5865	0	32784	
5866	0	32816	
5867	0	32774	
5868	0	32775	
5869	0	32833	
5870	0	32798	
5871	0	32818	
5872	0	32787	
5873	0	32748	
5874	0	32764	
5875	0	32775	
5876	0	32733	
5877	0	32680	
5878	0	32722	
5879	0	32784	
5880	0	32818	
5881	0	32775	
5882	0	32775	
5883	0	32812	
5884	0	32822	
5885	0	32864	
5886	0	32775	
5887	0	32890	
5888	0	32969	
5889	0	32972	
5890	0	32938	
5891	0	32896	
5892	0	32903	
5893	0	32903	
5894	0	32893	
5895	0	32796	
5896	0	32800	
5897	0	32768	
5898	0	32717	
5899	0	32756	
5900	0	32826	
5901	0	32864	
5902	0	32804	
5903	0	32804	
5904	0	32725	
5905	0	32729	
5906	0	32670	
5907	0	32684	
5908	0	32692	
5909	0	32757	
5910	0	32745	
5911	0	32775	
5912	0	32775	
5913	0	32792	
5914	0	32763	
5915	0	32768	
5916	0	32772	
5917	0	32823	
5918	0	32821	
5919	0	32918	
5920	0	32898	
5921	0	32933	
5922	0	32993	
5923	0	32903	
5924	0	32914	
5925	0	32880	
5926	0	32817	
5927	0	32847	
5928	0	32798	
5929	0	32753	
5930	0	32720	
5931	0	32693	
5932	0	32730	
5933	0	32739	
5934	0	32784	
5935	0	32698	
5936	0	32734	
5937	0	32805	
5938	0	32836	
5939	0	32800	
5940	0	32856	
5941	0	32789	
5942	0	32844	
5943	0	32866	
5944	0	32853	
5945	0	32869	
5946	0	32954	
5947	0	32925	
5948	0	32967	
5949	0	32934	
5950	0	32874	
5951	0	32738	
5952	0	32662	
5953	0	32695	
5954	0	32762	
5955	0	32860	
5956	0	32836	
5957	0	32871	
5958	0	32887	
5959	0	32838	
5960	0	32818	
5961	0	32753	
5962	0	32741	
5963	0	32774	
5964	0	32720	
5965	0	32775	
5966	0	32844	
5967	0	32741	
5968	0	32796	
5969	0	32846	
5970	0	32808	
5971	0	32770	
5972	0	32751	
5973	0	32789	
5974	0	32832	
5975	0	32858	
5976	0	32826	
5977	0	32842	
5978	0	32750	
5979	0	32808	
5980	0	32844	
5981	0	32823	
5982	0	32868	
5983	0	32844	
5984	0	32852	
5985	0	32831	
5986	0	32766	
5987	0	32812	
5988	0	32716	
5989	0	32762	
5990	0	32774	
5991	0	32878	
5992	0	32872	
5993	0	32789	
5994	0	32843	
5995	0	32842	
5996	0	32816	
5997	0	32891	
5998	0	32854	
5999	0	32772	
6000	0	32797	
6001	0	32728	
6002	0	32722	
6003	0	32810	
6004	0	32775	
6005	0	32785	
6006	0	32806	
6007	0	32724	
6008	0	32775	
6009	0	32768	
6010	0	32812	
6011	0	32894	
6012	0	32932	
6013	0	32885	
6014	0	32920	
6015	0	32835	
6016	0	32846	
6017	0	32791	
6018	0	32806	
6019	0	32728	
6020	0	32764	
6021	0	32734	
6022	0	32760	
6023	0	32797	
6024	0	32826	
6025	0	32808	
6026	0	32832	
6027	0	32890	
6028	0	32808	
6029	0	32823	
6030	0	32876	
6031	0	32828	
6032	0	32914	
6033	0	32828	
6034	0	32832	
6035	0	32754	
6036	0	32819	
6037	0	32888	
6038	0	32868	
6039	0	32816	
6040	0	32775	
6041	0	32800	
6042	0	32839	
6043	0	32814	
6044	0	32784	
6045	0	32828	
6046	0	32764	
6047	0	32711	
6048	0	32662	
6049	0	32647	
6050	0	32692	
6051	0	32762	
6052	0	32848	
6053	0	32879	
6054	0	32936	
6055	0	32885	
6056	0	32934	
6057	0	32851	
6058	0	32868	
6059	0	32832	
6060	0	32775	
6061	0	32824	
6062	0	32837	
6063	0	32824	
6064	0	32813	
6065	0	32775	
6066	0	32748	
6067	0	32714	
6068	0	32784	
6069	0	32745	
6070	0	32792	
6071	0	32775	
6072	0	32792	
6073	0	32794	
6074	0	32810	
6075	0	32870	
6076	0	32884	
6077	0	32950	
6078	0	32864	
6079	0	32844	
6080	0	32836	
6081	0	32849	
6082	0	32775	
6083	0	32799	
6084	0	32801	
6085	0	32807	
6086	0	32720	
6087	0	32762	
6088	0	32775	
6089	0	32724	
6090	0	32696	
6091	0	32852	
6092	0	32824	
6093	0	32854	
6094	0	32820	
6095	0	32847	
6096	0	32844	
6097	0	32818	
6098	0	32826	
6099	0	32854	
6100	0	32844	
6101	0	32790	
6102	0	32821	
6103	0	32825	
6104	0	32775	
6105	0	32816	
6106	0	32818	
6107	0	32832	
6108	0	32814	
6109	0	32877	
6110	0	32888	
6111	0	32946	
6112	0	32981	
6113	0	32898	
6114	0	32839	
6115	0	32775	
6116	0	32822	
6117	0	32826	
6118	0	32775	
6119	0	32794	
6120	0	32748	
6121	0	32760	
6122	0	32775	
6123	0	32772	
6124	0	32714	
6125	0	32769	
6126	0	32766	
6127	0	32748	
6128	0	32710	
6129	0	32711	
6130	0	32805	
6131	0	32742	
6132	0	32775	
6133	0	32764	
6134	0	32775	
6135	0	32744	
6136	0	32792	
6137	0	32824	
6138	0	32918	
6139	0	32870	
6140	0	32839	
6141	0	32862	
6142	0	32773	
6143	0	32798	
6144	0	32792	
6145	0	32768	
6146	0	32756	
6147	0	32818	
6148	0	32876	
6149	0	32817	
6150	0	32814	
6151	0	32868	
6152	0	32820	
6153	0	32775	
6154	0	32775	
6155	0	32850	
6156	0	32870	
6157	0	32863	
6158	0	32794	
6159	0	32844	
6160	0	32847	
6161	0	32722	
6162	0	32761	
6163	0	32796	
6164	0	32762	
6165	0	32817	
6166	0	32829	
6167	0	32827	
6168	0	32825	
6169	0	32869	
6170	0	32924	
6171	0	32838	
6172	0	32839	
6173	0	32879	
6174	0	32839	
6175	0	32770	
6176	0	32775	
6177	0	32816	
6178	0	32792	
6179	0	32774	
6180	0	32798	
6181	0	32796	
6182	0	32871	
6183	0	32851	
6184	0	32802	
6185	0	32800	
6186	0	32876	
6187	0	32828	
6188	0	32800	
6189	0	32807	
6190	0	32804	
6191	0	32796	
6192	0	32892	
6193	0	32772	
6194	0	32772	
6195	0	32820	
6196	0	32775	
6197	0	32767	
6198	0	32805	
6199	0	32823	
6200	0	32868	
6201	0	32854	
6202	0	32832	
6203	0	32786	
6204	0	32768	
6205	0	32715	
6206	0	32764	
6207	0	32732	
6208	0	32728	
6209	0	32788	
6210	0	32717	
6211	0	32748	
6212	0	32700	
6213	0	32798	
6214	0	32828	
6215	0	32869	
6216	0	32919	
6217	0	32902	
6218	0	32972	
6219	0	32970	
6220	0	32892	
6221	0	32863	
6222	0	32822	
6223	0	32774	
6224	0	32794	
6225	0	32722	
6226	0	32680	
6227	0	32748	
6228	0	32740	
6229	0	32741	
6230	0	32791	
6231	0	32792	
6232	0	32797	
6233	0	32848	
6234	0	32983	
6235	0	32966	
6236	0	32935	
6237	0	32883	
6238	0	32832	
6239	0	32735	
6240	0	32706	
6241	0	32813	
6242	0	32775	
6243	0	32803	
6244	0	32756	
6245	0	32788	
6246	0	32775	
6247	0	32772	
6248	0	32775	
6249	0	32818	
6250	0	32773	
6251	0	32799	
6252	0	32871	
6253	0	32882	
6254	0	32877	
6255	0	32863	
6256	0	32840	
6257	0	32829	
6258	0	32814	
6259	0	32868	
6260	0	32832	
6261	0	32818	
6262	0	32818	
6263	0	32844	
6264	0	32774	
6265	0	32797	
6266	0	32815	
6267	0	32775	
6268	0	32817	
6269	0	32838	
6270	0	32798	
6271	0	32660	
6272	0	32700	
6273	0	32782	
6274	0	32766	
6275	0	32774	
6276	0	32861	
6277	0	32813	
6278	0	32819	
6279	0	32707	
6280	0	32722	
6281	0	32720	
6282	0	32775	
6283	0	32848	
6284	0	32880	
6285	0	32882	
6286	0	32865	
6287	0	32871	
6288	0	32874	
6289	0	32852	
6290	0	32853	
6291	0	32770	
6292	0	32824	
6293	0	32848	
6294	0	32830	
6295	0	32868	
6296	0	32796	
6297	0	32773	
6298	0	32804	
6299	0	32762	
6300	0	32797	
6301	0	32775	
6302	0	32810	
6303	0	32865	
6304	0	32908	
6305	0	32902	
6306	0	32850	
6307	0	32872	
6308	0	32790	
6309	0	32836	
6310	0	32714	
6311	0	32749	
6312	0	32796	
6313	0	32840	
6314	0	32789	
6315	0	32792	
6316	0	32811	
6317	0	32794	
6318	0	32770	
6319	0	32781	
6320	0	32808	
6321	0	32768	
6322	0	32860	
6323	0	32855	
6324	0	32832	
6325	0	32816	
6326	0	32826	
6327	0	32838	
6328	0	32842	
6329	0	32813	
6330	0	32786	
6331	0	32772	
6332	0	32813	
6333	0	32754	
6334	0	32751	
6335	0	32812	
6336	0	32790	
6337	0	32794	
6338	0	32726	
6339	0	32759	
6340	0	32800	
6341	0	32817	
6342	0	32820	
6343	0	32821	
6344	0	32877	
6345	0	32871	
6346	0	32790	
6347	0	32836	
6348	0	32784	
6349	0	32800	
6350	0	32851	
6351	0	32862	
6352	0	32805	
6353	0	32774	
6354	0	32795	
6355	0	32880	
6356	0	32886	
6357	0	32922	
6358	0	32951	
6359	0	32994	
6360	0	32960	
6361	0	32879	
6362	0	32798	
6363	0	32743	
6364	0	32730	
6365	0	32731	
6366	0	32736	
6367	0	32677	
6368	0	32736	
6369	0	32726	
6370	0	32740	
6371	0	32862	
6372	0	32828	
6373	0	32838	
6374	0	32770	
6375	0	32786	
6376	0	32767	
6377	0	32756	
6378	0	32713	
6379	0	32775	
6380	0	32743	
6381	0	32677	
6382	0	32647	
6383	0	32810	
6384	0	32839	
6385	0	32873	
6386	0	32802	
6387	0	32832	
6388	0	32845	
6389	0	32898	
6390	0	32924	
6391	0	32892	
6392	0	32878	
6393	0	32872	
6394	0	32828	
6395	0	32827	
6396	0	32796	
6397	0	32745	
6398	0	32756	
6399	0	32806	
6400	0	32823	
6401	0	32748	
6402	0	32671	
6403	0	32804	
6404	0	32741	
6405	0	32784	
6406	0	32802	
6407	0	32794	
6408	0	32826	
6409	0	32838	
6410	0	32862	
6411	0	32834	
6412	0	32829	
6413	0	32942	
6414	0	32880	
6415	0	32822	
6416	0	32800	
6417	0	32764	
6418	0	32758	
6419	0	32806	
6420	0	32821	
6421	0	32865	
6422	0	32844	
6423	0	32872	
6424	0	32834	
6425	0	32845	
6426	0	32914	
6427	0	32820	
6428	0	32807	
6429	0	32736	
6430	0	32710	
6431	0	32808	
6432	0	32765	
6433	0	32820	
6434	0	32792	
6435	0	32840	
6436	0	32855	
6437	0	32874	
6438	0	32858	
6439	0	32888	
6440	0	32808	
6441	0	32782	
6442	0	32812	
6443	0	32862	
6444	0	32818	
6445	0	32871	
6446	0	32861	
6447	0	32856	
6448	0	32770	
6449	0	32748	
6450	0	32816	
6451	0	32872	
6452	0	32871	
6453	0	32854	
6454	0	32844	
6455	0	32832	
6456	0	32886	
6457	0	32855	
6458	0	32837	
6459	0	32816	
6460	0	32740	
6461	0	32710	
6462	0	32704	
6463	0	32742	
6464	0	32735	
6465	0	32720	
6466	0	32647	
6467	0	32758	
6468	0	32916	
6469	0	32870	
6470	0	32973	
6471	0	32867	
6472	0	32813	
6473	0	32736	
6474	0	32700	
6475	0	32757	
6476	0	32730	
6477	0	32770	
6478	0	32844	
6479	0	32846	
6480	0	32841	
6481	0	32897	
6482	0	32838	
6483	0	32797	
6484	0	32742	
6485	0	32743	
6486	0	32728	
6487	0	32796	
6488	0	32750	
6489	0	32624	
6490	0	32713	
6491	0	32681	
6492	0	32758	
6493	0	32748	
6494	0	32840	
6495	0	32796	
6496	0	32855	
6497	0	32834	
6498	0	32808	
6499	0	32823	
6500	0	32903	
6501	0	32960	
6502	0	32948	
6503	0	32940	
6504	0	32836	
6505	0	32813	
6506	0	32813	
6507	0	32828	
6508	0	32852	
6509	0	32827	
6510	0	32810	
6511	0	32775	
6512	0	32789	
6513	0	32865	
6514	0	32764	
6515	0	32775	
6516	0	32772	
6517	0	32744	
6518	0	32670	
6519	0	32804	
6520	0	32842	
6521	0	32874	
6522	0	32900	
6523	0	32963	
6524	0	32971	
6525	0	32888	
6526	0	32958	
6527	0	32952	
6528	0	32894	
6529	0	32765	
6530	0	32774	
6531	0	32732	
6532	0	32685	
6533	0	32731	
6534	0	32680	
6535	0	32736	
6536	0	32713	
6537	0	32804	
6538	0	32858	
6539	0	32839	
6540	0	32788	
6541	0	32820	
6542	0	32801	
6543	0	32792	
6544	0	32809	
6545	0	32745	
6546	0	32790	
6547	0	32758	
6548	0	32764	
6549	0	32790	
6550	0	32745	
6551	0	32871	
6552	0	32864	
6553	0	32911	
6554	0	32927	
6555	0	32884	
6556	0	32872	
6557	0	32908	
6558	0	32814	
6559	0	32786	
6560	0	32750	
6561	0	32734	
6562	0	32757	
6563	0	32762	
6564	0	32806	
6565	0	32825	
6566	0	32830	
6567	0	32765	
6568	0	32821	
6569	0	32862	
6570	0	32839	
6571	0	32756	
6572	0	32772	
6573	0	32740	
6574	0	32647	
6575	0	32602	
6576	0	32644	
6577	0	32672	
6578	0	32712	
6579	0	32813	
6580	0	32888	
6581	0	32878	
6582	0	32992	
6583	0	32976	
6584	0	32887	
6585	0	32832	
6586	0	32903	
6587	0	32888	
6588	0	32856	
6589	0	32846	
6590	0	32745	
6591	0	32740	
6592	0	32697	
6593	0	32739	
6594	0	32770	
6595	0	32775	
6596	0	32804	
6597	0	32775	
6598	0	32772	
6599	0	32729	
6600	0	32785	
6601	0	32806	
6602	0	32775	
6603	0	32791	
6604	0	32856	
6605	0	32868	
6606	0	32894	
6607	0	32928	
6608	0	32887	
6609	0	32876	
6610	0	32903	
6611	0	32836	
6612	0	33078	
6613	0	33072	
6614	0	32959	
6615	0	32848	
6616	0	33190	
6617	0	34802	
6618	0	36178	
6619	0	36871	
6620	0	35856	
6621	0	34074	
6622	0	32154	
6623	0	30520	
6624	0	29782	
6625	0	28536	
6626	0	28294	
6627	0	28788	
6628	0	30054	
6629	0	31746	
6630	0	33300	
6631	0	35152	
6632	0	36896	
6633	0	40990	
6634	0	43456	
6635	0	44976	
6636	0	42119	
6637	0	33350	
6638	0	23496	
6639	0	16340	
6640	0	15210	
6641	0	20187	
6642	0	29726	
6643	0	42124	
6644	0	48712	
6645	0	49701	
6646	0	43885	
6647	0	37924	
6648	0	25200	
6649	0	20308	
6650	0	29482	
6651	0	30172	
6652	0	25405	
6653	0	26116	
6654	0	28560	
6655	0	31606	
6656	0	30753	
6657	0	29698	
6658	0	31110	
6659	0	32158	
6660	0	35302	
6661	0	38832	
6662	0	41640	
6663	0	45204	
6664	0	40192	
6665	0	26196	
6666	0	20508	
6667	0	23384	
6668	0	38648	
6669	0	42749	
6670	0	39890	
6671	0	28936	
6672	0	13928	
6673	0	7954	
6674	0	15432	
6675	0	27908	
6676	0	38364	
6677	0	49164	
6678	0	56956	
6679	0	49688	
6680	0	53355	
6681	0	46800	
6682	0	32218	
6683	0	19170	
6684	0	7526	
6685	0	4148	
6686	0	7874	
6687	0	11347	
6688	0	36472	
6689	0	41932	
6690	0	39120	
6691	0	36352	
6692	0	32566	
6693	0	36248	
6694	0	42788	
6695	0	45196	
6696	0	46116	
6697	0	44154	
6698	0	39928	
6699	0	34468	
6700	0	31040	
6701	0	28870	
6702	0	28462	
6703	0	28351	
6704	0	27250	
6705	0	32584	
6706	0	38072	
6707	0	40628	
6708	0	38036	
6709	0	33716	
6710	0	27900	
6711	0	23460	
6712	0	25340	
6713	0	29348	
6714	0	32979	
6715	0	33732	
6716	0	34699	
6717	0	35081	
6718	0	35164	
6719	0	34968	
6720	0	34616	
6721	0	34322	
6722	0	34076	
6723	0	33840	
6724	0	33608	
6725	0	33471	
6726	0	33242	
6727	0	33118	
6728	0	32985	
6729	0	32876	
6730	0	32806	
6731	0	32711	
6732	0	32612	
6733	0	32596	
6734	0	32584	
6735	0	32605	
6736	0	32524	
6737	0	32564	
6738	0	32589	
6739	0	32560	
6740	0	32605	
6741	0	32617	
6742	0	32652	
6743	0	32600	
6744	0	32564	
6745	0	32580	
6746	0	32614	
6747	0	32672	
6748	0	32728	
6749	0	32725	
6750	0	32657	
6751	0	32692	
6752	0	32632	
6753	0	32616	
6754	0	32556	
6755	0	32618	
6756	0	32691	
6757	0	32775	
6758	0	32817	
6759	0	32854	
6760	0	32904	
6761	0	32876	
6762	0	32836	
6763	0	32814	
6764	0	32758	
6765	0	32812	
6766	0	32856	
6767	0	32802	
6768	0	32830	
6769	0	32864	
6770	0	32729	
6771	0	32650	
6772	0	32768	
6773	0	32798	
6774	0	32824	
6775	0	32832	
6776	0	32743	
6777	0	32704	
6778	0	32608	
6779	0	32550	
6780	0	32756	
6781	0	32794	
6782	0	32730	
6783	0	32824	
6784	0	32862	
6785	0	32824	
6786	0	32838	
6787	0	32858	
6788	0	32808	
6789	0	32751	
6790	0	32808	
6791	0	32800	
6792	0	32768	
6793	0	32775	
6794	0	32774	
6795	0	32938	
6796	0	33008	
6797	0	33018	
6798	0	32974	
6799	0	32914	
6800	0	32840	
6801	0	32796	
6802	0	32784	
6803	0	32809	
6804	0	32767	
6805	0	32775	
6806	0	32796	
6807	0	32892	
6808	0	32836	
6809	0	32821	
6810	0	32841	
6811	0	32821	
6812	0	32768	
6813	0	32656	
6814	0	32706	
6815	0	32728	
6816	0	32652	
6817	0	32672	
6818	0	32686	
6819	0	32845	
6820	0	32839	
6821	0	32820	
6822	0	32900	
6823	0	32805	
6824	0	32618	
6825	0	32774	
6826	0	32804	
6827	0	32821	
6828	0	32786	
6829	0	32758	
6830	0	32802	
6831	0	32861	
6832	0	32828	
6833	0	32952	
6834	0	32887	
6835	0	32729	
6836	0	32731	
6837	0	32843	
6838	0	32932	
6839	0	32960	
6840	0	32775	
6841	0	32690	
6842	0	32722	
6843	0	32628	
6844	0	32696	
6845	0	32757	
6846	0	32775	
6847	0	32839	
6848	0	32775	
6849	0	32758	
6850	0	32765	
6851	0	32736	
6852	0	32772	
6853	0	32850	
6854	0	32820	
6855	0	32787	
6856	0	32741	
6857	0	32772	
6858	0	32800	
6859	0	32732	
6860	0	32760	
6861	0	32825	
6862	0	32869	
6863	0	32825	
6864	0	32774	
6865	0	32836	
6866	0	32832	
6867	0	32844	
6868	0	32775	
6869	0	32856	
6870	0	32898	
6871	0	32966	
6872	0	32855	
6873	0	32674	
6874	0	32663	
6875	0	32732	
6876	0	32820	
6877	0	32810	
6878	0	32768	
6879	0	32768	
6880	0	32796	
6881	0	32840	
6882	0	32829	
6883	0	32884	
6884	0	32797	
6885	0	32767	
6886	0	32775	
6887	0	32797	
6888	0	32892	
6889	0	32962	
6890	0	32954	
6891	0	32984	
6892	0	32956	
6893	0	32864	
6894	0	32915	
6895	0	32850	
6896	0	32752	
6897	0	32748	
6898	0	32717	
6899	0	32726	
6900	0	32703	
6901	0	32768	
6902	0	32774	
6903	0	32794	
6904	0	32828	
6905	0	32799	
6906	0	32764	
6907	0	32720	
6908	0	32768	
6909	0	32762	
6910	0	32758	
6911	0	32736	
6912	0	32742	
6913	0	32749	
6914	0	32825	
6915	0	32853	
6916	0	32902	
6917	0	32832	
6918	0	32848	
6919	0	32805	
6920	0	32874	
6921	0	32868	
6922	0	32936	
6923	0	32900	
6924	0	32868	
6925	0	32830	
6926	0	32806	
6927	0	32808	
6928	0	32800	
6929	0	32858	
6930	0	32880	
6931	0	32918	
6932	0	32928	
6933	0	32912	
6934	0	32828	
6935	0	32816	
6936	0	32771	
6937	0	32816	
6938	0	32664	
6939	0	32659	
6940	0	32734	
6941	0	32818	
6942	0	32771	
6943	0	32712	
6944	0	32856	
6945	0	32916	
6946	0	32877	
6947	0	32820	
6948	0	32724	
6949	0	32812	
6950	0	32901	
6951	0	32887	
6952	0	32774	
6953	0	32730	
6954	0	32816	
6955	0	32864	
6956	0	32836	
6957	0	32838	
6958	0	32756	
6959	0	32639	
6960	0	32645	
6961	0	32731	
6962	0	32752	
6963	0	32826	
6964	0	32903	
6965	0	32918	
6966	0	32944	
6967	0	32891	
6968	0	32864	
6969	0	32876	
6970	0	32814	
6971	0	32844	
6972	0	32819	
6973	0	32706	
6974	0	32775	
6975	0	32794	
6976	0	32839	
6977	0	32757	
6978	0	32769	
6979	0	32836	
6980	0	32808	
6981	0	32829	
6982	0	32824	
6983	0	32870	
6984	0	32845	
6985	0	32831	
6986	0	32833	
6987	0	32852	
6988	0	32848	
6989	0	32814	
6990	0	32813	
6991	0	32775	
6992	0	32797	
6993	0	32832	
6994	0	32804	
6995	0	32772	
6996	0	32786	
6997	0	32692	
6998	0	32722	
6999	0	32722	
7000	0	32770	
7001	0	32800	
7002	0	32813	
7003	0	32854	
7004	0	32846	
7005	0	32886	
7006	0	32770	
7007	0	32873	
7008	0	32808	
7009	0	32788	
7010	0	32861	
7011	0	32844	
7012	0	32849	
7013	0	32858	
7014	0	32903	
7015	0	32801	
7016	0	32754	
7017	0	32749	
7018	0	32768	
7019	0	32820	
7020	0	32775	
7021	0	32747	
7022	0	32833	
7023	0	32873	
7024	0	32903	
7025	0	32948	
7026	0	32900	
7027	0	32860	
7028	0	32920	
7029	0	32793	
7030	0	32794	
7031	0	32747	
7032	0	32757	
7033	0	32722	
7034	0	32716	
7035	0	32708	
7036	0	32792	
7037	0	32792	
7038	0	32770	
7039	0	32766	
7040	0	32775	
7041	0	32864	
7042	0	32820	
7043	0	32809	
7044	0	32800	
7045	0	32764	
7046	0	32792	
7047	0	32775	
7048	0	32786	
7049	0	32784	
7050	0	32790	
7051	0	32816	
7052	0	32898	
7053	0	32858	
7054	0	32772	
7055	0	32748	
7056	0	32676	
7057	0	32732	
7058	0	32856	
7059	0	32908	
7060	0	32916	
7061	0	32836	
7062	0	32845	
7063	0	32934	
7064	0	32941	
7065	0	33132	
7066	0	33245	
7067	0	33070	
7068	0	32970	
7069	0	32860	
7070	0	32704	
7071	0	32598	
7072	0	32507	
7073	0	32360	
7074	0	32406	
7075	0	32620	
7076	0	32792	
7077	0	32874	
7078	0	32910	
7079	0	32895	
7080	0	32796	
7081	0	32775	
7082	0	32716	
7083	0	32775	
7084	0	32893	
7085	0	32903	
7086	0	32997	
7087	0	32948	
7088	0	32940	
7089	0	32911	
7090	0	32936	
7091	0	32868	
7092	0	32860	
7093	0	32832	
7094	0	32894	
7095	0	32775	
7096	0	32790	
7097	0	32806	
7098	0	32848	
7099	0	32753	
7100	0	32799	
7101	0	32816	
7102	0	32716	
7103	0	32653	
7104	0	32714	
7105	0	32666	
7106	0	32582	
7107	0	32706	
7108	0	32758	
7109	0	32798	
7110	0	32838	
7111	0	32912	
7112	0	32919	
7113	0	32780	
7114	0	32733	
7115	0	32664	
7116	0	32775	
7117	0	32798	
7118	0	32728	
7119	0	32788	
7120	0	32821	
7121	0	32822	
7122	0	32817	
7123	0	32812	
7124	0	32832	
7125	0	32862	
7126	0	32842	
7127	0	32874	
7128	0	32855	
7129	0	32924	
7130	0	32876	
7131	0	32799	
7132	0	32888	
7133	0	32826	
7134	0	32800	
7135	0	32844	
7136	0	32774	
7137	0	32718	
7138	0	32701	
7139	0	32712	
7140	0	32775	
7141	0	32806	
7142	0	32774	
7143	0	32852	
7144	0	32830	
7145	0	32794	
7146	0	32821	
7147	0	32878	
7148	0	32854	
7149	0	32811	
7150	0	32745	
7151	0	32762	
7152	0	32877	
7153	0	32921	
7154	0	32892	
7155	0	32836	
7156	0	32775	
7157	0	32826	
7158	0	32872	
7159	0	32877	
7160	0	32668	
7161	0	32742	
7162	0	32786	
7163	0	32813	
7164	0	32848	
7165	0	32880	
7166	0	32805	
7167	0	32736	
7168	0	32702	
7169	0	32662	
7170	0	32763	
7171	0	32856	
7172	0	32887	
7173	0	32922	
7174	0	32866	
7175	0	32863	
7176	0	32828	
7177	0	32772	
7178	0	32725	
7179	0	32808	
7180	0	32816	
7181	0	32887	
7182	0	32858	
7183	0	32868	
7184	0	32921	
7185	0	32903	
7186	0	32862	
7187	0	32790	
7188	0	32662	
7189	0	32728	
7190	0	32839	
7191	0	32894	
7192	0	32942	
7193	0	32860	
7194	0	32888	
7195	0	32874	
7196	0	32646	
7197	0	32700	
7198	0	32834	
7199	0	32888	
7200	0	32828	
7201	0	32758	
7202	0	32820	
7203	0	32839	
7204	0	32839	
7205	0	32846	
7206	0	32764	
7207	0	32804	
7208	0	32800	
7209	0	32734	
7210	0	32722	
7211	0	32816	
7212	0	32880	
7213	0	32839	
7214	0	32903	
7215	0	32878	
7216	0	32880	
7217	0	32800	
7218	0	32748	
7219	0	32719	
7220	0	32656	
7221	0	32819	
7222	0	32798	
7223	0	32745	
7224	0	32775	
7225	0	32775	
7226	0	32742	
7227	0	32794	
7228	0	32757	
7229	0	32808	
7230	0	32810	
7231	0	32790	
7232	0	32775	
7233	0	32832	
7234	0	32775	
7235	0	32798	
7236	0	32712	
7237	0	32720	
7238	0	32788	
7239	0	32836	
7240	0	32932	
7241	0	32939	
7242	0	32928	
7243	0	32900	
7244	0	32868	
7245	0	32866	
7246	0	32874	
7247	0	32794	
7248	0	32799	
7249	0	32804	
7250	0	32829	
7251	0	32856	
7252	0	32888	
7253	0	32844	
7254	0	32870	
7255	0	32880	
7256	0	32868	
7257	0	32799	
7258	0	32775	
7259	0	32808	
7260	0	32812	
7261	0	32798	
7262	0	32782	
7263	0	32770	
7264	0	32822	
7265	0	32760	
7266	0	32752	
7267	0	32722	
7268	0	32710	
7269	0	32711	
7270	0	32668	
7271	0	32708	
7272	0	32716	
7273	0	32816	
7274	0	32864	
7275	0	32935	
7276	0	32900	
7277	0	32903	
7278	0	32878	
7279	0	32870	
7280	0	32844	
7281	0	32794	
7282	0	32772	
7283	0	32775	
7284	0	32800	
7285	0	32794	
7286	0	32870	
7287	0	32915	
7288	0	32889	
7289	0	32894	
7290	0	32840	
7291	0	32840	
7292	0	32806	
7293	0	32830	
7294	0	32768	
7295	0	32829	
7296	0	32817	
7297	0	32774	
7298	0	32639	
7299	0	32703	
7300	0	32706	
7301	0	32791	
7302	0	32908	
7303	0	32932	
7304	0	32882	
7305	0	32858	
7306	0	32826	
7307	0	32821	
7308	0	32833	
7309	0	32839	
7310	0	32804	
7311	0	32733	
7312	0	32820	
7313	0	32789	
7314	0	32812	
7315	0	32806	
7316	0	32855	
7317	0	32902	
7318	0	32903	
7319	0	32848	
7320	0	32853	
7321	0	32868	
7322	0	32832	
7323	0	32856	
7324	0	32885	
7325	0	32816	
7326	0	32734	
7327	0	32718	
7328	0	32688	
7329	0	32670	
7330	0	32682	
7331	0	32728	
7332	0	32670	
7333	0	32678	
7334	0	32728	
7335	0	32730	
7336	0	32736	
7337	0	32733	
7338	0	32788	
7339	0	32744	
7340	0	32796	
7341	0	32836	
7342	0	32856	
7343	0	32914	
7344	0	32903	
7345	0	32918	
7346	0	32903	
7347	0	32935	
7348	0	32904	
7349	0	32889	
7350	0	32830	
7351	0	32895	
7352	0	32929	
7353	0	32873	
7354	0	32802	
7355	0	32816	
7356	0	32810	
7357	0	32860	
7358	0	32938	
7359	0	32944	
7360	0	32976	
7361	0	32868	
7362	0	32816	
7363	0	32721	
7364	0	32746	
7365	0	32728	
7366	0	32820	
7367	0	32730	
7368	0	32736	
7369	0	32677	
7370	0	32668	
7371	0	32680	
7372	0	32620	
7373	0	32708	
7374	0	32775	
7375	0	32862	
7376	0	32839	
7377	0	32794	
7378	0	32903	
7379	0	32824	
7380	0	32864	
7381	0	32903	
7382	0	32808	
7383	0	32775	
7384	0	32810	
7385	0	32728	
7386	0	32812	
7387	0	32821	
7388	0	32866	
7389	0	32800	
7390	0	32814	
7391	0	32775	
7392	0	32775	
7393	0	32808	
7394	0	32812	
7395	0	32873	
7396	0	32799	
7397	0	32916	
7398	0	32858	
7399	0	32824	
7400	0	32850	
7401	0	32908	
7402	0	32992	
7403	0	32968	
7404	0	32861	
7405	0	32810	
7406	0	32759	
7407	0	32660	
7408	0	32640	
7409	0	32676	
7410	0	32753	
7411	0	32812	
7412	0	32806	
7413	0	32842	
7414	0	32710	
7415	0	32680	
7416	0	32711	
7417	0	32756	
7418	0	32748	
7419	0	32806	
7420	0	32928	
7421	0	32918	
7422	0	32932	
7423	0	32934	
7424	0	32902	
7425	0	32870	
7426	0	32790	
7427	0	32877	
7428	0	32846	
7429	0	32813	
7430	0	32809	
7431	0	32802	
7432	0	32784	
7433	0	32852	
7434	0	32791	
7435	0	32846	
7436	0	32858	
7437	0	32863	
7438	0	32845	
7439	0	32837	
7440	0	32768	
7441	0	32810	
7442	0	32890	
7443	0	32792	
7444	0	32784	
7445	0	32672	
7446	0	32616	
7447	0	32684	
7448	0	32624	
7449	0	32765	
7450	0	32708	
7451	0	32658	
7452	0	32729	
7453	0	32758	
7454	0	32751	
7455	0	32886	
7456	0	32866	
7457	0	32890	
7458	0	32960	
7459	0	32911	
7460	0	32960	
7461	0	32899	
7462	0	32882	
7463	0	32831	
7464	0	32838	
7465	0	32817	
7466	0	32706	
7467	0	32676	
7468	0	32710	
7469	0	32754	
7470	0	32820	
7471	0	32794	
7472	0	32736	
7473	0	32814	
7474	0	32810	
7475	0	32875	
7476	0	32908	
7477	0	32903	
7478	0	32848	
7479	0	32844	
7480	0	32768	
7481	0	32743	
7482	0	32822	
7483	0	32903	
7484	0	32890	
7485	0	32870	
7486	0	32838	
7487	0	32895	
7488	0	32804	
7489	0	32726	
7490	0	32736	
7491	0	32615	
7492	0	32642	
7493	0	32724	
7494	0	32700	
7495	0	32854	
7496	0	32868	
7497	0	32896	
7498	0	32903	
7499	0	32849	
7500	0	32775	
7501	0	32692	
7502	0	32720	
7503	0	32882	
7504	0	32865	
7505	0	32854	
7506	0	32826	
7507	0	32848	
7508	0	32758	
7509	0	32714	
7510	0	32690	
7511	0	32616	
7512	0	32706	
7513	0	32701	
7514	0	32684	
7515	0	32750	
7516	0	32775	
7517	0	32829	
7518	0	32828	
7519	0	32909	
7520	0	32934	
7521	0	32997	
7522	0	32993	
7523	0	33028	
7524	0	33008	
7525	0	32893	
7526	0	32868	
7527	0	32759	
7528	0	32708	
7529	0	32668	
7530	0	32700	
7531	0	32722	
7532	0	32846	
7533	0	32892	
7534	0	32854	
7535	0	32842	
7536	0	32856	
7537	0	32766	
7538	0	32811	
7539	0	32775	
7540	0	32798	
7541	0	32792	
7542	0	32756	
7543	0	32838	
7544	0	32813	
7545	0	32852	
7546	0	32860	
7547	0	32818	
7548	0	32857	
7549	0	32846	
7550	0	32762	
7551	0	32822	
7552	0	32753	
7553	0	32728	
7554	0	32731	
7555	0	32649	
7556	0	32754	
7557	0	32804	
7558	0	32804	
7559	0	32912	
7560	0	32900	
7561	0	32903	
7562	0	32854	
7563	0	32898	
7564	0	32912	
7565	0	32856	
7566	0	32836	
7567	0	32762	
7568	0	32836	
7569	0	32788	
7570	0	32706	
7571	0	32740	
7572	0	32775	
7573	0	32768	
7574	0	32763	
7575	0	32790	
7576	0	32760	
7577	0	32734	
7578	0	32775	
7579	0	32788	
7580	0	32797	
7581	0	32826	
7582	0	32868	
7583	0	32962	
7584	0	32978	
7585	0	32932	
7586	0	32967	
7587	0	32880	
7588	0	32832	
7589	0	32787	
7590	0	32760	
7591	0	32790	
7592	0	32885	
7593	0	32772	
7594	0	32684	
7595	0	32772	
7596	0	32798	
7597	0	32757	
7598	0	32718	
7599	0	32716	
7600	0	32664	
7601	0	32578	
7602	0	32626	
7603	0	32824	
7604	0	32848	
7605	0	32848	
7606	0	32903	
7607	0	32898	
7608	0	32940	
7609	0	32890	
7610	0	32924	
7611	0	32882	
7612	0	32800	
7613	0	32852	
7614	0	32934	
7615	0	32876	
7616	0	32771	
7617	0	32836	
7618	0	32868	
7619	0	32816	
7620	0	32860	
7621	0	32864	
7622	0	32838	
7623	0	32912	
7624	0	32888	
7625	0	32820	
7626	0	32809	
7627	0	32684	
7628	0	32674	
7629	0	32707	
7630	0	32722	
7631	0	32722	
7632	0	32668	
7633	0	32775	
7634	0	32750	
7635	0	32821	
7636	0	32854	
7637	0	32879	
7638	0	32768	
7639	0	32793	
7640	0	32783	
7641	0	32676	
7642	0	32784	
7643	0	32855	
7644	0	32837	
7645	0	32877	
7646	0	32821	
7647	0	32855	
7648	0	32933	
7649	0	32884	
7650	0	32868	
7651	0	32816	
7652	0	32786	
7653	0	32825	
7654	0	32825	
7655	0	32734	
7656	0	32748	
7657	0	32723	
7658	0	32812	
7659	0	32848	
7660	0	32828	
7661	0	32848	
7662	0	32877	
7663	0	32891	
7664	0	32901	
7665	0	32840	
7666	0	32814	
7667	0	32760	
7668	0	32775	
7669	0	32754	
7670	0	32758	
7671	0	32798	
7672	0	32775	
7673	0	32762	
7674	0	32772	
7675	0	32710	
7676	0	32696	
7677	0	32763	
7678	0	32836	
7679	0	32870	
7680	0	32930	
7681	0	32992	
7682	0	32902	
7683	0	32909	
7684	0	32832	
7685	0	32806	
7686	0	32716	
7687	0	32725	
7688	0	32666	
7689	0	32672	
7690	0	32686	
7691	0	32764	
7692	0	32775	
7693	0	32756	
7694	0	32746	
7695	0	32804	
7696	0	32768	
7697	0	32871	
7698	0	32848	
7699	0	32924	
7700	0	32898	
7701	0	32936	
7702	0	32790	
7703	0	32806	
7704	0	32725	
7705	0	32800	
7706	0	32714	
7707	0	32770	
7708	0	32850	
7709	0	32836	
7710	0	32866	
7711	0	32886	
7712	0	32875	
7713	0	32890	
7714	0	32924	
7715	0	32846	
7716	0	32775	
7717	0	32819	
7718	0	32818	
7719	0	32693	
7720	0	32788	
7721	0	32792	
7722	0	32796	
7723	0	32774	
7724	0	32710	
7725	0	32820	
7726	0	32820	
7727	0	32804	
7728	0	32775	
7729	0	32800	
7730	0	32804	
7731	0	32790	
7732	0	32836	
7733	0	32902	
7734	0	32904	
7735	0	32801	
7736	0	32818	
7737	0	32828	
7738	0	32821	
7739	0	32822	
7740	0	32809	
7741	0	32832	
7742	0	32810	
7743	0	32812	
7744	0	32868	
7745	0	32812	
7746	0	32760	
7747	0	32720	
7748	0	32792	
7749	0	32764	
7750	0	32775	
7751	0	32800	
7752	0	32794	
7753	0	32815	
7754	0	32728	
7755	0	32740	
7756	0	32784	
7757	0	32872	
7758	0	32865	
7759	0	32836	
7760	0	32923	
7761	0	32967	
7762	0	32925	
7763	0	32950	
7764	0	32903	
7765	0	32859	
7766	0	32916	
7767	0	32868	
7768	0	32774	
7769	0	32757	
7770	0	32743	
7771	0	32714	
7772	0	32747	
7773	0	32770	
7774	0	32739	
7775	0	32698	
7776	0	32756	
7777	0	32808	
7778	0	32804	
7779	0	32809	
7780	0	32775	
7781	0	32792	
7782	0	32823	
7783	0	32842	
7784	0	32955	
7785	0	32920	
7786	0	32846	
7787	0	32853	
7788	0	32820	
7789	0	32733	
7790	0	32711	
7791	0	32703	
7792	0	32608	
7793	0	32592	
7794	0	32704	
7795	0	32670	
7796	0	32710	
7797	0	32848	
7798	0	32860	
7799	0	32796	
7800	0	32806	
7801	0	32800	
7802	0	32878	
7803	0	32898	
7804	0	32863	
7805	0	32917	
7806	0	32802	
7807	0	32874	
7808	0	32799	
7809	0	32784	
7810	0	32815	
7811	0	32772	
7812	0	32734	
7813	0	32786	
7814	0	32856	
7815	0	32890	
7816	0	32921	
7817	0	32913	
7818	0	32972	
7819	0	32932	
7820	0	32817	
7821	0	32832	
7822	0	32873	
7823	0	32797	
7824	0	32819	
7825	0	32858	
7826	0	32858	
7827	0	32825	
7828	0	32786	
7829	0	32748	
7830	0	32718	
7831	0	32765	
7832	0	32724	
7833	0	32730	
7834	0	32752	
7835	0	32775	
7836	0	32790	
7837	0	32748	
7838	0	32768	
7839	0	32800	
7840	0	32826	
7841	0	32860	
7842	0	32898	
7843	0	32892	
7844	0	32838	
7845	0	32839	
7846	0	32883	
7847	0	32726	
7848	0	32694	
7849	0	32775	
7850	0	32805	
7851	0	32744	
7852	0	32816	
7853	0	32805	
7854	0	32699	
7855	0	32676	
7856	0	32821	
7857	0	32928	
7858	0	32987	
7859	0	32909	
7860	0	32820	
7861	0	32792	
7862	0	32818	
7863	0	32788	
7864	0	32845	
7865	0	32804	
7866	0	32720	
7867	0	32676	
7868	0	32711	
7869	0	32749	
7870	0	32775	
7871	0	32782	
7872	0	32766	
7873	0	32688	
7874	0	32801	
7875	0	32849	
7876	0	32845	
7877	0	32839	
7878	0	32856	
7879	0	32916	
7880	0	32935	
7881	0	32916	
7882	0	32810	
7883	0	32717	
7884	0	32754	
7885	0	32796	
7886	0	32808	
7887	0	32729	
7888	0	32758	
7889	0	32794	
7890	0	32813	
7891	0	32818	
7892	0	32888	
7893	0	32851	
7894	0	32832	
7895	0	32820	
7896	0	32864	
7897	0	32800	
7898	0	32813	
7899	0	32796	
7900	0	32869	
7901	0	32828	
7902	0	32828	
7903	0	32816	
7904	0	32861	
7905	0	32831	
7906	0	32802	
7907	0	32786	
7908	0	32744	
7909	0	32802	
7910	0	32836	
7911	0	32807	
7912	0	32828	
7913	0	32797	
7914	0	32706	
7915	0	32842	
7916	0	32839	
7917	0	32825	
7918	0	32820	
7919	0	32736	
7920	0	32748	
7921	0	32840	
7922	0	32842	
7923	0	32838	
7924	0	32764	
7925	0	32725	
7926	0	32830	
7927	0	32821	
7928	0	32855	
7929	0	32868	
7930	0	32853	
7931	0	32866	
7932	0	32856	
7933	0	32864	
7934	0	32871	
7935	0	32736	
7936	0	32668	
7937	0	32708	
7938	0	32817	
7939	0	32849	
7940	0	32830	
7941	0	32826	
7942	0	32823	
7943	0	32740	
7944	0	32708	
7945	0	32798	
7946	0	32788	
7947	0	32775	
7948	0	32722	
7949	0	32774	
7950	0	32818	
7951	0	32896	
7952	0	32887	
7953	0	32871	
7954	0	32814	
7955	0	32812	
7956	0	32731	
7957	0	32775	
7958	0	32788	
7959	0	32775	
7960	0	32860	
7961	0	32800	
7962	0	32845	
7963	0	32745	
7964	0	32775	
7965	0	32882	
7966	0	32972	
7967	0	32863	
7968	0	32910	
7969	0	32908	
7970	0	32846	
7971	0	32817	
7972	0	32775	
7973	0	32850	
7974	0	32808	
7975	0	32806	
7976	0	32772	
7977	0	32797	
7978	0	32763	
7979	0	32708	
7980	0	32751	
7981	0	32773	
7982	0	32752	
7983	0	32800	
7984	0	32784	
7985	0	32911	
7986	0	32871	
7987	0	32846	
7988	0	32854	
7989	0	32847	
7990	0	32802	
7991	0	32808	
7992	0	32788	
7993	0	32764	
7994	0	32749	
7995	0	32789	
7996	0	32821	
7997	0	32831	
7998	0	32700	
7999	0	32652	
8000	0	32585	
8001	0	32773	
8002	0	32824	
8003	0	32869	
8004	0	32886	
8005	0	32790	
8006	0	32775	
8007	0	32848	
8008	0	32772	
8009	0	32763	
8010	0	32787	
8011	0	32884	
8012	0	32916	
8013	0	32958	
8014	0	33031	
8015	0	33142	
8016	0	33195	
8017	0	33062	
8018	0	32862	
8019	0	32825	
8020	0	32684	
8021	0	32516	
8022	0	32422	
8023	0	32324	
8024	0	32327	
8025	0	32416	
8026	0	32655	
8027	0	32868	
8028	0	32950	
8029	0	33040	
8030	0	32960	
8031	0	32928	
8032	0	32826	
8033	0	32852	
8034	0	32964	
8035	0	32944	
8036	0	32891	
8037	0	32903	
8038	0	32856	
8039	0	32850	
8040	0	32818	
8041	0	32807	
8042	0	32808	
8043	0	32866	
8044	0	32839	
8045	0	32864	
8046	0	32874	
8047	0	32811	
8048	0	32848	
8049	0	32850	
8050	0	32873	
8051	0	32766	
8052	0	32734	
8053	0	32706	
8054	0	32728	
8055	0	32748	
8056	0	32748	
8057	0	32795	
8058	0	32845	
8059	0	32879	
8060	0	32872	
8061	0	32800	
8062	0	32890	
8063	0	32920	
8064	0	32820	
8065	0	32841	
8066	0	32826	
8067	0	32708	
8068	0	32760	
8069	0	32880	
8070	0	32992	
8071	0	32960	
8072	0	32903	
8073	0	32806	
8074	0	32716	
8075	0	32743	
8076	0	32596	
8077	0	32412	
8078	0	32424	
8079	0	32532	
8080	0	32666	
8081	0	32831	
8082	0	32808	
8083	0	32958	
8084	0	33000	
8085	0	32934	
8086	0	32955	
8087	0	32844	
8088	0	32772	
8089	0	32790	
8090	0	32845	
8091	0	32840	
8092	0	32861	
8093	0	32863	
8094	0	32837	
8095	0	32868	
8096	0	32878	
8097	0	32876	
8098	0	32890	
8099	0	32863	
8100	0	32836	
8101	0	32814	
8102	0	32877	
8103	0	32890	
8104	0	32724	
8105	0	32830	
8106	0	32726	
8107	0	32687	
8108	0	32729	
8109	0	32696	
8110	0	32681	
8111	0	32791	
8112	0	32860	
8113	0	32832	
8114	0	32893	
8115	0	32887	
8116	0	32903	
8117	0	32903	
8118	0	32885	
8119	0	32786	
8120	0	32876	
8121	0	32821	
8122	0	32852	
8123	0	32804	
8124	0	32748	
8125	0	32797	
8126	0	32855	
8127	0	32743	
8128	0	32805	
8129	0	32790	
8130	0	32809	
8131	0	32800	
8132	0	32848	
8133	0	32857	
8134	0	32874	
8135	0	32793	
8136	0	32793	
8137	0	32839	
8138	0	32884	
8139	0	32845	
8140	0	32874	
8141	0	32882	
8142	0	33013	
8143	0	33000	
8144	0	32914	
8145	0	32856	
8146	0	32740	
8147	0	32748	
8148	0	32905	
8149	0	32856	
8150	0	32741	
8151	0	32711	
8152	0	32760	
8153	0	32692	
8154	0	32581	
8155	0	32581	
8156	0	32579	
8157	0	32470	
8158	0	32583	
8159	0	32756	
8160	0	32846	
8161	0	32946	
8162	0	32925	
8163	0	32888	
8164	0	32934	
8165	0	32903	
8166	0	32916	
8167	0	32941	
8168	0	32848	
8169	0	32848	
8170	0	32790	
8171	0	32849	
8172	0	32775	
8173	0	32772	
8174	0	32836	
8175	0	32809	
8176	0	32886	
8177	0	32864	
8178	0	32805	
8179	0	32796	
8180	0	32800	
8181	0	32842	
8182	0	32808	
8183	0	32820	
8184	0	32756	
8185	0	32700	
8186	0	32666	
8187	0	32660	
8188	0	32698	
8189	0	32775	
8190	0	32814	
8191	0	32813	
8192	0	32896	
8193	0	32922	
8194	0	32916	
8195	0	32910	
8196	0	32879	
8197	0	32833	
8198	0	32875	
8199	0	32916	
8200	0	32935	
8201	0	32932	
8202	0	32871	
8203	0	32871	
8204	0	32756	
8205	0	32807	
8206	0	32746	
8207	0	32746	
8208	0	32645	
8209	0	32653	
8210	0	32706	
8211	0	32732	
8212	0	32758	
8213	0	32841	
8214	0	32841	
8215	0	32879	
8216	0	32800	
8217	0	32775	
8218	0	32775	
8219	0	32944	
8220	0	33062	
8221	0	32962	
8222	0	32856	
8223	0	32816	
8224	0	32700	
8225	0	32572	
8226	0	32390	
8227	0	32455	
8228	0	32576	
8229	0	32792	
8230	0	32868	
8231	0	32886	
8232	0	32868	
8233	0	32934	
8234	0	32903	
8235	0	32868	
8236	0	32816	
8237	0	32868	
8238	0	32868	
8239	0	32868	
8240	0	32755	
8241	0	32847	
8242	0	32812	
8243	0	32896	
8244	0	32946	
8245	0	33135	
8246	0	33094	
8247	0	33065	
8248	0	32915	
8249	0	32775	
8250	0	32736	
8251	0	32724	
8252	0	32678	
8253	0	32510	
8254	0	32432	
8255	0	32587	
8256	0	32724	
8257	0	32711	
8258	0	32838	
8259	0	32760	
8260	0	32844	
8261	0	32828	
8262	0	32722	
8263	0	32784	
8264	0	32799	
8265	0	32839	
8266	0	32841	
8267	0	32838	
8268	0	32916	
8269	0	32928	
8270	0	32912	
8271	0	32903	
8272	0	32960	
8273	0	32964	
8274	0	32980	
8275	0	32903	
8276	0	32762	
8277	0	32830	
8278	0	32903	
8279	0	32815	
8280	0	32832	
8281	0	32889	
8282	0	32786	
8283	0	32829	
8284	0	32748	
8285	0	32687	
8286	0	32898	
8287	0	32882	
8288	0	32754	
8289	0	32806	
8290	0	32754	
8291	0	32662	
8292	0	32605	
8293	0	32518	
8294	0	32518	
8295	0	32572	
8296	0	32728	
8297	0	32852	
8298	0	32848	
8299	0	32846	
8300	0	32747	
8301	0	32809	
8302	0	32832	
8303	0	32839	
8304	0	32864	
8305	0	32863	
8306	0	32868	
8307	0	32964	
8308	0	32956	
8309	0	32839	
8310	0	32831	
8311	0	32903	
8312	0	32852	
8313	0	32790	
8314	0	32794	
8315	0	32798	
8316	0	32814	
8317	0	32853	
8318	0	32918	
8319	0	32854	
8320	0	32796	
8321	0	32754	
8322	0	32728	
8323	0	32801	
8324	0	32821	
8325	0	32785	
8326	0	32801	
8327	0	32827	
8328	0	32922	
8329	0	32824	
8330	0	32892	
8331	0	32871	
8332	0	32775	
8333	0	32836	
8334	0	32816	
8335	0	32797	
8336	0	32775	
8337	0	32794	
8338	0	32805	
8339	0	32868	
8340	0	32788	
8341	0	32732	
8342	0	32716	
8343	0	32760	
8344	0	32850	
8345	0	32886	
8346	0	32921	
8347	0	32812	
8348	0	32839	
8349	0	32802	
8350	0	32813	
8351	0	32763	
8352	0	32740	
8353	0	33028	
8354	0	33330	
8355	0	33302	
8356	0	33159	
8357	0	32946	
8358	0	32794	
8359	0	32636	
8360	0	32554	
8361	0	32254	
8362	0	32094	
8363	0	32204	
8364	0	32432	
8365	0	32700	
8366	0	32924	
8367	0	32924	
8368	0	32919	
8369	0	32884	
8370	0	32850	
8371	0	32914	
8372	0	32873	
8373	0	32903	
8374	0	32836	
8375	0	32775	
8376	0	32738	
8377	0	32801	
8378	0	32775	
8379	0	32804	
8380	0	32840	
8381	0	32882	
8382	0	32868	
8383	0	32896	
8384	0	32872	
8385	0	32838	
8386	0	32775	
8387	0	32758	
8388	0	32854	
8389	0	32920	
8390	0	32959	
8391	0	32937	
8392	0	32971	
8393	0	32972	
8394	0	32788	
8395	0	32804	
8396	0	32775	
8397	0	32790	
8398	0	32768	
8399	0	32748	
8400	0	32764	
8401	0	32998	
8402	0	33060	
8403	0	33018	
8404	0	33108	
8405	0	33053	
8406	0	32903	
8407	0	32765	
8408	0	32647	
8409	0	32406	
8410	0	32263	
8411	0	32263	
8412	0	32423	
8413	0	32640	
8414	0	32764	
8415	0	32848	
8416	0	32882	
8417	0	32935	
8418	0	32916	
8419	0	32887	
8420	0	32921	
8421	0	32850	
8422	0	32809	
8423	0	32824	
8424	0	32860	
8425	0	32858	
8426	0	32826	
8427	0	32948	
8428	0	32866	
8429	0	32784	
8430	0	32819	
8431	0	32884	
8432	0	32894	
8433	0	32832	
8434	0	32792	
8435	0	32746	
8436	0	32802	
8437	0	32775	
8438	0	32800	
8439	0	32824	
8440	0	32826	
8441	0	32860	
8442	0	32815	
8443	0	32801	
8444	0	32725	
8445	0	32805	
8446	0	32793	
8447	0	32716	
8448	0	32756	
8449	0	32697	
8450	0	32794	
8451	0	32768	
8452	0	32823	
8453	0	32808	
8454	0	32813	
8455	0	32836	
8456	0	32856	
8457	0	32784	
8458	0	32834	
8459	0	32775	
8460	0	32724	
8461	0	32682	
8462	0	32752	
8463	0	32750	
8464	0	32817	
8465	0	32885	
8466	0	32850	
8467	0	32832	
8468	0	32940	
8469	0	32901	
8470	0	32900	
8471	0	32954	
8472	0	32932	
8473	0	32936	
8474	0	32951	
8475	0	32850	
8476	0	32816	
8477	0	32771	
8478	0	32802	
8479	0	32816	
8480	0	32802	
8481	0	32725	
8482	0	32711	
8483	0	32715	
8484	0	32824	
8485	0	32744	
8486	0	32775	
8487	0	32866	
8488	0	32996	
8489	0	33144	
8490	0	33108	
8491	0	33011	
8492	0	32946	
8493	0	32792	
8494	0	32749	
8495	0	32552	
8496	0	32464	
8497	0	32696	
8498	0	32768	
8499	0	32759	
8500	0	32890	
8501	0	32812	
8502	0	32736	
8503	0	32718	
8504	0	32638	
8505	0	32536	
8506	0	32511	
8507	0	32488	
8508	0	32654	
8509	0	32855	
8510	0	33047	
8511	0	32978	
8512	0	32931	
8513	0	32946	
8514	0	32908	
8515	0	32827	
8516	0	32826	
8517	0	32810	
8518	0	32775	
8519	0	32722	
8520	0	32797	
8521	0	32771	
8522	0	32839	
8523	0	32834	
8524	0	32838	
8525	0	32896	
8526	0	32918	
8527	0	32941	
8528	0	32914	
8529	0	32903	
8530	0	32889	
8531	0	32944	
8532	0	32844	
8533	0	32873	
8534	0	32820	
8535	0	32755	
8536	0	32748	
8537	0	32736	
8538	0	32756	
8539	0	32832	
8540	0	32902	
8541	0	32928	
8542	0	32903	
8543	0	32864	
8544	0	32771	
8545	0	32732	
8546	0	32634	
8547	0	32647	
8548	0	32670	
8549	0	32774	
8550	0	32876	
8551	0	32920	
8552	0	32974	
8553	0	32936	
8554	0	32946	
8555	0	32806	
8556	0	32828	
8557	0	32754	
8558	0	32706	
8559	0	32668	
8560	0	32792	
8561	0	32813	
8562	0	32848	
8563	0	32802	
8564	0	32750	
8565	0	32724	
8566	0	32832	
8567	0	32999	
8568	0	33024	
8569	0	32992	
8570	0	32878	
8571	0	32724	
8572	0	32647	
8573	0	32628	
8574	0	32474	
8575	0	32397	
8576	0	32551	
