# OpenSignals Text File Format
# {"00:07:80:4D:2E:AD": {"sensor": ["XYZ", "XYZ", "XYZ"], "device name": "00:07:80:4D:2E:AD", "column": ["nSeq", "DI", "CH1", "CH2", "CH3"], "sync interval": 2, "time": "13:55:4.491", "comments": "", "device connection": "BTH00:07:80:4D:2E:AD", "channels": [1, 2, 3], "keywords": "", "mode": 0, "digital IO": [0, 1], "firmware version": 773, "device": "biosignalsplux", "position": 0, "sampling rate": 1000, "label": ["CH1", "CH2", "CH3"], "resolution": [16, 16, 16], "date": "2019-3-29", "special": [{}, {}, {}]}, "00:07:80:D8:A8:82": {"sensor": ["XYZ", "XYZ", "XYZ"], "device name": "00:07:80:D8:A8:82", "column": ["nSeq", "DI", "X", "Y", "Z"], "sync interval": 2, "time": "13:55:26.528", "comments": "", "device connection": "BTH00:07:80:D8:A8:82", "channels": [1, 2, 3], "keywords": "", "mode": 0, "digital IO": [0, 1], "firmware version": 773, "device": "biosignalsplux", "position": 0, "sampling rate": 1000, "label": ["X", "Y", "Z"], "resolution": [16, 16, 16], "date": "2019-3-29", "special": [{}, {}, {}]}}
# EndOfHeader
17604	0	33092	32872	37964	0	0	33012	32659	37954	
17605	0	33088	32868	37944	1	0	32996	32655	37970	
17606	0	33096	32864	37948	2	0	32996	32671	37954	
17607	0	33092	32874	37956	3	0	33004	32663	37976	
17608	0	33088	32868	37980	4	0	33008	32658	37993	
17609	0	33088	32864	37956	5	0	33016	32647	37970	
17610	0	33088	32864	37956	6	0	33016	32647	37970	
17611	0	33092	32880	37960	7	0	33008	32660	37964	
17612	0	33092	32876	37968	8	0	33018	32640	37959	
17613	0	33080	32880	37972	9	0	33016	32647	37974	
17614	0	33080	32884	37972	10	0	33014	32647	37957	
17615	0	33080	32888	37973	11	0	33004	32659	37917	
17616	0	33072	32888	37980	12	0	32993	32647	37935	
17617	0	33080	32876	37980	13	0	33005	32647	37958	
17618	0	33072	32884	37976	14	0	32996	32654	37975	
17619	0	33080	32892	37976	15	0	33004	32660	37942	
17620	0	33080	32892	37964	16	0	33004	32646	37947	
17621	0	33080	32884	37972	17	0	33008	32647	37959	
17622	0	33084	32884	37964	18	0	32996	32647	37959	
17623	0	33088	32884	37960	19	0	32984	32663	37950	
17624	0	33084	32888	37952	20	0	33000	32647	37956	
17625	0	33088	32890	37968	21	0	32993	32647	37971	
17626	0	33096	32876	37985	22	0	33000	32656	37994	
17627	0	33088	32888	37984	23	0	33004	32647	37991	
17628	0	33092	32884	37993	24	0	33008	32647	37980	
17629	0	33084	32884	38012	25	0	33008	32647	37951	
17630	0	33096	32876	38004	26	0	32993	32662	37970	
17631	0	33088	32868	37996	27	0	32996	32660	37974	
17632	0	33092	32856	37988	28	0	32984	32662	37986	
17633	0	33082	32868	37972	29	0	32980	32656	37995	
17634	0	33088	32872	37981	30	0	32997	32644	37967	
17635	0	33088	32876	37968	31	0	33002	32647	37959	
17636	0	33088	32869	37969	32	0	33000	32647	37975	
17637	0	33100	32880	37968	33	0	32993	32647	37964	
17638	0	33108	32876	37980	34	0	33006	32647	37955	
17639	0	33092	32868	37972	35	0	33000	32647	37951	
17640	0	33096	32868	37972	36	0	32989	32658	37968	
17641	0	33082	32877	37972	37	0	32992	32659	37965	
17642	0	33088	32864	37980	38	0	32992	32647	37982	
17643	0	33080	32872	37977	39	0	33012	32647	37966	
17644	0	33088	32868	37964	40	0	33004	32647	37966	
17645	0	33097	32868	37984	41	0	32998	32663	37974	
17646	0	33084	32865	37992	42	0	33002	32663	37986	
17647	0	33080	32868	37996	43	0	33008	32654	37978	
17648	0	33076	32884	37980	44	0	33004	32647	37974	
17649	0	33064	32878	37988	45	0	33012	32662	37957	
17650	0	33076	32872	37988	46	0	33000	32669	37964	
17651	0	33064	32876	37988	47	0	33012	32637	37962	
17652	0	33072	32872	37976	48	0	33028	32631	37965	
17653	0	33088	32876	37968	49	0	33021	32631	37970	
17654	0	33084	32864	37968	50	0	33004	32636	37980	
17655	0	33100	32860	37952	51	0	33004	32643	37984	
17656	0	33092	32868	37972	52	0	33012	32647	37972	
17657	0	33096	32852	37964	53	0	33012	32656	37959	
17658	0	33104	32840	37948	54	0	33018	32641	37968	
17659	0	33096	32840	37960	55	0	33008	32658	37976	
17660	0	33108	32852	37964	56	0	33000	32658	37990	
17661	0	33100	32860	37972	57	0	33005	32646	37976	
17662	0	33088	32860	37988	58	0	33020	32644	37990	
17663	0	33088	32864	37968	59	0	33032	32655	37990	
17664	0	33088	32860	37964	60	0	33042	32655	37988	
17665	0	33072	32864	37980	61	0	33030	32647	37975	
17666	0	33088	32856	37976	62	0	33016	32655	37970	
17667	0	33096	32868	37960	63	0	33022	32647	37942	
17668	0	33084	32872	37956	64	0	33030	32626	37927	
17669	0	33080	32876	37956	65	0	33017	32638	37943	
17670	0	33092	32884	37944	66	0	33016	32647	37940	
17671	0	33092	32877	37956	67	0	33030	32647	37943	
17672	0	33104	32872	37988	68	0	33016	32642	37958	
17673	0	33112	32868	37976	69	0	33013	32639	37970	
17674	0	33093	32868	37976	70	0	33024	32638	37938	
17675	0	33084	32872	37960	71	0	33026	32638	37959	
17676	0	33088	32872	37968	72	0	33014	32647	37949	
17677	0	33084	32876	37976	73	0	33018	32647	37955	
17678	0	33100	32872	37960	74	0	33032	32659	37962	
17679	0	33104	32860	37980	75	0	33022	32663	37978	
17680	0	33096	32868	37984	76	0	33020	32647	37996	
17681	0	33108	32860	37976	77	0	33016	32647	37983	
17682	0	33092	32860	37968	78	0	33024	32655	37996	
17683	0	33104	32856	37964	79	0	33032	32647	38013	
17684	0	33089	32868	37964	80	0	33030	32645	37994	
17685	0	33088	32880	37940	81	0	33020	32646	38007	
17686	0	33088	32868	37972	82	0	33017	32647	37990	
17687	0	33100	32872	37980	83	0	33018	32655	37986	
17688	0	33112	32864	37976	84	0	33032	32645	37959	
17689	0	33108	32858	37972	85	0	33029	32655	37954	
17690	0	33104	32864	37992	86	0	33012	32654	37959	
17691	0	33092	32873	37984	87	0	33016	32647	37974	
17692	0	33080	32860	37988	88	0	33018	32640	37980	
17693	0	33092	32864	37984	89	0	33020	32639	37959	
17694	0	33100	32856	37984	90	0	33016	32646	37970	
17695	0	33092	32864	37988	91	0	33008	32647	37948	
17696	0	33100	32876	37981	92	0	33008	32647	37944	
17697	0	33100	32880	37968	93	0	33020	32642	37955	
17698	0	33088	32884	37965	94	0	33012	32663	37946	
17699	0	33088	32876	37960	95	0	33013	32659	37960	
17700	0	33084	32866	37961	96	0	33020	32659	37983	
17701	0	33096	32878	37980	97	0	33032	32662	37964	
17702	0	33096	32880	37964	98	0	33016	32663	37968	
17703	0	33096	32872	37972	99	0	33026	32660	37980	
17704	0	33088	32880	37968	100	0	33020	32647	37956	
17705	0	33088	32882	37960	101	0	33020	32647	37953	
17706	0	33088	32888	37964	102	0	33000	32662	37959	
17707	0	33084	32880	37972	103	0	32994	32667	37961	
17708	0	33084	32876	37960	104	0	33000	32658	37954	
17709	0	33088	32874	37972	105	0	33020	32659	37932	
17710	0	33092	32864	37988	106	0	33020	32647	37940	
17711	0	33092	32876	37990	107	0	33008	32644	37959	
17712	0	33088	32877	37992	108	0	33008	32644	37984	
17713	0	33084	32872	37976	109	0	33002	32639	37975	
17714	0	33076	32864	37964	110	0	33004	32647	37980	
17715	0	33081	32868	37968	111	0	33002	32665	37981	
17716	0	33080	32876	38000	112	0	32996	32669	37970	
17717	0	33076	32864	37984	113	0	33004	32659	37954	
17718	0	33078	32868	37984	114	0	33004	32647	37959	
17719	0	33084	32868	37968	115	0	33012	32656	37962	
17720	0	33080	32876	37976	116	0	33008	32658	37964	
17721	0	33084	32868	37980	117	0	33012	32647	37977	
17722	0	33088	32880	37976	118	0	33012	32653	37970	
17723	0	33092	32864	37972	119	0	33008	32647	37955	
17724	0	33084	32880	37972	120	0	33008	32647	37958	
17725	0	33072	32894	37968	121	0	33008	32645	37959	
17726	0	33080	32880	37966	122	0	33020	32629	37968	
17727	0	33076	32868	37980	123	0	33024	32626	37979	
17728	0	33084	32868	37972	124	0	33028	32628	37962	
17729	0	33088	32854	37972	125	0	33018	32642	37968	
17730	0	33088	32864	37988	126	0	33000	32647	37970	
17731	0	33088	32876	38000	127	0	33004	32658	37959	
17732	0	33092	32876	38000	128	0	33008	32663	37941	
17733	0	33096	32876	37992	129	0	33018	32647	37959	
17734	0	33088	32868	37972	130	0	33010	32640	37954	
17735	0	33081	32862	37978	131	0	33012	32646	37966	
17736	0	33082	32869	37984	132	0	33000	32655	37965	
17737	0	33078	32864	37972	133	0	33004	32642	37966	
17738	0	33080	32856	37984	134	0	32992	32658	37940	
17739	0	33080	32856	37972	135	0	33000	32647	37970	
17740	0	33076	32864	37976	136	0	33000	32655	37967	
17741	0	33100	32868	37968	137	0	33004	32663	37959	
17742	0	33092	32868	37964	138	0	33003	32647	37952	
17743	0	33088	32864	37964	139	0	33000	32647	37935	
17744	0	33092	32864	37960	140	0	32988	32647	37942	
17745	0	33092	32864	37936	141	0	33008	32647	37930	
17746	0	33085	32868	37952	142	0	32998	32663	37940	
17747	0	33092	32876	37968	143	0	33002	32655	37951	
17748	0	33084	32884	37976	144	0	33005	32647	37949	
17749	0	33080	32874	37968	145	0	33030	32658	37959	
17750	0	33076	32872	37960	146	0	33016	32662	37954	
17751	0	33076	32872	37960	147	0	33004	32669	37942	
17752	0	33076	32872	37972	148	0	33006	32647	37943	
17753	0	33074	32864	37976	149	0	33012	32657	37952	
17754	0	33080	32878	37956	150	0	33008	32656	37975	
17755	0	33080	32872	37968	151	0	33001	32658	37981	
17756	0	33080	32864	37968	152	0	33008	32653	37979	
17757	0	33080	32868	37976	153	0	33012	32655	37974	
17758	0	33088	32876	37972	154	0	32996	32663	37963	
17759	0	33092	32872	37972	155	0	32992	32666	37968	
17760	0	33084	32864	37980	156	0	32996	32656	37974	
17761	0	33088	32868	37976	157	0	32990	32647	37959	
17762	0	33092	32864	38000	158	0	32998	32643	37968	
17763	0	33092	32865	37996	159	0	32996	32647	37959	
17764	0	33096	32864	38000	160	0	32997	32666	37983	
17765	0	33096	32864	38004	161	0	32996	32663	37985	
17766	0	33092	32860	37980	162	0	33004	32658	37972	
17767	0	33088	32876	37984	163	0	33020	32660	37963	
17768	0	33080	32868	37988	164	0	33024	32647	37975	
17769	0	33088	32872	37976	165	0	33024	32656	37951	
17770	0	33088	32876	37984	166	0	33028	32645	37958	
17771	0	33084	32869	37984	167	0	33024	32640	37971	
17772	0	33090	32856	37984	168	0	33020	32647	37959	
17773	0	33084	32852	37992	169	0	33012	32647	37978	
17774	0	33092	32864	37960	170	0	33008	32664	37974	
17775	0	33096	32864	37972	171	0	33006	32644	37957	
17776	0	33104	32874	37984	172	0	33008	32642	37951	
17777	0	33092	32882	37988	173	0	33004	32647	37943	
17778	0	33084	32880	37993	174	0	32996	32647	37955	
17779	0	33088	32878	37988	175	0	32999	32654	37961	
17780	0	33096	32884	37972	176	0	32996	32662	37935	
17781	0	33088	32876	37952	177	0	33004	32656	37954	
17782	0	33088	32880	37984	178	0	32993	32662	37948	
17783	0	33080	32880	37984	179	0	33010	32655	37956	
17784	0	33092	32876	37984	180	0	33017	32656	37951	
17785	0	33068	32888	37964	181	0	33008	32660	37972	
17786	0	33080	32888	37956	182	0	32988	32670	37979	
17787	0	33064	32892	37953	183	0	32986	32667	37959	
17788	0	33072	32888	37964	184	0	33006	32647	37955	
17789	0	33072	32888	37984	185	0	33012	32640	37967	
17790	0	33074	32873	37988	186	0	33009	32646	37952	
17791	0	33084	32880	37984	187	0	33025	32637	37967	
17792	0	33080	32876	37992	188	0	33024	32641	37959	
17793	0	33088	32872	37976	189	0	33008	32657	37954	
17794	0	33088	32870	37960	190	0	33016	32642	37948	
17795	0	33100	32880	37944	191	0	33000	32658	37966	
17796	0	33088	32884	37968	192	0	33025	32647	37966	
17797	0	33089	32872	37976	193	0	33014	32647	37991	
17798	0	33088	32888	37980	194	0	33018	32663	37990	
17799	0	33088	32880	37984	195	0	33010	32667	37984	
17800	0	33092	32888	37976	196	0	33016	32647	37992	
17801	0	33092	32876	37988	197	0	33012	32662	37989	
17802	0	33088	32868	37992	198	0	33012	32662	37968	
17803	0	33096	32880	37980	199	0	33016	32665	37964	
17804	0	33088	32896	38000	200	0	33018	32660	37975	
17805	0	33088	32896	37980	201	0	33026	32661	37959	
17806	0	33088	32880	37980	202	0	33020	32669	37948	
17807	0	33088	32894	37972	203	0	33008	32647	37933	
17808	0	33084	32888	37986	204	0	33012	32647	37959	
17809	0	33104	32888	37968	205	0	33024	32647	37959	
17810	0	33096	32884	37976	206	0	33016	32647	37958	
17811	0	33096	32884	37981	207	0	33016	32660	37920	
17812	0	33088	32892	37968	208	0	33012	32658	37941	
17813	0	33105	32874	37976	209	0	33002	32667	37944	
17814	0	33100	32874	37976	210	0	32997	32663	37951	
17815	0	33104	32878	37968	211	0	33000	32647	37959	
17816	0	33100	32868	37952	212	0	33000	32669	37951	
17817	0	33092	32868	37948	213	0	33008	32647	37968	
17818	0	33092	32868	37980	214	0	33016	32669	37965	
17819	0	33092	32864	37996	215	0	33028	32660	37955	
17820	0	33094	32872	37988	216	0	33030	32660	37937	
17821	0	33104	32868	37992	217	0	33016	32647	37938	
17822	0	33100	32877	37976	218	0	33010	32670	37941	
17823	0	33096	32876	37952	219	0	33008	32674	37939	
17824	0	33108	32864	37972	220	0	33012	32659	37942	
17825	0	33096	32876	37976	221	0	33016	32647	37959	
17826	0	33096	32880	37956	222	0	33012	32647	37970	
17827	0	33088	32865	37980	223	0	33026	32636	37957	
17828	0	33096	32876	37968	224	0	33024	32647	37948	
17829	0	33100	32872	37976	225	0	33018	32655	37962	
17830	0	33096	32876	37976	226	0	33008	32663	37952	
17831	0	33093	32874	37984	227	0	33004	32663	37956	
17832	0	33088	32876	37992	228	0	33008	32666	37986	
17833	0	33104	32872	37992	229	0	32993	32662	37988	
17834	0	33104	32880	37980	230	0	33012	32655	37972	
17835	0	33100	32868	37972	231	0	33021	32647	37976	
17836	0	33096	32884	37972	232	0	33000	32667	37990	
17837	0	33100	32860	37984	233	0	33020	32662	37956	
17838	0	33092	32873	37960	234	0	33022	32666	37959	
17839	0	33092	32876	37972	235	0	33030	32658	37948	
17840	0	33088	32868	37972	236	0	33028	32666	37951	
17841	0	33088	32878	37976	237	0	33018	32674	37956	
17842	0	33080	32860	37984	238	0	33034	32659	37966	
17843	0	33092	32860	37984	239	0	33014	32654	37961	
17844	0	33092	32868	38004	240	0	33016	32638	37952	
17845	0	33102	32872	37980	241	0	33012	32634	37927	
17846	0	33100	32864	37988	242	0	33012	32646	37943	
17847	0	33098	32868	37972	243	0	33004	32647	37951	
17848	0	33096	32868	37965	244	0	32988	32662	37954	
17849	0	33100	32864	37956	245	0	33008	32647	37955	
17850	0	33100	32864	37976	246	0	33026	32639	37940	
17851	0	33088	32856	37984	247	0	33012	32636	37932	
17852	0	33092	32856	37981	248	0	33008	32645	37935	
17853	0	33100	32860	37996	249	0	33016	32646	37954	
17854	0	33096	32856	37984	250	0	33006	32652	37951	
17855	0	33100	32868	37974	251	0	33002	32669	37957	
17856	0	33092	32864	37964	252	0	33020	32646	37945	
17857	0	33100	32864	37956	253	0	33020	32647	37959	
17858	0	33104	32848	37968	254	0	33024	32647	37968	
17859	0	33080	32864	37960	255	0	33026	32656	37991	
17860	0	33080	32864	37944	256	0	33020	32660	37991	
17861	0	33088	32865	37944	257	0	33012	32647	37970	
17862	0	33088	32868	37940	258	0	33005	32655	37967	
17863	0	33084	32880	37944	259	0	32996	32671	37970	
17864	0	33088	32872	37956	260	0	33001	32663	37959	
17865	0	33076	32872	37932	261	0	33004	32656	37957	
17866	0	33088	32872	37968	262	0	33004	32655	37954	
17867	0	33088	32868	37972	263	0	33000	32647	37943	
17868	0	33088	32868	37976	264	0	33010	32647	37933	
17869	0	33092	32856	37976	265	0	32997	32658	37917	
17870	0	33092	32876	37968	266	0	32992	32661	37925	
17871	0	33084	32872	37960	267	0	32996	32667	37949	
17872	0	33088	32864	37952	268	0	32996	32662	37948	
17873	0	33080	32880	37948	269	0	32998	32660	37958	
17874	0	33092	32868	37932	270	0	33014	32655	37951	
17875	0	33084	32868	37952	271	0	33016	32660	37951	
17876	0	33084	32873	37972	272	0	33016	32668	37942	
17877	0	33084	32868	37952	273	0	33013	32663	37956	
17878	0	33076	32868	37952	274	0	33000	32647	37970	
17879	0	33096	32870	37968	275	0	32997	32646	37966	
17880	0	33089	32868	37952	276	0	33004	32647	37975	
17881	0	33108	32860	37964	277	0	33000	32647	37982	
17882	0	33096	32864	37980	278	0	33004	32647	37979	
17883	0	33096	32868	37952	279	0	33028	32642	37988	
17884	0	33080	32880	37976	280	0	33031	32642	37980	
17885	0	33080	32876	37976	281	0	33014	32647	37976	
17886	0	33084	32872	37968	282	0	33008	32643	37983	
17887	0	33076	32868	37956	283	0	33001	32642	37984	
17888	0	33068	32876	37984	284	0	32996	32639	37982	
17889	0	33072	32872	37996	285	0	32998	32642	37985	
17890	0	33080	32860	37989	286	0	33008	32634	37975	
17891	0	33088	32866	37972	287	0	33004	32624	37967	
17892	0	33092	32868	37950	288	0	33024	32623	37967	
17893	0	33082	32872	37948	289	0	33016	32642	37966	
17894	0	33096	32866	37960	290	0	32996	32647	37981	
17895	0	33090	32868	37976	291	0	32997	32647	37964	
17896	0	33092	32860	37984	292	0	33002	32647	37986	
17897	0	33080	32857	37984	293	0	33017	32631	37991	
17898	0	33080	32868	37984	294	0	33012	32653	37991	
17899	0	33085	32872	37972	295	0	33000	32640	37996	
17900	0	33104	32872	37972	296	0	33010	32647	37978	
17901	0	33092	32868	37960	297	0	32993	32659	37959	
17902	0	33096	32864	37952	298	0	33010	32647	37949	
17903	0	33088	32864	37952	299	0	32996	32662	37959	
17904	0	33096	32864	37964	300	0	32980	32672	37975	
17905	0	33092	32860	37985	301	0	32992	32667	37991	
17906	0	33082	32868	37976	302	0	33006	32653	37981	
17907	0	33088	32864	37968	303	0	33016	32647	37959	
17908	0	33096	32868	37976	304	0	33012	32636	37974	
17909	0	33088	32880	37976	305	0	32996	32642	37994	
17910	0	33084	32868	37989	306	0	33000	32639	37980	
17911	0	33088	32864	37984	307	0	32996	32645	37972	
17912	0	33096	32876	37988	308	0	32988	32646	37975	
17913	0	33104	32864	37964	309	0	32998	32643	37980	
17914	0	33096	32864	37976	310	0	33004	32647	37949	
17915	0	33096	32860	37989	311	0	32992	32666	37959	
17916	0	33080	32872	37976	312	0	32996	32647	37964	
17917	0	33076	32873	37980	313	0	33010	32647	37956	
17918	0	33076	32872	37984	314	0	33008	32645	37971	
17919	0	33072	32872	37980	315	0	33008	32639	37950	
17920	0	33088	32876	37976	316	0	33020	32637	37959	
17921	0	33092	32878	37984	317	0	33008	32647	37946	
17922	0	33080	32864	37980	318	0	33012	32658	37971	
17923	0	33082	32874	37960	319	0	33004	32655	37970	
17924	0	33076	32881	37944	320	0	33006	32660	37983	
17925	0	33080	32890	37968	321	0	33008	32647	37959	
17926	0	33088	32884	37972	322	0	33008	32637	37968	
17927	0	33104	32872	37960	323	0	32996	32627	37968	
17928	0	33096	32876	37981	324	0	33008	32631	37988	
17929	0	33092	32876	37976	325	0	33005	32647	37959	
17930	0	33092	32868	37988	326	0	33000	32656	37979	
17931	0	33096	32878	37972	327	0	33000	32673	37959	
17932	0	33100	32880	37948	328	0	32992	32674	37981	
17933	0	33100	32892	37968	329	0	33000	32642	37982	
17934	0	33096	32892	37962	330	0	33010	32644	37974	
17935	0	33104	32892	37968	331	0	33013	32644	37975	
17936	0	33088	32884	37976	332	0	33005	32647	37971	
17937	0	33076	32896	37964	333	0	33004	32669	37955	
17938	0	33088	32880	37956	334	0	33013	32666	37955	
17939	0	33092	32880	37960	335	0	33015	32660	37959	
17940	0	33080	32884	37961	336	0	33018	32662	37959	
17941	0	33072	32892	37996	337	0	33012	32671	37958	
17942	0	33076	32892	37984	338	0	33010	32662	37970	
17943	0	33080	32896	37984	339	0	33017	32669	37986	
17944	0	33084	32896	37976	340	0	33012	32665	37990	
17945	0	33084	32896	37952	341	0	33016	32665	38000	
17946	0	33088	32892	37964	342	0	33008	32663	37991	
17947	0	33072	32886	37944	343	0	32996	32683	37982	
17948	0	33088	32888	37957	344	0	32992	32671	37984	
17949	0	33080	32879	37992	345	0	33000	32673	37984	
17950	0	33088	32868	37984	346	0	33000	32673	37987	
17951	0	33080	32860	37996	347	0	33000	32662	37978	
17952	0	33068	32856	38001	348	0	33008	32658	37953	
17953	0	33076	32860	37997	349	0	33008	32654	37930	
17954	0	33072	32860	37972	350	0	33014	32655	37947	
17955	0	33072	32876	37960	351	0	33018	32647	37943	
17956	0	33072	32880	37976	352	0	33012	32663	37958	
17957	0	33072	32882	37976	353	0	33010	32647	37964	
17958	0	33076	32880	37980	354	0	33008	32661	37952	
17959	0	33080	32864	37976	355	0	33030	32647	37937	
17960	0	33092	32878	37972	356	0	33024	32655	37957	
17961	0	33088	32877	37984	357	0	33016	32655	37966	
17962	0	33096	32864	37992	358	0	33016	32663	37954	
17963	0	33096	32856	38008	359	0	33012	32647	37971	
17964	0	33088	32868	38004	360	0	33024	32655	37990	
17965	0	33068	32876	37984	361	0	33004	32647	37982	
17966	0	33076	32860	37990	362	0	33010	32645	37978	
17967	0	33072	32864	37976	363	0	33024	32643	37964	
17968	0	33088	32856	37948	364	0	33010	32647	37950	
17969	0	33096	32860	37952	365	0	32992	32658	37945	
17970	0	33096	32864	37964	366	0	32996	32656	37959	
17971	0	33092	32864	37972	367	0	33000	32662	37951	
17972	0	33100	32864	37956	368	0	33000	32661	37953	
17973	0	33088	32866	37948	369	0	33004	32663	37944	
17974	0	33096	32872	37964	370	0	33008	32647	37958	
17975	0	33080	32864	37952	371	0	32996	32657	37959	
17976	0	33080	32876	37964	372	0	32988	32670	37953	
17977	0	33084	32872	37964	373	0	33000	32662	37979	
17978	0	33072	32868	37964	374	0	33000	32657	37972	
17979	0	33080	32872	37988	375	0	33020	32656	37970	
17980	0	33080	32876	38000	376	0	33024	32668	37958	
17981	0	33080	32869	37992	377	0	33038	32658	37949	
17982	0	33088	32852	37976	378	0	33020	32658	37942	
17983	0	33084	32864	37984	379	0	33016	32643	37967	
17984	0	33076	32864	37992	380	0	33012	32655	37958	
17985	0	33072	32876	37968	381	0	32996	32655	37959	
17986	0	33080	32864	37968	382	0	33014	32647	37966	
17987	0	33080	32865	37984	383	0	33000	32658	37981	
17988	0	33084	32864	37972	384	0	33008	32647	37959	
17989	0	33088	32862	37968	385	0	33014	32647	37951	
17990	0	33096	32864	37976	386	0	33016	32647	37946	
17991	0	33108	32868	37956	387	0	33008	32662	37959	
17992	0	33104	32868	37980	388	0	33012	32647	37943	
17993	0	33092	32865	37984	389	0	33008	32647	37949	
17994	0	33092	32856	37976	390	0	33004	32646	37967	
17995	0	33096	32852	38000	391	0	33000	32644	37968	
17996	0	33100	32846	37992	392	0	33018	32636	37969	
17997	0	33076	32852	37980	393	0	33010	32647	37967	
17998	0	33088	32860	37960	394	0	33012	32646	37979	
17999	0	33088	32864	37952	395	0	33012	32647	37964	
18000	0	33088	32868	37956	396	0	33020	32642	37982	
18001	0	33088	32876	37944	397	0	33014	32643	37988	
18002	0	33085	32876	37960	398	0	33016	32638	37996	
18003	0	33084	32884	37960	399	0	33009	32647	37997	
18004	0	33080	32880	37956	400	0	33020	32647	37956	
18005	0	33072	32882	37933	401	0	33010	32647	37974	
18006	0	33072	32896	37960	402	0	33010	32647	37956	
18007	0	33072	32884	37972	403	0	33002	32658	37959	
18008	0	33088	32881	37968	404	0	33017	32672	37959	
18009	0	33084	32877	37972	405	0	33016	32661	37959	
18010	0	33088	32868	37980	406	0	33019	32658	37947	
18011	0	33076	32872	37976	407	0	33016	32647	37937	
18012	0	33088	32872	37988	408	0	33034	32646	37935	
18013	0	33096	32872	37977	409	0	33012	32655	37946	
18014	0	33100	32860	37968	410	0	33025	32647	37955	
18015	0	33104	32864	37960	411	0	33012	32647	37968	
18016	0	33100	32860	37964	412	0	33018	32646	37976	
18017	0	33112	32853	37952	413	0	33018	32636	37988	
18018	0	33108	32864	37960	414	0	33016	32631	37990	
18019	0	33108	32864	37964	415	0	33026	32633	37986	
18020	0	33092	32868	37956	416	0	33036	32631	37991	
18021	0	33084	32872	37952	417	0	33022	32644	37979	
18022	0	33088	32876	37972	418	0	33006	32647	37977	
18023	0	33092	32864	37980	419	0	33008	32662	37968	
18024	0	33092	32868	37976	420	0	33016	32673	37959	
18025	0	33096	32876	37968	421	0	33006	32672	37966	
18026	0	33084	32882	37960	422	0	33012	32666	37977	
18027	0	33088	32880	37960	423	0	33020	32668	37959	
18028	0	33108	32876	37952	424	0	33016	32647	37938	
18029	0	33104	32876	37952	425	0	33014	32646	37958	
18030	0	33100	32872	37956	426	0	33022	32642	37946	
18031	0	33096	32872	37976	427	0	33012	32642	37959	
18032	0	33092	32868	37976	428	0	33010	32644	37986	
18033	0	33088	32876	37984	429	0	33016	32644	37991	
18034	0	33088	32872	37980	430	0	33004	32646	37972	
18035	0	33096	32884	37972	431	0	33001	32647	37959	
18036	0	33092	32876	37972	432	0	33012	32655	37981	
18037	0	33096	32873	37980	433	0	33028	32643	37990	
18038	0	33096	32888	37988	434	0	33020	32647	37992	
18039	0	33084	32896	38016	435	0	33020	32659	37991	
18040	0	33088	32884	37988	436	0	33000	32672	37997	
18041	0	33100	32876	38004	437	0	33016	32668	37991	
18042	0	33104	32873	37988	438	0	33034	32655	37988	
18043	0	33092	32880	37964	439	0	33036	32655	37988	
18044	0	33088	32881	37978	440	0	33037	32647	37974	
18045	0	33080	32884	37985	441	0	33016	32663	37987	
18046	0	33080	32880	37968	442	0	33026	32658	37970	
18047	0	33080	32864	37960	443	0	33020	32653	37964	
18048	0	33088	32872	37966	444	0	33016	32672	37968	
18049	0	33076	32884	37984	445	0	33010	32655	37987	
18050	0	33076	32884	37964	446	0	33008	32647	37966	
18051	0	33088	32876	37970	447	0	32986	32647	37971	
18052	0	33096	32872	37977	448	0	32992	32643	37959	
18053	0	33108	32868	37962	449	0	33005	32643	37950	
18054	0	33096	32860	37956	450	0	32996	32647	37949	
18055	0	33088	32860	37956	451	0	33000	32640	37941	
18056	0	33084	32872	37980	452	0	33016	32639	37955	
18057	0	33092	32856	37996	453	0	33024	32627	37959	
18058	0	33092	32864	37968	454	0	33018	32643	37949	
18059	0	33084	32864	37980	455	0	33020	32647	37938	
18060	0	33066	32860	37976	456	0	33028	32638	37942	
18061	0	33076	32852	37988	457	0	33016	32647	37946	
18062	0	33076	32848	37988	458	0	33024	32639	37958	
18063	0	33084	32860	37960	459	0	33024	32639	37993	
18064	0	33084	32864	37960	460	0	33014	32647	37978	
18065	0	33072	32868	37932	461	0	33000	32655	37971	
18066	0	33084	32868	37940	462	0	33004	32647	37963	
18067	0	33076	32876	37952	463	0	32996	32639	37980	
18068	0	33072	32872	37972	464	0	32993	32636	37974	
18069	0	33060	32900	37980	465	0	33001	32639	37980	
18070	0	33084	32880	37968	466	0	33001	32646	38003	
18071	0	33080	32880	37972	467	0	32993	32659	37988	
18072	0	33088	32880	37968	468	0	32998	32647	37981	
18073	0	33088	32892	37968	469	0	32996	32660	37992	
18074	0	33080	32884	37960	470	0	32997	32655	37990	
18075	0	33096	32868	37964	471	0	32997	32656	37991	
18076	0	33080	32868	37980	472	0	33000	32647	37991	
18077	0	33082	32872	37964	473	0	33004	32647	37991	
18078	0	33076	32864	37960	474	0	33018	32641	37995	
18079	0	33068	32872	37952	475	0	33026	32644	37978	
18080	0	33060	32876	37972	476	0	32996	32665	37975	
18081	0	33052	32864	37984	477	0	32996	32675	37959	
18082	0	33056	32864	37996	478	0	32992	32667	37974	
18083	0	33060	32860	37972	479	0	32988	32659	37969	
18084	0	33068	32868	37968	480	0	32972	32672	37957	
18085	0	33076	32864	37972	481	0	32988	32660	37982	
18086	0	33080	32876	37964	482	0	32992	32658	37959	
18087	0	33088	32868	37992	483	0	33000	32655	37981	
18088	0	33096	32852	37968	484	0	33012	32647	37971	
18089	0	33100	32858	37964	485	0	33020	32660	37966	
18090	0	33080	32872	37972	486	0	32998	32669	37959	
18091	0	33076	32876	37964	487	0	32997	32664	37965	
18092	0	33080	32876	37980	488	0	32988	32657	37950	
18093	0	33080	32884	37960	489	0	32988	32662	37967	
18094	0	33088	32888	37976	490	0	32992	32652	37950	
18095	0	33088	32880	37988	491	0	33000	32659	37951	
18096	0	33088	32880	37968	492	0	32997	32662	37942	
18097	0	33088	32876	37964	493	0	33002	32647	37959	
18098	0	33076	32876	37944	494	0	33004	32655	37935	
18099	0	33088	32880	37956	495	0	32996	32658	37936	
18100	0	33088	32880	37964	496	0	33008	32668	37922	
18101	0	33084	32884	37972	497	0	33006	32647	37919	
18102	0	33088	32888	37992	498	0	33004	32660	37926	
18103	0	33090	32896	37988	499	0	33000	32663	37956	
18104	0	33100	32888	37988	500	0	32998	32669	37966	
18105	0	33100	32876	37981	501	0	33014	32658	37996	
18106	0	33100	32872	37980	502	0	33012	32667	37981	
18107	0	33096	32868	37961	503	0	33021	32652	37981	
18108	0	33080	32869	37964	504	0	33012	32666	37976	
18109	0	33080	32880	37980	505	0	33024	32666	37959	
18110	0	33076	32876	37974	506	0	33021	32647	37966	
18111	0	33096	32876	37972	507	0	33004	32656	37963	
18112	0	33088	32872	37980	508	0	33008	32647	37990	
18113	0	33082	32864	37972	509	0	33008	32666	37980	
18114	0	33084	32872	37992	510	0	33000	32658	37967	
18115	0	33078	32876	37968	511	0	32996	32655	37959	
18116	0	33084	32888	37972	512	0	32984	32662	37967	
18117	0	33088	32880	37968	513	0	32989	32661	37964	
18118	0	33076	32888	37956	514	0	32997	32660	37959	
18119	0	33072	32892	37960	515	0	32989	32660	37959	
18120	0	33068	32892	37956	516	0	32992	32658	37988	
18121	0	33064	32892	37952	517	0	32992	32663	37976	
18122	0	33068	32884	37956	518	0	32992	32670	37973	
18123	0	33064	32900	37958	519	0	32984	32665	37988	
18124	0	33068	32876	37972	520	0	32989	32663	37973	
18125	0	33080	32888	37984	521	0	32996	32674	37964	
18126	0	33072	32900	37981	522	0	33004	32678	37954	
18127	0	33080	32884	37968	523	0	33008	32671	37942	
18128	0	33089	32888	37992	524	0	33012	32647	37939	
18129	0	33088	32880	37980	525	0	33012	32656	37959	
18130	0	33088	32872	37968	526	0	33021	32652	37975	
18131	0	33080	32884	37976	527	0	33020	32647	37975	
18132	0	33080	32886	37952	528	0	33003	32646	37968	
18133	0	33093	32880	37980	529	0	32992	32663	37959	
18134	0	33112	32878	37968	530	0	32996	32666	37971	
18135	0	33120	32884	37984	531	0	33013	32662	37959	
18136	0	33112	32878	37984	532	0	33006	32663	37966	
18137	0	33096	32880	37964	533	0	33000	32663	37967	
18138	0	33096	32880	37964	534	0	33008	32663	37959	
18139	0	33104	32893	37964	535	0	33008	32665	37984	
18140	0	33096	32888	37968	536	0	33016	32662	37966	
18141	0	33088	32900	37972	537	0	33016	32654	37974	
18142	0	33100	32892	37976	538	0	33024	32646	37967	
18143	0	33092	32888	37964	539	0	33024	32647	37935	
18144	0	33096	32892	37980	540	0	33018	32659	37939	
18145	0	33092	32892	37960	541	0	33013	32658	37955	
18146	0	33096	32888	37968	542	0	33008	32672	37953	
18147	0	33096	32888	37956	543	0	33004	32668	37980	
18148	0	33088	32894	37952	544	0	33016	32669	37981	
18149	0	33088	32896	37956	545	0	33018	32662	37992	
18150	0	33096	32896	37944	546	0	33010	32647	37998	
18151	0	33088	32884	37976	547	0	33024	32647	37983	
18152	0	33092	32873	37980	548	0	33004	32644	37943	
18153	0	33092	32884	37972	549	0	33001	32647	37953	
18154	0	33088	32876	37972	550	0	33004	32660	37966	
18155	0	33088	32884	37976	551	0	33006	32647	37959	
18156	0	33092	32884	37968	552	0	33008	32656	37979	
18157	0	33084	32888	37960	553	0	33012	32656	37968	
18158	0	33084	32892	37952	554	0	33024	32666	37959	
18159	0	33088	32868	37956	555	0	33020	32665	37983	
18160	0	33088	32880	37952	556	0	33016	32671	37983	
18161	0	33092	32868	37968	557	0	33018	32670	37997	
18162	0	33096	32876	37994	558	0	33006	32662	37972	
18163	0	33096	32872	37996	559	0	33004	32662	37979	
18164	0	33092	32876	37976	560	0	33008	32662	37974	
18165	0	33104	32872	37944	561	0	33025	32646	37990	
18166	0	33092	32880	37948	562	0	33018	32646	37990	
18167	0	33096	32888	37976	563	0	33020	32647	37992	
18168	0	33076	32892	37968	564	0	33020	32655	37976	
18169	0	33080	32880	37968	565	0	33008	32658	37954	
18170	0	33080	32884	37982	566	0	33008	32658	37981	
18171	0	33085	32868	37962	567	0	32992	32656	37971	
18172	0	33088	32880	37964	568	0	33004	32647	37978	
18173	0	33092	32864	37972	569	0	32992	32642	37972	
18174	0	33088	32864	37964	570	0	32992	32647	37958	
18175	0	33092	32874	37964	571	0	33000	32663	37958	
18176	0	33104	32864	37968	572	0	33010	32665	37937	
18177	0	33098	32876	37984	573	0	33022	32643	37947	
18178	0	33096	32881	37996	574	0	33024	32659	37944	
18179	0	33092	32876	38012	575	0	33028	32647	37949	
18180	0	33088	32872	37993	576	0	33018	32655	37976	
18181	0	33088	32861	37980	577	0	33018	32638	37970	
18182	0	33081	32868	37984	578	0	33016	32639	37975	
18183	0	33092	32872	37992	579	0	33020	32639	37984	
18184	0	33104	32866	37989	580	0	33024	32647	37982	
18185	0	33116	32858	37968	581	0	33028	32647	37981	
18186	0	33108	32856	37956	582	0	33026	32643	37972	
18187	0	33100	32872	37972	583	0	33020	32647	37970	
18188	0	33096	32864	38000	584	0	33020	32637	37954	
18189	0	33092	32864	37980	585	0	33028	32628	37977	
18190	0	33096	32866	37968	586	0	33037	32634	37959	
18191	0	33088	32872	37976	587	0	33016	32641	37957	
18192	0	33092	32872	37973	588	0	33024	32639	37974	
18193	0	33088	32868	37966	589	0	33030	32646	37974	
18194	0	33116	32858	37972	590	0	33030	32647	37968	
18195	0	33114	32860	37956	591	0	33030	32651	37957	
18196	0	33092	32868	37964	592	0	33032	32647	37947	
18197	0	33094	32872	37980	593	0	33020	32646	37951	
18198	0	33096	32880	37968	594	0	33016	32647	37947	
18199	0	33100	32861	37980	595	0	33034	32652	37959	
18200	0	33088	32868	38016	596	0	33021	32654	37988	
18201	0	33088	32868	37996	597	0	33016	32663	37991	
18202	0	33084	32876	37984	598	0	33016	32658	37991	
18203	0	33088	32872	37984	599	0	33030	32672	37990	
18204	0	33088	32876	37972	600	0	33008	32663	37992	
18205	0	33092	32877	37976	601	0	33012	32658	37987	
18206	0	33100	32880	37960	602	0	33018	32660	37989	
18207	0	33088	32874	37976	603	0	33016	32654	37976	
18208	0	33092	32880	37976	604	0	33012	32647	37972	
18209	0	33096	32868	37972	605	0	33024	32647	37972	
18210	0	33088	32888	37960	606	0	33032	32639	37970	
18211	0	33100	32876	37956	607	0	33021	32645	37964	
18212	0	33084	32872	37960	608	0	33030	32646	37966	
18213	0	33096	32861	37956	609	0	33020	32631	37955	
18214	0	33088	32877	37952	610	0	33012	32655	37946	
18215	0	33096	32880	37964	611	0	33010	32647	37959	
18216	0	33096	32880	37968	612	0	33006	32657	37965	
18217	0	33088	32892	37972	613	0	33004	32647	37959	
18218	0	33088	32896	37984	614	0	33017	32660	37984	
18219	0	33088	32892	37984	615	0	33010	32666	37986	
18220	0	33084	32884	37996	616	0	33008	32670	37982	
18221	0	33080	32880	37964	617	0	33012	32676	37988	
18222	0	33092	32884	37992	618	0	33004	32666	37988	
18223	0	33088	32880	37978	619	0	33012	32660	37979	
18224	0	33096	32880	37984	620	0	33006	32662	37984	
18225	0	33092	32880	37976	621	0	33004	32663	37974	
18226	0	33092	32868	37964	622	0	33000	32657	37988	
18227	0	33096	32868	37960	623	0	33001	32647	37978	
18228	0	33088	32872	37954	624	0	33004	32659	37988	
18229	0	33092	32877	37952	625	0	33008	32646	37996	
18230	0	33096	32868	37956	626	0	32996	32647	37979	
18231	0	33080	32872	37960	627	0	33020	32646	37966	
18232	0	33088	32865	37968	628	0	33024	32647	37967	
18233	0	33072	32864	37956	629	0	33025	32646	37959	
18234	0	33080	32872	37940	630	0	33016	32647	37948	
18235	0	33084	32868	37960	631	0	33016	32639	37954	
18236	0	33092	32868	37954	632	0	33012	32630	37959	
18237	0	33084	32864	37964	633	0	33013	32642	37968	
18238	0	33080	32872	37972	634	0	33020	32646	37983	
18239	0	33068	32886	37972	635	0	33024	32647	37951	
18240	0	33080	32880	37976	636	0	33024	32647	37930	
18241	0	33080	32884	37968	637	0	33024	32655	37959	
18242	0	33080	32888	37952	638	0	33016	32647	37982	
18243	0	33088	32888	37984	639	0	33012	32647	37976	
18244	0	33096	32890	37976	640	0	33008	32652	37999	
18245	0	33088	32880	37976	641	0	33010	32647	38002	
18246	0	33092	32874	37960	642	0	33024	32660	37985	
18247	0	33084	32884	37980	643	0	33024	32647	37966	
18248	0	33092	32888	37988	644	0	33016	32647	37948	
18249	0	33088	32885	37996	645	0	33009	32661	37959	
18250	0	33080	32880	37984	646	0	33006	32652	37970	
18251	0	33084	32888	37976	647	0	33002	32647	37980	
18252	0	33076	32888	37984	648	0	33000	32662	37980	
18253	0	33064	32885	37964	649	0	32996	32662	37971	
18254	0	33072	32884	37976	650	0	32984	32669	37990	
18255	0	33088	32884	37976	651	0	32988	32662	37986	
18256	0	33064	32892	37968	652	0	32996	32671	37984	
18257	0	33064	32884	37965	653	0	33004	32658	37970	
18258	0	33072	32888	37996	654	0	32989	32655	37974	
18259	0	33077	32886	38008	655	0	32992	32664	37957	
18260	0	33088	32884	37992	656	0	32996	32668	37957	
18261	0	33084	32864	37984	657	0	33002	32647	37981	
18262	0	33108	32876	37982	658	0	33012	32642	37959	
18263	0	33104	32864	37992	659	0	33008	32646	37974	
18264	0	33084	32888	37980	660	0	33010	32647	37977	
18265	0	33079	32880	37988	661	0	33016	32647	37954	
18266	0	33088	32872	37974	662	0	33012	32647	37955	
18267	0	33076	32860	37968	663	0	33010	32647	37948	
18268	0	33082	32864	37964	664	0	33000	32655	37931	
18269	0	33084	32852	37992	665	0	33008	32641	37947	
18270	0	33088	32852	37973	666	0	33000	32643	37949	
18271	0	33088	32858	37984	667	0	33002	32631	37950	
18272	0	33080	32864	37972	668	0	33008	32633	37959	
18273	0	33080	32860	37960	669	0	33008	32639	37942	
18274	0	33080	32868	37952	670	0	33016	32639	37946	
18275	0	33080	32872	37952	671	0	33008	32647	37978	
18276	0	33080	32876	37960	672	0	33024	32637	37983	
18277	0	33076	32864	37970	673	0	33024	32638	37966	
18278	0	33092	32864	37976	674	0	33031	32636	37959	
18279	0	33092	32870	37985	675	0	33020	32647	37974	
18280	0	33084	32864	38000	676	0	33016	32647	37990	
18281	0	33090	32864	37980	677	0	33018	32656	37974	
18282	0	33084	32856	37993	678	0	33022	32647	37951	
18283	0	33096	32862	37956	679	0	33020	32647	37967	
18284	0	33088	32872	37984	680	0	33012	32647	37943	
18285	0	33088	32872	37980	681	0	33017	32640	37935	
18286	0	33092	32866	38000	682	0	33016	32652	37935	
18287	0	33088	32880	37996	683	0	33018	32647	37941	
18288	0	33096	32880	37992	684	0	33008	32640	37959	
18289	0	33096	32880	38008	685	0	33010	32647	37976	
18290	0	33088	32880	37988	686	0	33024	32646	37974	
18291	0	33100	32880	37972	687	0	33018	32655	37979	
18292	0	33093	32876	37968	688	0	33028	32641	37958	
18293	0	33094	32877	37952	689	0	33008	32647	37970	
18294	0	33084	32872	37952	690	0	33010	32658	37969	
18295	0	33080	32889	37948	691	0	33010	32653	37965	
18296	0	33088	32872	37984	692	0	32998	32658	37970	
18297	0	33088	32868	37980	693	0	33002	32644	37975	
18298	0	33092	32860	37960	694	0	33020	32639	37972	
18299	0	33088	32860	37952	695	0	33029	32634	37995	
18300	0	33088	32852	37964	696	0	33020	32647	37970	
18301	0	33088	32854	37960	697	0	33011	32644	37957	
18302	0	33080	32860	37956	698	0	33016	32647	37968	
18303	0	33088	32868	37968	699	0	33022	32643	37996	
18304	0	33088	32860	37976	700	0	33020	32647	37999	
18305	0	33084	32872	37960	701	0	32996	32657	37995	
18306	0	33092	32880	37992	702	0	32998	32654	37981	
18307	0	33081	32872	37996	703	0	33008	32637	37975	
18308	0	33084	32880	37998	704	0	33019	32642	37989	
18309	0	33076	32876	37984	705	0	33012	32647	37975	
18310	0	33080	32876	37976	706	0	33004	32647	37979	
18311	0	33092	32876	37976	707	0	33006	32663	37972	
18312	0	33088	32880	37972	708	0	33013	32666	37974	
18313	0	33088	32893	37976	709	0	33008	32660	37983	
18314	0	33096	32900	37968	710	0	33016	32662	37966	
18315	0	33080	32888	37980	711	0	33004	32667	37956	
18316	0	33077	32892	38012	712	0	33012	32663	37959	
18317	0	33092	32878	37984	713	0	33012	32662	37967	
18318	0	33100	32881	37972	714	0	33026	32662	37982	
18319	0	33088	32880	37974	715	0	33022	32662	37977	
18320	0	33093	32872	37973	716	0	33013	32667	37944	
18321	0	33092	32880	37984	717	0	33016	32656	37949	
18322	0	33080	32888	37980	718	0	33008	32669	37959	
18323	0	33088	32884	37988	719	0	33000	32674	37971	
18324	0	33080	32893	38000	720	0	33004	32671	37954	
18325	0	33104	32896	37996	721	0	33008	32671	37946	
18326	0	33096	32892	37992	722	0	33012	32660	37943	
18327	0	33100	32884	37996	723	0	33010	32666	37967	
18328	0	33108	32878	37988	724	0	33018	32669	37966	
18329	0	33104	32880	37992	725	0	33022	32663	37966	
18330	0	33096	32888	37984	726	0	33033	32658	37975	
18331	0	33104	32876	38004	727	0	33026	32647	37974	
18332	0	33088	32884	37986	728	0	33010	32647	37983	
18333	0	33096	32884	37976	729	0	33010	32647	38004	
18334	0	33085	32872	37980	730	0	33010	32661	37994	
18335	0	33088	32880	37968	731	0	33010	32647	37999	
18336	0	33092	32888	37982	732	0	33001	32647	37990	
18337	0	33082	32888	37968	733	0	33000	32662	37967	
18338	0	33088	32890	37975	734	0	33004	32655	37965	
18339	0	33084	32884	37972	735	0	32997	32663	37948	
18340	0	33080	32872	37980	736	0	33004	32665	37943	
18341	0	33076	32888	37968	737	0	32997	32671	37929	
18342	0	33080	32890	37952	738	0	32996	32677	37952	
18343	0	33068	32888	37976	739	0	32997	32676	37952	
18344	0	33076	32888	37956	740	0	32988	32669	37950	
18345	0	33080	32888	37960	741	0	32990	32647	37970	
18346	0	33088	32864	37972	742	0	32996	32662	37979	
18347	0	33096	32868	37960	743	0	33000	32660	37970	
18348	0	33092	32866	37968	744	0	33000	32653	37959	
18349	0	33084	32860	37961	745	0	33010	32655	37949	
18350	0	33088	32864	37962	746	0	33004	32656	37937	
18351	0	33088	32868	37980	747	0	33014	32653	37950	
18352	0	33088	32872	37984	748	0	32998	32647	37951	
18353	0	33088	32872	37988	749	0	33005	32650	37950	
18354	0	33076	32878	37996	750	0	33016	32647	37945	
18355	0	33092	32872	38008	751	0	33016	32647	37977	
18356	0	33092	32868	38016	752	0	33024	32642	37983	
18357	0	33088	32856	37997	753	0	33026	32662	37967	
18358	0	33096	32860	37988	754	0	33029	32640	37959	
18359	0	33088	32868	37976	755	0	33024	32647	37959	
18360	0	33092	32864	37980	756	0	33004	32663	37983	
18361	0	33088	32876	37980	757	0	33010	32647	37983	
18362	0	33088	32880	37952	758	0	33005	32647	37989	
18363	0	33092	32872	37972	759	0	33008	32646	37969	
18364	0	33084	32868	37982	760	0	32996	32658	37952	
18365	0	33092	32872	37992	761	0	32996	32642	37954	
18366	0	33088	32864	37988	762	0	33018	32640	37959	
18367	0	33100	32860	37956	763	0	33018	32643	37970	
18368	0	33084	32860	37973	764	0	33008	32639	37975	
18369	0	33080	32864	37996	765	0	33012	32639	37966	
18370	0	33072	32876	37972	766	0	33006	32647	37972	
18371	0	33082	32876	37968	767	0	32996	32658	37979	
18372	0	33076	32876	37960	768	0	32996	32653	37981	
18373	0	33080	32872	37960	769	0	33004	32642	37995	
18374	0	33080	32868	37968	770	0	32997	32662	37974	
18375	0	33080	32876	37976	771	0	32992	32660	37984	
18376	0	33084	32880	37980	772	0	32992	32659	37974	
18377	0	33076	32872	37976	773	0	33001	32647	37970	
18378	0	33084	32872	37988	774	0	33000	32647	37975	
18379	0	33096	32868	38000	775	0	32997	32659	37983	
18380	0	33084	32864	37988	776	0	32992	32668	37982	
18381	0	33064	32864	37996	777	0	32999	32666	37990	
18382	0	33076	32872	37996	778	0	32992	32671	37975	
18383	0	33076	32868	37980	779	0	32997	32660	37959	
18384	0	33088	32860	37996	780	0	33000	32662	37970	
18385	0	33088	32864	37992	781	0	33002	32662	37952	
18386	0	33084	32864	37980	782	0	33008	32639	37949	
18387	0	33096	32864	37974	783	0	33003	32638	37934	
18388	0	33088	32856	37956	784	0	33005	32646	37940	
18389	0	33088	32848	37976	785	0	33004	32647	37953	
18390	0	33088	32836	37976	786	0	33001	32630	37956	
18391	0	33088	32848	37968	787	0	33008	32634	37974	
18392	0	33088	32840	37984	788	0	32996	32647	37959	
18393	0	33084	32852	37996	789	0	33000	32647	37946	
18394	0	33092	32848	37988	790	0	32998	32639	37956	
18395	0	33088	32852	38004	791	0	33008	32647	37957	
18396	0	33092	32860	38004	792	0	33012	32647	37949	
18397	0	33084	32860	37968	793	0	33008	32641	37957	
18398	0	33084	32860	37976	794	0	33004	32646	37981	
18399	0	33084	32868	37966	795	0	33008	32631	37957	
18400	0	33088	32864	37956	796	0	33020	32635	37975	
18401	0	33096	32876	37960	797	0	33008	32635	37958	
18402	0	33096	32880	37976	798	0	33016	32631	37940	
18403	0	33104	32880	37984	799	0	33026	32631	37943	
18404	0	33100	32888	37976	800	0	33032	32647	37954	
18405	0	33080	32880	37972	801	0	33024	32655	37953	
18406	0	33080	32877	37972	802	0	33024	32647	37942	
18407	0	33080	32880	37960	803	0	33020	32647	37940	
18408	0	33084	32872	37980	804	0	33017	32644	37975	
18409	0	33092	32876	37953	805	0	33016	32639	37959	
18410	0	33088	32882	37960	806	0	32996	32655	37948	
18411	0	33080	32880	37968	807	0	33008	32656	37935	
18412	0	33080	32880	37980	808	0	33002	32668	37941	
18413	0	33092	32880	37964	809	0	32998	32669	37927	
18414	0	33092	32877	37956	810	0	33008	32674	37942	
18415	0	33088	32876	37964	811	0	33008	32664	37959	
18416	0	33112	32864	37956	812	0	32997	32671	37969	
18417	0	33112	32860	37974	813	0	33007	32658	37956	
18418	0	33120	32860	37964	814	0	33008	32647	37968	
18419	0	33112	32856	37984	815	0	33010	32658	37982	
18420	0	33108	32853	37964	816	0	33034	32636	37991	
18421	0	33104	32856	37960	817	0	33024	32619	37965	
18422	0	33100	32845	37950	818	0	33017	32631	37988	
18423	0	33096	32856	37952	819	0	33020	32647	37992	
18424	0	33104	32860	37956	820	0	33024	32643	37978	
18425	0	33088	32864	37948	821	0	33020	32644	37978	
18426	0	33096	32860	37932	822	0	33010	32642	37972	
18427	0	33096	32864	37948	823	0	33004	32647	37969	
18428	0	33093	32856	37966	824	0	33006	32647	37965	
18429	0	33088	32864	37976	825	0	32997	32647	37947	
18430	0	33096	32868	37972	826	0	33004	32646	37958	
18431	0	33088	32864	37957	827	0	33012	32636	37943	
18432	0	33084	32868	37972	828	0	33000	32644	37951	
18433	0	33092	32868	37964	829	0	32984	32647	37959	
18434	0	33084	32879	37952	830	0	33000	32647	37959	
18435	0	33074	32880	37956	831	0	32996	32647	37969	
18436	0	33076	32888	37956	832	0	33012	32646	37974	
18437	0	33088	32892	37988	833	0	33000	32658	37984	
18438	0	33088	32888	37996	834	0	33008	32660	37975	
18439	0	33092	32884	38004	835	0	32996	32660	37954	
18440	0	33084	32884	37996	836	0	32998	32659	37940	
18441	0	33088	32884	37992	837	0	33012	32647	37937	
18442	0	33096	32880	37968	838	0	33016	32667	37946	
18443	0	33096	32878	37960	839	0	33004	32662	37979	
18444	0	33092	32872	37968	840	0	33008	32662	37968	
18445	0	33096	32864	37964	841	0	33008	32660	37982	
18446	0	33096	32864	37944	842	0	33012	32671	38003	
18447	0	33096	32864	37936	843	0	33020	32654	37993	
18448	0	33088	32860	37944	844	0	33024	32647	37986	
18449	0	33092	32868	37940	845	0	33031	32646	37955	
18450	0	33096	32872	37972	846	0	33044	32647	37941	
18451	0	33096	32872	37978	847	0	33024	32647	37947	
18452	0	33096	32872	37972	848	0	33024	32647	37953	
18453	0	33096	32876	37968	849	0	33008	32659	37945	
18454	0	33096	32876	37976	850	0	32980	32663	37955	
18455	0	33097	32876	37984	851	0	32992	32654	37952	
18456	0	33096	32884	37988	852	0	33000	32653	37968	
18457	0	33096	32876	37992	853	0	33000	32661	37958	
18458	0	33088	32876	37996	854	0	32996	32663	37974	
18459	0	33093	32876	37988	855	0	32992	32658	37974	
18460	0	33096	32880	37980	856	0	33007	32646	37952	
18461	0	33096	32872	37964	857	0	33004	32647	37971	
18462	0	33098	32868	37980	858	0	33000	32647	37952	
18463	0	33092	32868	37964	859	0	33008	32641	37959	
18464	0	33084	32884	37977	860	0	33002	32658	37984	
18465	0	33084	32884	37964	861	0	33004	32647	37987	
18466	0	33084	32877	37972	862	0	33020	32647	37978	
18467	0	33072	32880	37968	863	0	33012	32643	37964	
18468	0	33080	32880	37956	864	0	33016	32646	37956	
18469	0	33088	32868	37968	865	0	33012	32647	37967	
18470	0	33096	32872	37952	866	0	33014	32647	37971	
18471	0	33106	32864	37964	867	0	33016	32647	37952	
18472	0	33104	32868	37956	868	0	33028	32634	37945	
18473	0	33088	32874	37960	869	0	33014	32647	37932	
18474	0	33084	32873	37972	870	0	33012	32642	37948	
18475	0	33088	32876	37964	871	0	33020	32647	37959	
18476	0	33064	32880	37964	872	0	33027	32647	37991	
18477	0	33076	32869	37956	873	0	33016	32647	37966	
18478	0	33100	32868	37972	874	0	33014	32647	37959	
18479	0	33100	32856	37952	875	0	33002	32646	37967	
18480	0	33100	32864	37960	876	0	32992	32653	37956	
18481	0	33104	32868	37980	877	0	33000	32663	37951	
18482	0	33104	32856	37992	878	0	33012	32647	37952	
18483	0	33108	32856	37980	879	0	33016	32659	37949	
18484	0	33104	32864	37968	880	0	33016	32667	37963	
18485	0	33092	32884	37972	881	0	33016	32663	37975	
18486	0	33093	32872	37968	882	0	33014	32658	37980	
18487	0	33088	32864	37968	883	0	33020	32661	37957	
18488	0	33092	32868	37984	884	0	33016	32643	37941	
18489	0	33104	32866	37972	885	0	33008	32644	37944	
18490	0	33104	32867	37956	886	0	33018	32647	37942	
18491	0	33096	32880	37940	887	0	33006	32638	37949	
18492	0	33092	32872	37940	888	0	33004	32647	37951	
18493	0	33092	32866	37944	889	0	33008	32640	37955	
18494	0	33096	32872	37948	890	0	33018	32631	37949	
18495	0	33088	32864	37964	891	0	33014	32636	37959	
18496	0	33092	32876	37960	892	0	33006	32646	37947	
18497	0	33088	32880	37968	893	0	33018	32647	37949	
18498	0	33104	32868	37972	894	0	33016	32645	37959	
18499	0	33084	32872	37988	895	0	33006	32658	37968	
18500	0	33088	32868	37976	896	0	33008	32662	37980	
18501	0	33079	32864	37972	897	0	33000	32662	37972	
18502	0	33100	32864	37972	898	0	32992	32655	37991	
18503	0	33104	32860	37984	899	0	33016	32647	37989	
18504	0	33100	32856	38000	900	0	33016	32644	37956	
18505	0	33080	32884	37976	901	0	33016	32647	37978	
18506	0	33076	32876	37980	902	0	33020	32647	37989	
18507	0	33072	32872	37964	903	0	33028	32642	37956	
18508	0	33080	32864	37972	904	0	33031	32642	37943	
18509	0	33072	32877	37976	905	0	33018	32647	37965	
18510	0	33066	32888	37968	906	0	33008	32642	37949	
18511	0	33068	32892	37956	907	0	32992	32662	37958	
18512	0	33068	32888	37952	908	0	33000	32644	37983	
18513	0	33068	32892	37956	909	0	33004	32634	37983	
18514	0	33072	32900	37948	910	0	32997	32642	37966	
18515	0	33088	32888	37968	911	0	33004	32654	37964	
18516	0	33088	32872	37960	912	0	33020	32647	37967	
18517	0	33092	32872	37960	913	0	33018	32634	37965	
18518	0	33072	32868	37984	914	0	33030	32639	37959	
18519	0	33080	32864	37974	915	0	33016	32631	37963	
18520	0	33072	32876	37980	916	0	33004	32639	37963	
18521	0	33072	32876	37992	917	0	32992	32643	37959	
18522	0	33072	32878	38000	918	0	32988	32647	37964	
18523	0	33080	32876	37996	919	0	33000	32644	37959	
18524	0	33084	32864	37996	920	0	33016	32647	37959	
18525	0	33088	32852	37990	921	0	33000	32647	37970	
18526	0	33092	32860	37972	922	0	32996	32646	37964	
18527	0	33096	32872	37972	923	0	32992	32645	37962	
18528	0	33088	32884	37976	924	0	33001	32658	37946	
18529	0	33088	32880	37968	925	0	33004	32647	37950	
18530	0	33076	32864	37972	926	0	33016	32646	37956	
18531	0	33092	32868	37960	927	0	33005	32647	37944	
18532	0	33092	32880	37980	928	0	32996	32660	37959	
18533	0	33080	32896	37968	929	0	33016	32643	37966	
18534	0	33088	32884	37980	930	0	33001	32662	37972	
18535	0	33088	32876	37980	931	0	32986	32674	37974	
18536	0	33088	32876	37958	932	0	32996	32659	37975	
18537	0	33092	32864	37980	933	0	32999	32669	37950	
18538	0	33088	32852	38008	934	0	33008	32647	37967	
18539	0	33088	32868	37984	935	0	33008	32647	37982	
18540	0	33080	32876	37981	936	0	33000	32654	37993	
18541	0	33072	32889	37952	937	0	33016	32647	37988	
18542	0	33064	32898	37964	938	0	33000	32647	37981	
18543	0	33068	32881	37968	939	0	33006	32658	37972	
18544	0	33060	32884	37972	940	0	33006	32647	37972	
18545	0	33064	32884	37952	941	0	33010	32647	37964	
18546	0	33072	32888	37948	942	0	32997	32639	37940	
18547	0	33076	32884	37960	943	0	32997	32647	37964	
18548	0	33088	32876	37960	944	0	32995	32639	37959	
18549	0	33104	32862	37964	945	0	33008	32641	37959	
18550	0	33092	32856	37972	946	0	33000	32658	37940	
18551	0	33084	32868	37964	947	0	32992	32643	37964	
18552	0	33092	32868	37976	948	0	33010	32645	37945	
18553	0	33092	32865	37970	949	0	33010	32644	37935	
18554	0	33096	32860	37972	950	0	33022	32638	37959	
18555	0	33096	32860	37972	951	0	33016	32647	37954	
18556	0	33100	32873	37956	952	0	33024	32646	37959	
18557	0	33092	32872	37964	953	0	33018	32647	37963	
18558	0	33096	32864	37980	954	0	33012	32663	37970	
18559	0	33092	32880	37968	955	0	33000	32658	37959	
18560	0	33096	32864	37972	956	0	33018	32655	37975	
18561	0	33104	32860	37950	957	0	33028	32647	37971	
18562	0	33098	32864	37944	958	0	33008	32647	37953	
18563	0	33100	32864	37976	959	0	33004	32647	37958	
18564	0	33088	32868	37964	960	0	33008	32647	37950	
18565	0	33096	32864	37976	961	0	33012	32634	37953	
18566	0	33092	32856	37980	962	0	32996	32640	37970	
18567	0	33092	32864	37980	963	0	33030	32636	37974	
18568	0	33089	32860	37988	964	0	33028	32639	37974	
18569	0	33096	32860	37992	965	0	33012	32647	37967	
18570	0	33084	32872	37968	966	0	33034	32647	37939	
18571	0	33100	32864	37964	967	0	33030	32660	37941	
18572	0	33092	32864	37964	968	0	33028	32655	37938	
18573	0	33096	32860	37976	969	0	33012	32645	37938	
18574	0	33080	32868	37964	970	0	33018	32636	37966	
18575	0	33092	32860	37960	971	0	33012	32629	37968	
18576	0	33088	32878	37980	972	0	33022	32635	37959	
18577	0	33072	32882	38004	973	0	33020	32647	37958	
18578	0	33080	32860	37988	974	0	33014	32655	37967	
18579	0	33088	32864	37980	975	0	33012	32647	37964	
18580	0	33088	32872	37984	976	0	33008	32647	37980	
18581	0	33088	32864	37968	977	0	33008	32647	37974	
18582	0	33084	32868	37980	978	0	33010	32647	37968	
18583	0	33088	32862	37976	979	0	33008	32647	37983	
18584	0	33088	32864	37984	980	0	33024	32642	37974	
18585	0	33092	32865	37996	981	0	33028	32639	37978	
18586	0	33088	32880	37968	982	0	33016	32647	37984	
18587	0	33082	32876	37964	983	0	33020	32647	37991	
18588	0	33084	32872	37976	984	0	33030	32643	37959	
18589	0	33084	32873	37974	985	0	33024	32647	37943	
18590	0	33096	32872	37972	986	0	33012	32654	37940	
18591	0	33100	32868	37952	987	0	33016	32647	37948	
18592	0	33104	32872	37968	988	0	33012	32646	37959	
18593	0	33088	32876	37984	989	0	33016	32667	37968	
18594	0	33084	32884	37988	990	0	33008	32642	37967	
18595	0	33088	32864	38000	991	0	33004	32637	37959	
18596	0	33088	32874	37984	992	0	33000	32647	37976	
18597	0	33104	32868	37996	993	0	33000	32639	37981	
18598	0	33096	32868	37992	994	0	33000	32647	37989	
18599	0	33088	32864	37988	995	0	33006	32639	37980	
18600	0	33076	32874	37976	996	0	33001	32647	37971	
18601	0	33092	32864	37984	997	0	33008	32652	37959	
18602	0	33096	32868	37980	998	0	33012	32646	37965	
18603	0	33084	32884	37980	999	0	33030	32642	37977	
18604	0	33084	32892	37980	1000	0	33020	32653	37983	
18605	0	33092	32888	37976	1001	0	33028	32663	37959	
18606	0	33076	32892	37992	1002	0	33020	32663	37972	
18607	0	33088	32884	38004	1003	0	33007	32674	37965	
18608	0	33076	32888	37992	1004	0	33016	32658	37963	
18609	0	33088	32884	37964	1005	0	33019	32660	37958	
18610	0	33084	32884	37960	1006	0	33014	32670	37973	
18611	0	33080	32888	37952	1007	0	33016	32663	37991	
18612	0	33080	32884	37988	1008	0	33020	32660	37983	
18613	0	33084	32880	37993	1009	0	33026	32647	37979	
18614	0	33088	32872	37972	1010	0	33026	32653	37959	
18615	0	33096	32872	37980	1011	0	33025	32647	37965	
18616	0	33100	32864	37976	1012	0	33018	32658	37967	
18617	0	33104	32860	37976	1013	0	33020	32644	37956	
18618	0	33104	32856	37976	1014	0	33016	32639	37959	
18619	0	33088	32880	37976	1015	0	33028	32631	37949	
18620	0	33072	32876	37981	1016	0	33032	32643	37959	
18621	0	33088	32876	37960	1017	0	33036	32647	37956	
18622	0	33084	32884	37968	1018	0	33028	32639	37948	
18623	0	33088	32876	37960	1019	0	33026	32639	37955	
18624	0	33081	32880	37964	1020	0	33012	32647	37944	
18625	0	33068	32881	37972	1021	0	33008	32647	37947	
18626	0	33064	32876	37956	1022	0	33013	32631	37955	
18627	0	33076	32868	37969	1023	0	33005	32641	37948	
18628	0	33082	32876	37952	1024	0	33012	32646	37947	
18629	0	33092	32870	37964	1025	0	33012	32631	37941	
18630	0	33088	32872	37952	1026	0	33014	32644	37934	
18631	0	33080	32884	37956	1027	0	33020	32637	37937	
18632	0	33090	32876	37964	1028	0	33024	32630	37937	
18633	0	33084	32884	37964	1029	0	33028	32628	37927	
18634	0	33096	32876	37964	1030	0	33033	32647	37935	
18635	0	33082	32892	37945	1031	0	33008	32647	37932	
18636	0	33096	32884	37956	1032	0	33012	32658	37965	
18637	0	33088	32884	37960	1033	0	33008	32643	37959	
18638	0	33081	32888	37956	1034	0	32997	32658	37968	
18639	0	33080	32888	37980	1035	0	32996	32663	37995	
18640	0	33088	32900	37974	1036	0	33004	32647	37959	
18641	0	33088	32892	37972	1037	0	32996	32657	37955	
18642	0	33072	32892	37993	1038	0	33012	32664	37946	
18643	0	33064	32880	37976	1039	0	33004	32674	37951	
18644	0	33065	32884	37980	1040	0	33002	32665	37957	
18645	0	33064	32884	37984	1041	0	33006	32675	37950	
18646	0	33072	32884	37968	1042	0	33000	32662	37959	
18647	0	33076	32880	37984	1043	0	33004	32656	37959	
18648	0	33070	32888	37968	1044	0	33008	32660	37954	
18649	0	33088	32874	37968	1045	0	33012	32658	37955	
18650	0	33092	32876	37964	1046	0	32992	32666	37949	
18651	0	33092	32868	37968	1047	0	32996	32668	37971	
18652	0	33088	32880	37958	1048	0	32978	32674	37944	
18653	0	33098	32872	37952	1049	0	32992	32667	37954	
18654	0	33100	32872	37936	1050	0	32992	32675	37946	
18655	0	33104	32864	37960	1051	0	33000	32657	37947	
18656	0	33100	32864	37956	1052	0	32996	32663	37970	
18657	0	33108	32864	37972	1053	0	33000	32647	37969	
18658	0	33088	32876	37976	1054	0	32992	32644	37968	
18659	0	33096	32872	37973	1055	0	32996	32647	37972	
18660	0	33096	32876	37964	1056	0	33001	32658	37951	
18661	0	33100	32872	37960	1057	0	32996	32647	37948	
18662	0	33096	32868	37952	1058	0	32996	32647	37959	
18663	0	33092	32868	37960	1059	0	33006	32644	37959	
18664	0	33088	32870	37964	1060	0	33012	32646	37974	
18665	0	33088	32864	37984	1061	0	33016	32655	37966	
18666	0	33080	32872	37968	1062	0	33010	32659	37952	
18667	0	33088	32868	37952	1063	0	33008	32663	37954	
18668	0	33080	32868	37968	1064	0	33012	32668	37941	
18669	0	33080	32876	37944	1065	0	33004	32671	37945	
18670	0	33088	32868	37944	1066	0	33016	32666	37958	
18671	0	33089	32873	37968	1067	0	33018	32660	37949	
18672	0	33080	32888	37960	1068	0	33016	32647	37959	
18673	0	33080	32880	37976	1069	0	33008	32658	37967	
18674	0	33088	32872	37976	1070	0	32997	32647	37959	
18675	0	33088	32868	37968	1071	0	33004	32647	37965	
18676	0	33080	32872	37964	1072	0	33026	32644	37977	
18677	0	33081	32886	37988	1073	0	33006	32647	37952	
18678	0	33072	32880	37989	1074	0	32996	32647	37935	
18679	0	33084	32868	37996	1075	0	32988	32634	37959	
18680	0	33088	32864	37956	1076	0	32996	32639	37959	
18681	0	33096	32854	37972	1077	0	33004	32629	37959	
18682	0	33092	32868	37972	1078	0	33010	32639	37970	
18683	0	33104	32872	37988	1079	0	33044	32637	37986	
18684	0	33092	32872	37984	1080	0	33032	32630	37963	
18685	0	33092	32872	37985	1081	0	33014	32647	37955	
18686	0	33084	32868	37984	1082	0	33000	32647	37954	
18687	0	33092	32860	37984	1083	0	32994	32658	37947	
18688	0	33097	32868	37972	1084	0	33000	32663	37969	
18689	0	33105	32872	37968	1085	0	33012	32662	37988	
18690	0	33096	32868	37972	1086	0	33018	32660	37983	
18691	0	33088	32868	37964	1087	0	33018	32642	37983	
18692	0	33084	32868	37980	1088	0	33020	32640	37982	
18693	0	33092	32860	37962	1089	0	33024	32646	37980	
18694	0	33088	32878	37962	1090	0	33024	32646	37990	
18695	0	33084	32876	37964	1091	0	33028	32643	37961	
18696	0	33080	32878	37936	1092	0	33036	32642	37956	
18697	0	33080	32876	37964	1093	0	33042	32631	37948	
18698	0	33088	32884	37984	1094	0	33032	32621	37959	
18699	0	33088	32872	37976	1095	0	33020	32630	37968	
18700	0	33096	32872	37981	1096	0	33020	32642	37990	
18701	0	33094	32869	37968	1097	0	33008	32644	37975	
18702	0	33100	32862	37984	1098	0	33004	32647	37971	
18703	0	33096	32876	37992	1099	0	32998	32647	37968	
18704	0	33104	32876	37984	1100	0	32986	32660	37959	
18705	0	33098	32868	37974	1101	0	32996	32642	37951	
18706	0	33096	32864	38000	1102	0	33001	32640	37959	
18707	0	33088	32864	38024	1103	0	33014	32647	37965	
18708	0	33088	32868	37992	1104	0	33010	32665	37968	
18709	0	33100	32856	38000	1105	0	33008	32647	37959	
18710	0	33100	32866	38008	1106	0	33016	32658	37962	
18711	0	33096	32862	37978	1107	0	33020	32647	37983	
18712	0	33096	32872	37968	1108	0	33024	32632	37972	
18713	0	33088	32872	37960	1109	0	33012	32643	37966	
18714	0	33088	32872	37956	1110	0	33016	32663	37960	
18715	0	33088	32872	37956	1111	0	33009	32667	37996	
18716	0	33076	32872	37956	1112	0	33024	32665	37972	
18717	0	33096	32868	37956	1113	0	33028	32647	37980	
18718	0	33088	32864	37968	1114	0	33029	32647	37957	
18719	0	33092	32864	37980	1115	0	33018	32644	37944	
18720	0	33084	32869	37960	1116	0	33021	32647	37959	
18721	0	33096	32868	37960	1117	0	33005	32647	37962	
18722	0	33082	32888	37976	1118	0	33012	32647	37983	
18723	0	33074	32874	37992	1119	0	33016	32647	37986	
18724	0	33072	32864	37980	1120	0	33008	32655	37956	
18725	0	33072	32860	37964	1121	0	33007	32658	37972	
18726	0	33084	32858	37952	1122	0	33008	32662	37959	
18727	0	33088	32860	37956	1123	0	33014	32639	37954	
18728	0	33088	32852	37972	1124	0	33016	32647	37945	
18729	0	33088	32856	37980	1125	0	33004	32661	37948	
18730	0	33088	32856	37989	1126	0	33012	32658	37959	
18731	0	33080	32864	37968	1127	0	33014	32660	37959	
18732	0	33088	32852	37992	1128	0	33018	32647	37983	
18733	0	33100	32860	37988	1129	0	33016	32647	37980	
18734	0	33080	32868	37996	1130	0	33020	32657	37973	
18735	0	33084	32860	38000	1131	0	33021	32655	37975	
18736	0	33088	32864	37984	1132	0	33039	32647	37972	
18737	0	33100	32860	37972	1133	0	33030	32656	37977	
18738	0	33090	32864	37960	1134	0	33036	32654	37946	
18739	0	33096	32866	37972	1135	0	33025	32647	37949	
18740	0	33112	32860	37980	1136	0	33020	32647	37985	
18741	0	33096	32864	37948	1137	0	33033	32630	37974	
18742	0	33100	32865	37960	1138	0	33017	32637	37975	
18743	0	33084	32873	37964	1139	0	33024	32639	37985	
18744	0	33077	32864	37944	1140	0	33024	32645	37984	
18745	0	33084	32860	37964	1141	0	33024	32634	37970	
18746	0	33088	32848	37962	1142	0	33024	32641	37974	
18747	0	33084	32856	37980	1143	0	33024	32647	37975	
18748	0	33096	32858	37996	1144	0	33016	32647	37950	
18749	0	33088	32860	37968	1145	0	33012	32647	37964	
18750	0	33092	32852	37956	1146	0	33012	32647	37959	
18751	0	33092	32849	37972	1147	0	33026	32638	37962	
18752	0	33088	32864	37965	1148	0	33024	32638	37953	
18753	0	33076	32865	37976	1149	0	33024	32637	37959	
18754	0	33080	32872	37976	1150	0	33012	32663	37970	
18755	0	33088	32876	37972	1151	0	33002	32662	37959	
18756	0	33092	32880	37974	1152	0	32996	32658	37959	
18757	0	33090	32880	37996	1153	0	33011	32653	37970	
18758	0	33088	32876	37980	1154	0	33022	32654	37954	
18759	0	33092	32872	37972	1155	0	33012	32666	37933	
18760	0	33096	32868	37944	1156	0	33014	32644	37952	
18761	0	33088	32874	37972	1157	0	33008	32647	37957	
18762	0	33084	32864	37972	1158	0	33018	32635	37957	
18763	0	33084	32868	37968	1159	0	33008	32642	37946	
18764	0	33068	32866	37980	1160	0	33008	32642	37959	
18765	0	33076	32860	37988	1161	0	32998	32647	37966	
18766	0	33080	32860	37980	1162	0	32988	32646	37958	
18767	0	33080	32861	37984	1163	0	32992	32647	37964	
18768	0	33096	32864	37980	1164	0	33000	32647	37966	
18769	0	33096	32860	37960	1165	0	32998	32647	37976	
18770	0	33092	32864	37964	1166	0	33008	32655	37974	
18771	0	33088	32868	37964	1167	0	33012	32664	37980	
18772	0	33092	32868	37976	1168	0	33024	32661	37976	
18773	0	33096	32864	37972	1169	0	33036	32647	37952	
18774	0	33098	32874	37968	1170	0	33032	32658	37972	
18775	0	33092	32888	37965	1171	0	33040	32647	37954	
18776	0	33088	32878	37984	1172	0	33020	32660	37958	
18777	0	33092	32882	37972	1173	0	33008	32665	37968	
18778	0	33088	32894	37964	1174	0	33010	32666	37964	
18779	0	33088	32884	37974	1175	0	33013	32662	37959	
18780	0	33076	32892	37964	1176	0	33017	32646	37975	
18781	0	33088	32888	37968	1177	0	33020	32645	37970	
18782	0	33072	32889	37976	1178	0	33028	32647	37967	
18783	0	33088	32876	37984	1179	0	33018	32652	37955	
18784	0	33088	32880	37976	1180	0	32997	32663	37956	
18785	0	33088	32872	37984	1181	0	33008	32663	37990	
18786	0	33073	32876	37988	1182	0	33006	32658	37969	
18787	0	33076	32880	37984	1183	0	32994	32647	37973	
18788	0	33092	32878	37980	1184	0	33008	32647	37954	
18789	0	33088	32876	37996	1185	0	33016	32647	37938	
18790	0	33088	32880	37980	1186	0	33012	32647	37968	
18791	0	33096	32870	37984	1187	0	33020	32654	37971	
18792	0	33092	32876	37980	1188	0	33012	32659	37983	
18793	0	33088	32864	37972	1189	0	33004	32662	37971	
18794	0	33072	32860	37980	1190	0	33016	32642	37974	
18795	0	33072	32864	37964	1191	0	33017	32643	37988	
18796	0	33088	32852	37992	1192	0	32992	32659	37949	
18797	0	33088	32868	37984	1193	0	33008	32647	37956	
18798	0	33096	32868	37988	1194	0	33016	32640	37947	
18799	0	33088	32872	38004	1195	0	33020	32647	37949	
18800	0	33098	32872	38004	1196	0	33012	32658	37942	
18801	0	33096	32874	37984	1197	0	33015	32647	37952	
18802	0	33076	32880	37984	1198	0	33020	32657	37972	
18803	0	33088	32880	37982	1199	0	33014	32660	37964	
18804	0	33088	32881	37972	1200	0	33029	32652	37959	
18805	0	33088	32880	37996	1201	0	33012	32665	37990	
18806	0	33096	32870	38005	1202	0	33001	32659	37994	
18807	0	33088	32868	38000	1203	0	32997	32658	37996	
18808	0	33100	32869	37984	1204	0	33000	32659	37979	
18809	0	33092	32866	37980	1205	0	33016	32655	37995	
18810	0	33088	32886	37980	1206	0	33024	32655	37999	
18811	0	33084	32894	38001	1207	0	33027	32644	37998	
18812	0	33088	32872	38004	1208	0	33031	32654	37981	
18813	0	33085	32872	37992	1209	0	33024	32643	37972	
18814	0	33084	32864	37976	1210	0	33024	32655	37959	
18815	0	33096	32856	37988	1211	0	33024	32656	37947	
18816	0	33096	32844	37964	1212	0	33016	32663	37951	
18817	0	33100	32858	37948	1213	0	33010	32647	37944	
18818	0	33092	32852	37956	1214	0	33008	32647	37935	
18819	0	33092	32848	37960	1215	0	33024	32638	37935	
18820	0	33096	32860	37992	1216	0	33022	32657	37935	
18821	0	33104	32848	37984	1217	0	33020	32658	37942	
18822	0	33096	32856	37976	1218	0	33020	32643	37954	
18823	0	33096	32864	37964	1219	0	33028	32634	37968	
18824	0	33084	32864	37952	1220	0	33010	32645	37988	
18825	0	33080	32856	37972	1221	0	33028	32629	37968	
18826	0	33080	32860	37964	1222	0	33010	32647	37966	
18827	0	33080	32868	37976	1223	0	33000	32658	37984	
18828	0	33088	32864	37972	1224	0	33008	32647	37959	
18829	0	33076	32860	37976	1225	0	33010	32658	37970	
18830	0	33072	32852	37972	1226	0	33016	32659	37974	
18831	0	33088	32860	37972	1227	0	32999	32682	37951	
18832	0	33076	32868	37976	1228	0	33006	32663	37974	
18833	0	33072	32872	37972	1229	0	33004	32647	37968	
18834	0	33080	32872	37972	1230	0	33012	32656	37985	
18835	0	33080	32868	37972	1231	0	33004	32666	37975	
18836	0	33084	32864	37972	1232	0	33012	32647	37986	
18837	0	33088	32864	37972	1233	0	33013	32647	37976	
18838	0	33088	32868	37976	1234	0	33022	32647	37979	
18839	0	33092	32864	37968	1235	0	33016	32647	37991	
18840	0	33084	32872	37976	1236	0	33008	32645	37988	
18841	0	33084	32864	37984	1237	0	32998	32635	37986	
18842	0	33080	32872	37980	1238	0	33006	32642	37991	
18843	0	33076	32876	37992	1239	0	33010	32642	37998	
18844	0	33080	32866	37984	1240	0	33024	32631	37984	
18845	0	33080	32853	37984	1241	0	33026	32645	37959	
18846	0	33092	32864	37976	1242	0	33020	32647	37972	
18847	0	33092	32868	37972	1243	0	32996	32647	37988	
18848	0	33080	32860	37996	1244	0	33008	32647	37972	
18849	0	33088	32856	38000	1245	0	33014	32646	37975	
18850	0	33084	32868	37996	1246	0	33000	32647	37959	
18851	0	33092	32868	38000	1247	0	33023	32647	37944	
18852	0	33088	32872	37968	1248	0	33016	32639	37966	
18853	0	33096	32860	37976	1249	0	33021	32642	37956	
18854	0	33080	32860	37976	1250	0	33020	32631	37938	
18855	0	33088	32872	37964	1251	0	33010	32632	37932	
18856	0	33096	32856	37992	1252	0	33020	32634	37933	
18857	0	33088	32865	37964	1253	0	33013	32647	37928	
18858	0	33084	32872	37976	1254	0	33018	32639	37953	
18859	0	33092	32876	37972	1255	0	33010	32647	37968	
18860	0	33088	32872	37968	1256	0	33010	32644	37975	
18861	0	33084	32861	37972	1257	0	33020	32637	37959	
18862	0	33096	32856	37956	1258	0	33016	32646	37947	
18863	0	33088	32856	37956	1259	0	33018	32643	37943	
18864	0	33080	32848	37956	1260	0	33008	32647	37953	
18865	0	33080	32848	37956	1261	0	33016	32656	37964	
18866	0	33072	32864	37972	1262	0	33024	32642	37974	
18867	0	33084	32856	37976	1263	0	33018	32639	37988	
18868	0	33084	32880	37964	1264	0	33028	32633	37983	
18869	0	33080	32872	37972	1265	0	33016	32637	37986	
18870	0	33076	32880	37956	1266	0	33010	32646	37959	
18871	0	33088	32872	37972	1267	0	33004	32647	37968	
18872	0	33076	32872	37968	1268	0	33012	32661	37970	
18873	0	33084	32874	37964	1269	0	32996	32647	37980	
18874	0	33104	32864	37984	1270	0	32997	32647	37989	
18875	0	33100	32864	37984	1271	0	32992	32660	37966	
18876	0	33080	32868	37988	1272	0	32997	32647	37951	
18877	0	33072	32872	37952	1273	0	33008	32646	37938	
18878	0	33076	32884	37968	1274	0	33004	32647	37927	
18879	0	33072	32884	37972	1275	0	33014	32645	37937	
18880	0	33080	32882	37984	1276	0	33026	32647	37943	
18881	0	33064	32896	37976	1277	0	33016	32642	37965	
18882	0	33064	32900	37960	1278	0	33012	32646	37945	
18883	0	33064	32900	37968	1279	0	33013	32642	37949	
18884	0	33068	32888	37988	1280	0	33004	32655	37940	
18885	0	33072	32888	37984	1281	0	33004	32654	37948	
18886	0	33084	32872	37976	1282	0	32997	32647	37954	
18887	0	33092	32868	37976	1283	0	33001	32647	37974	
18888	0	33104	32864	37968	1284	0	33004	32647	37969	
18889	0	33088	32880	37980	1285	0	33008	32646	37967	
18890	0	33088	32872	37976	1286	0	33007	32647	37956	
18891	0	33088	32868	37984	1287	0	33018	32647	37928	
18892	0	33084	32876	37984	1288	0	33020	32642	37942	
18893	0	33088	32868	37980	1289	0	33016	32660	37961	
18894	0	33080	32876	37964	1290	0	33024	32646	37959	
18895	0	33076	32872	37984	1291	0	33012	32647	37974	
18896	0	33092	32864	38004	1292	0	33010	32647	37964	
18897	0	33096	32868	37976	1293	0	33024	32647	37959	
18898	0	33092	32872	37992	1294	0	33018	32647	37956	
18899	0	33096	32864	37962	1295	0	33010	32644	37946	
18900	0	33100	32856	37964	1296	0	33008	32647	37951	
18901	0	33096	32868	37956	1297	0	33002	32647	37959	
18902	0	33098	32864	37946	1298	0	33004	32647	37959	
18903	0	33092	32868	37968	1299	0	33012	32647	37989	
18904	0	33100	32864	37980	1300	0	33004	32647	37964	
18905	0	33084	32864	37988	1301	0	33004	32646	37970	
18906	0	33088	32864	37972	1302	0	33012	32662	37955	
18907	0	33100	32860	37960	1303	0	33024	32647	37959	
18908	0	33104	32864	37976	1304	0	33020	32647	37967	
18909	0	33100	32872	37972	1305	0	33024	32647	37953	
18910	0	33092	32868	37968	1306	0	33024	32647	37959	
18911	0	33100	32856	37953	1307	0	33020	32647	37943	
18912	0	33108	32856	37980	1308	0	33016	32634	37942	
18913	0	33120	32860	37976	1309	0	33021	32627	37941	
18914	0	33124	32858	37956	1310	0	33028	32639	37947	
18915	0	33120	32865	37957	1311	0	33036	32628	37959	
18916	0	33104	32864	37960	1312	0	33028	32641	37950	
18917	0	33108	32860	37972	1313	0	33026	32646	37958	
18918	0	33104	32868	37970	1314	0	33017	32646	37950	
18919	0	33100	32866	37948	1315	0	33014	32657	37968	
18920	0	33100	32868	37968	1316	0	33004	32656	37972	
18921	0	33104	32872	37988	1317	0	33016	32667	37981	
18922	0	33104	32880	37996	1318	0	33032	32647	37992	
18923	0	33100	32880	37988	1319	0	33016	32663	37983	
18924	0	33096	32892	37981	1320	0	33026	32658	37983	
18925	0	33088	32868	37956	1321	0	33016	32669	37983	
18926	0	33080	32876	37976	1322	0	33020	32671	37993	
18927	0	33096	32860	37968	1323	0	33018	32660	37983	
18928	0	33092	32868	37984	1324	0	33016	32654	37959	
18929	0	33089	32872	37996	1325	0	33012	32655	37938	
18930	0	33104	32876	37976	1326	0	33020	32647	37948	
18931	0	33096	32872	37976	1327	0	33030	32647	37936	
18932	0	33096	32884	37972	1328	0	33041	32647	37947	
18933	0	33085	32876	37952	1329	0	33018	32656	37932	
18934	0	33084	32872	37956	1330	0	33040	32644	37949	
18935	0	33082	32873	37956	1331	0	33026	32663	37926	
18936	0	33088	32864	37984	1332	0	33010	32657	37933	
18937	0	33088	32868	37968	1333	0	33007	32655	37948	
18938	0	33088	32868	37988	1334	0	33024	32644	37931	
18939	0	33088	32888	37976	1335	0	33021	32636	37940	
18940	0	33088	32888	37960	1336	0	33016	32647	37966	
18941	0	33092	32894	37966	1337	0	33028	32647	37985	
18942	0	33088	32892	37988	1338	0	33030	32647	37999	
18943	0	33100	32888	37972	1339	0	33012	32656	37997	
18944	0	33096	32876	37952	1340	0	33012	32647	37989	
18945	0	33088	32880	37972	1341	0	33004	32659	37975	
18946	0	33076	32877	37968	1342	0	33008	32662	37959	
18947	0	33092	32896	37952	1343	0	33004	32663	37959	
18948	0	33084	32892	37964	1344	0	33014	32647	37971	
18949	0	33084	32900	37952	1345	0	33004	32647	37967	
18950	0	33100	32884	37956	1346	0	33016	32647	37990	
18951	0	33088	32878	37980	1347	0	33008	32656	37999	
18952	0	33092	32880	37972	1348	0	33012	32647	38011	
18953	0	33088	32880	37984	1349	0	33018	32647	37990	
18954	0	33104	32878	37996	1350	0	33008	32655	37989	
18955	0	33096	32876	37976	1351	0	33000	32658	37966	
18956	0	33088	32876	37976	1352	0	32996	32647	37965	
18957	0	33100	32888	37948	1353	0	32992	32661	37976	
18958	0	33088	32876	37946	1354	0	33004	32661	37981	
18959	0	33084	32880	37948	1355	0	33012	32647	37968	
18960	0	33080	32884	37964	1356	0	33018	32654	37959	
18961	0	33076	32884	37972	1357	0	33012	32647	37955	
18962	0	33076	32884	37988	1358	0	33022	32647	37956	
18963	0	33092	32880	37984	1359	0	33017	32647	37974	
18964	0	33084	32892	37980	1360	0	33004	32655	37990	
18965	0	33088	32880	37977	1361	0	33000	32669	38016	
18966	0	33076	32880	37988	1362	0	33008	32667	37985	
18967	0	33092	32872	37984	1363	0	33022	32665	37976	
18968	0	33092	32880	37996	1364	0	33000	32679	37959	
18969	0	33092	32876	37992	1365	0	32992	32679	37970	
18970	0	33080	32885	37996	1366	0	33000	32658	37991	
18971	0	33092	32884	37981	1367	0	32992	32663	37991	
18972	0	33092	32880	37988	1368	0	33000	32647	37988	
18973	0	33092	32864	38004	1369	0	33000	32647	37991	
18974	0	33100	32864	37977	1370	0	33000	32663	37984	
18975	0	33100	32876	37968	1371	0	33008	32660	37972	
18976	0	33092	32868	37952	1372	0	33014	32658	37954	
18977	0	33088	32872	37952	1373	0	32996	32668	37951	
18978	0	33080	32870	37948	1374	0	33012	32658	37937	
18979	0	33096	32860	37964	1375	0	33012	32666	37940	
18980	0	33084	32864	37988	1376	0	32996	32664	37943	
18981	0	33080	32860	37964	1377	0	33000	32654	37959	
18982	0	33072	32864	37980	1378	0	32992	32647	37960	
18983	0	33064	32868	37984	1379	0	33004	32647	37975	
18984	0	33072	32876	37988	1380	0	32992	32647	37957	
18985	0	33080	32868	37996	1381	0	32996	32647	37951	
18986	0	33084	32876	37984	1382	0	33000	32640	37952	
18987	0	33084	32876	37980	1383	0	32988	32657	37928	
18988	0	33096	32856	37992	1384	0	32992	32656	37940	
18989	0	33092	32864	37980	1385	0	32989	32663	37946	
18990	0	33088	32864	37972	1386	0	32982	32678	37970	
18991	0	33084	32872	37988	1387	0	33012	32658	37959	
18992	0	33092	32868	37984	1388	0	33012	32668	37959	
18993	0	33088	32868	38004	1389	0	33016	32657	37947	
18994	0	33096	32860	37980	1390	0	33008	32647	37935	
18995	0	33092	32856	37972	1391	0	33014	32647	37941	
18996	0	33080	32856	37968	1392	0	32998	32647	37959	
18997	0	33080	32868	37972	1393	0	33005	32642	37948	
18998	0	33080	32864	37964	1394	0	33008	32639	37950	
18999	0	33084	32861	37969	1395	0	33008	32642	37956	
19000	0	33082	32872	37976	1396	0	33028	32639	37970	
19001	0	33076	32872	37972	1397	0	33016	32634	37972	
19002	0	33084	32872	37988	1398	0	33036	32634	37959	
19003	0	33076	32888	37992	1399	0	33020	32631	37942	
19004	0	33072	32872	37984	1400	0	33028	32639	37937	
19005	0	33078	32870	38000	1401	0	33024	32633	37951	
19006	0	33080	32876	38012	1402	0	33012	32647	37954	
19007	0	33092	32876	37988	1403	0	33012	32641	37981	
19008	0	33096	32868	37996	1404	0	33016	32645	37959	
19009	0	33100	32872	37992	1405	0	33012	32647	37959	
19010	0	33088	32872	37972	1406	0	33013	32669	37958	
19011	0	33080	32868	37976	1407	0	33018	32658	37951	
19012	0	33092	32868	37965	1408	0	33014	32657	37953	
19013	0	33092	32864	37980	1409	0	33016	32659	37935	
19014	0	33100	32856	37984	1410	0	33000	32658	37944	
19015	0	33098	32860	37988	1411	0	33004	32659	37958	
19016	0	33076	32858	37973	1412	0	33002	32658	37960	
19017	0	33084	32852	37960	1413	0	33000	32647	37973	
19018	0	33084	32828	37976	1414	0	33000	32643	37972	
19019	0	33088	32854	37968	1415	0	33008	32639	37975	
19020	0	33088	32868	37980	1416	0	33008	32639	37970	
19021	0	33088	32856	37992	1417	0	33004	32647	37983	
19022	0	33088	32853	37980	1418	0	33004	32645	37977	
19023	0	33076	32860	37988	1419	0	33006	32642	37968	
19024	0	33084	32874	37976	1420	0	33008	32647	37964	
19025	0	33088	32884	37968	1421	0	33000	32647	37963	
19026	0	33088	32872	37972	1422	0	33012	32640	37955	
19027	0	33098	32872	37968	1423	0	33012	32647	37941	
19028	0	33100	32860	37984	1424	0	33010	32647	37952	
19029	0	33081	32872	37980	1425	0	33020	32647	37963	
19030	0	33080	32872	37952	1426	0	33010	32666	37964	
19031	0	33072	32877	37972	1427	0	33016	32669	37970	
19032	0	33082	32878	37984	1428	0	33012	32669	37971	
19033	0	33080	32870	38001	1429	0	33018	32662	37974	
19034	0	33072	32859	37989	1430	0	33000	32668	37949	
19035	0	33080	32852	37996	1431	0	32992	32663	37956	
19036	0	33084	32864	38004	1432	0	33006	32654	37952	
19037	0	33064	32864	38016	1433	0	33004	32655	37974	
19038	0	33072	32876	38016	1434	0	33018	32647	37978	
19039	0	33068	32874	37988	1435	0	33004	32659	38011	
19040	0	33084	32876	37988	1436	0	33000	32663	38002	
19041	0	33088	32884	37992	1437	0	33001	32670	37991	
19042	0	33084	32888	38004	1438	0	33004	32671	37980	
19043	0	33088	32885	37968	1439	0	32999	32654	37998	
19044	0	33076	32876	37980	1440	0	33004	32647	37974	
19045	0	33080	32864	37980	1441	0	33004	32658	37975	
19046	0	33088	32852	37977	1442	0	33006	32663	37991	
19047	0	33072	32876	37972	1443	0	32993	32658	38004	
19048	0	33072	32880	37980	1444	0	32996	32657	37971	
19049	0	33088	32880	37984	1445	0	32994	32659	37951	
19050	0	33072	32888	37984	1446	0	33007	32669	37959	
19051	0	33076	32892	37960	1447	0	33010	32662	37983	
19052	0	33072	32884	37944	1448	0	33008	32669	37990	
19053	0	33076	32884	37968	1449	0	33016	32657	37987	
19054	0	33068	32893	37968	1450	0	33024	32647	37989	
19055	0	33064	32900	37964	1451	0	33018	32647	37975	
19056	0	33072	32896	37980	1452	0	33010	32660	37974	
19057	0	33056	32896	37964	1453	0	32996	32678	37988	
19058	0	33072	32886	37952	1454	0	33000	32679	37969	
19059	0	33076	32880	37960	1455	0	32998	32673	37973	
19060	0	33092	32864	37972	1456	0	33004	32681	37978	
19061	0	33104	32868	37976	1457	0	32988	32679	37980	
19062	0	33100	32872	37960	1458	0	33008	32675	37974	
19063	0	33104	32864	37952	1459	0	33028	32667	37956	
19064	0	33108	32872	37968	1460	0	33024	32668	37952	
19065	0	33104	32872	37984	1461	0	33036	32659	37959	
19066	0	33104	32864	37988	1462	0	33032	32655	37938	
19067	0	33100	32876	37976	1463	0	33024	32655	37937	
19068	0	33096	32876	37980	1464	0	33014	32656	37949	
19069	0	33084	32884	37968	1465	0	33004	32655	37972	
19070	0	33096	32880	37976	1466	0	33004	32654	37979	
19071	0	33096	32880	37980	1467	0	33005	32647	37973	
19072	0	33084	32884	37960	1468	0	33004	32656	37972	
19073	0	33088	32892	37960	1469	0	33008	32656	37990	
19074	0	33092	32890	37968	1470	0	33008	32659	37982	
19075	0	33092	32880	37956	1471	0	33000	32655	37980	
19076	0	33088	32888	37953	1472	0	33008	32655	37991	
19077	0	33076	32885	37960	1473	0	33020	32647	37975	
19078	0	33088	32882	37973	1474	0	33016	32647	37970	
19079	0	33088	32868	37973	1475	0	33010	32647	37953	
19080	0	33088	32864	37972	1476	0	33006	32647	37958	
19081	0	33092	32868	37960	1477	0	32996	32671	37945	
19082	0	33092	32868	37972	1478	0	33004	32662	37959	
19083	0	33092	32880	37944	1479	0	33010	32662	37943	
19084	0	33104	32868	37956	1480	0	33012	32647	37949	
19085	0	33104	32860	37952	1481	0	33020	32661	37970	
19086	0	33116	32864	37944	1482	0	33016	32660	37964	
19087	0	33120	32860	37932	1483	0	33031	32652	37978	
19088	0	33108	32878	37932	1484	0	33028	32647	37990	
19089	0	33092	32884	37938	1485	0	33032	32659	37966	
19090	0	33116	32872	37972	1486	0	33021	32646	37959	
19091	0	33100	32880	37988	1487	0	33021	32647	37968	
19092	0	33084	32864	37984	1488	0	33012	32644	37959	
19093	0	33084	32868	37984	1489	0	33004	32655	37956	
19094	0	33088	32876	37976	1490	0	33008	32645	37965	
19095	0	33088	32868	38000	1491	0	33004	32647	37967	
19096	0	33092	32876	37984	1492	0	33012	32653	37947	
19097	0	33084	32872	37972	1493	0	33014	32662	37953	
19098	0	33092	32868	37964	1494	0	33017	32655	37959	
19099	0	33084	32872	37940	1495	0	33020	32647	37956	
19100	0	33088	32864	37972	1496	0	33020	32647	37947	
19101	0	33088	32868	37964	1497	0	33015	32647	37940	
19102	0	33088	32866	37960	1498	0	33032	32647	37941	
19103	0	33088	32884	37965	1499	0	33016	32655	37941	
19104	0	33100	32868	37944	1500	0	33004	32642	37926	
19105	0	33096	32861	37952	1501	0	33013	32641	37933	
19106	0	33104	32864	37948	1502	0	33005	32643	37952	
19107	0	33096	32872	37944	1503	0	33004	32655	37956	
19108	0	33092	32880	37978	1504	0	33022	32637	37970	
19109	0	33088	32880	37984	1505	0	33016	32641	37959	
19110	0	33088	32868	38004	1506	0	33004	32658	37970	
19111	0	33082	32860	38028	1507	0	33000	32647	37970	
19112	0	33080	32864	38021	1508	0	32996	32658	37976	
19113	0	33088	32868	38000	1509	0	32996	32642	37959	
19114	0	33072	32864	37984	1510	0	33012	32647	37978	
19115	0	33084	32862	37980	1511	0	33004	32647	37990	
19116	0	33088	32856	37984	1512	0	33020	32639	37986	
19117	0	33088	32846	37980	1513	0	33025	32645	37966	
19118	0	33088	32844	38004	1514	0	33016	32654	37959	
19119	0	33092	32848	37992	1515	0	33017	32647	37975	
19120	0	33112	32840	37984	1516	0	33016	32634	37988	
19121	0	33108	32842	37980	1517	0	33020	32638	37974	
19122	0	33108	32848	37980	1518	0	33028	32638	37980	
19123	0	33116	32857	37972	1519	0	33024	32626	37985	
19124	0	33098	32860	37976	1520	0	33024	32635	37986	
19125	0	33092	32868	37960	1521	0	33024	32631	37953	
19126	0	33092	32864	37968	1522	0	33016	32646	37953	
19127	0	33088	32868	37976	1523	0	33030	32635	37955	
19128	0	33096	32868	37972	1524	0	33008	32647	37949	
19129	0	33088	32856	37984	1525	0	33022	32634	37949	
19130	0	33084	32868	37968	1526	0	33016	32637	37953	
19131	0	33100	32856	37956	1527	0	33008	32642	37951	
19132	0	33084	32879	37956	1528	0	33012	32630	37954	
19133	0	33096	32865	37968	1529	0	33008	32647	37954	
19134	0	33088	32869	37976	1530	0	33000	32647	37953	
19135	0	33084	32880	37964	1531	0	33004	32657	37943	
19136	0	33090	32880	37984	1532	0	33004	32662	37926	
19137	0	33092	32877	37980	1533	0	33020	32647	37943	
19138	0	33080	32872	38000	1534	0	33012	32642	37945	
19139	0	33088	32856	38008	1535	0	33028	32647	37955	
19140	0	33088	32861	37976	1536	0	33021	32642	37959	
19141	0	33084	32868	37972	1537	0	33036	32647	37959	
19142	0	33088	32864	37984	1538	0	33028	32647	37952	
19143	0	33096	32868	37996	1539	0	33020	32647	37946	
19144	0	33088	32864	38010	1540	0	33004	32657	37957	
19145	0	33088	32852	37965	1541	0	33000	32671	37986	
19146	0	33088	32860	37992	1542	0	32996	32658	37972	
19147	0	33088	32864	37984	1543	0	33000	32660	37977	
19148	0	33088	32860	37980	1544	0	33012	32647	37959	
19149	0	33076	32864	37968	1545	0	33006	32639	37965	
19150	0	33084	32860	37976	1546	0	33001	32647	37959	
19151	0	33084	32868	37992	1547	0	33012	32638	37936	
19152	0	33068	32856	37988	1548	0	33008	32647	37946	
19153	0	33092	32864	37988	1549	0	33012	32657	37932	
19154	0	33104	32864	37980	1550	0	33004	32655	37959	
19155	0	33104	32872	37960	1551	0	33008	32657	37988	
19156	0	33092	32864	37976	1552	0	33016	32646	37974	
19157	0	33096	32876	37968	1553	0	33004	32647	37972	
19158	0	33092	32872	37976	1554	0	33004	32656	37995	
19159	0	33092	32864	37960	1555	0	33000	32654	37978	
19160	0	33096	32876	37976	1556	0	32996	32663	37975	
19161	0	33102	32896	37972	1557	0	33006	32663	37946	
19162	0	33092	32892	37972	1558	0	32996	32658	37967	
19163	0	33096	32878	37980	1559	0	33006	32647	37988	
19164	0	33092	32864	37992	1560	0	33016	32647	37981	
19165	0	33096	32868	37984	1561	0	32996	32658	37991	
19166	0	33092	32870	37968	1562	0	33000	32665	37984	
19167	0	33092	32877	37992	1563	0	33010	32644	37974	
19168	0	33088	32864	38020	1564	0	33004	32645	37951	
19169	0	33088	32866	37988	1565	0	33005	32658	37948	
19170	0	33104	32872	37984	1566	0	32992	32665	37938	
19171	0	33092	32884	37985	1567	0	33008	32647	37944	
19172	0	33108	32864	37976	1568	0	33004	32640	37955	
19173	0	33100	32865	37976	1569	0	33016	32647	37959	
19174	0	33088	32872	37976	1570	0	33020	32645	37971	
19175	0	33088	32882	37988	1571	0	33016	32642	37959	
19176	0	33088	32872	37993	1572	0	33008	32644	37959	
19177	0	33088	32868	37968	1573	0	33004	32642	37935	
19178	0	33092	32880	37990	1574	0	32997	32646	37942	
19179	0	33092	32878	37988	1575	0	32996	32659	37942	
19180	0	33088	32884	37968	1576	0	33008	32654	37947	
19181	0	33100	32872	37952	1577	0	33014	32647	37959	
19182	0	33096	32882	37938	1578	0	33017	32647	37965	
19183	0	33092	32868	37948	1579	0	33016	32668	37959	
19184	0	33080	32869	37948	1580	0	33004	32671	37948	
19185	0	33072	32864	37936	1581	0	33012	32658	37943	
19186	0	33072	32856	37956	1582	0	33008	32671	37959	
19187	0	33072	32864	37944	1583	0	33010	32672	37946	
19188	0	33060	32872	37964	1584	0	33012	32666	37954	
19189	0	33064	32880	37984	1585	0	33018	32656	37967	
19190	0	33072	32872	37984	1586	0	33019	32647	37959	
19191	0	33072	32892	37984	1587	0	33018	32646	37937	
19192	0	33076	32880	38004	1588	0	33008	32647	37956	
19193	0	33084	32865	37984	1589	0	33008	32647	37959	
19194	0	33088	32872	37980	1590	0	33034	32634	37949	
19195	0	33092	32876	37968	1591	0	33028	32644	37939	
19196	0	33088	32888	37968	1592	0	33024	32644	37933	
19197	0	33092	32884	37986	1593	0	33024	32656	37935	
19198	0	33092	32880	37976	1594	0	33012	32658	37959	
19199	0	33096	32884	37972	1595	0	33026	32660	37977	
19200	0	33108	32872	37968	1596	0	33024	32647	37990	
19201	0	33096	32869	37984	1597	0	33028	32639	37959	
19202	0	33092	32872	37988	1598	0	33020	32662	37959	
19203	0	33097	32876	37988	1599	0	33010	32658	37945	
19204	0	33088	32873	37988	1600	0	33009	32663	37958	
19205	0	33088	32872	37988	1601	0	33028	32642	37973	
19206	0	33096	32872	37984	1602	0	33030	32646	37968	
19207	0	33096	32864	37988	1603	0	33031	32644	37980	
19208	0	33096	32866	37980	1604	0	33025	32645	37986	
19209	0	33090	32860	37980	1605	0	33021	32655	37970	
19210	0	33096	32872	38004	1606	0	33036	32647	37967	
19211	0	33101	32872	37992	1607	0	33035	32647	37975	
19212	0	33092	32876	37992	1608	0	33028	32662	37958	
19213	0	33084	32884	37980	1609	0	33028	32647	37944	
19214	0	33088	32880	37978	1610	0	33024	32642	37952	
19215	0	33084	32884	37976	1611	0	33032	32642	37950	
19216	0	33088	32864	38000	1612	0	33028	32647	37947	
19217	0	33088	32868	37996	1613	0	33028	32640	37941	
19218	0	33080	32864	37960	1614	0	33024	32645	37941	
19219	0	33076	32872	37936	1615	0	33020	32647	37947	
19220	0	33080	32884	37960	1616	0	33018	32637	37947	
19221	0	33080	32880	37960	1617	0	33018	32636	37953	
19222	0	33089	32868	37952	1618	0	33004	32654	37956	
19223	0	33088	32870	37944	1619	0	33016	32660	37982	
19224	0	33080	32888	37956	1620	0	33020	32659	37959	
19225	0	33092	32874	37956	1621	0	33024	32653	37980	
19226	0	33096	32864	37972	1622	0	33001	32675	37966	
19227	0	33088	32876	37972	1623	0	32992	32674	37970	
19228	0	33092	32868	37964	1624	0	33008	32669	37991	
19229	0	33096	32860	37984	1625	0	33014	32647	37978	
19230	0	33088	32868	38000	1626	0	33013	32658	37968	
19231	0	33092	32868	37992	1627	0	33013	32665	37990	
19232	0	33092	32864	37980	1628	0	33028	32647	38000	
19233	0	33088	32881	37972	1629	0	33028	32660	38006	
19234	0	33088	32872	37976	1630	0	33012	32660	37997	
19235	0	33086	32864	37976	1631	0	33028	32645	37988	
19236	0	33072	32876	37992	1632	0	33024	32647	37958	
19237	0	33092	32864	37984	1633	0	33028	32647	37952	
19238	0	33104	32868	37996	1634	0	33032	32658	37970	
19239	0	33088	32868	37976	1635	0	33016	32663	37983	
19240	0	33088	32860	37964	1636	0	33012	32668	37991	
19241	0	33088	32844	37960	1637	0	33018	32663	37986	
19242	0	33080	32856	37956	1638	0	33013	32663	37988	
19243	0	33088	32864	37952	1639	0	33018	32647	37986	
19244	0	33096	32860	37968	1640	0	33014	32647	38005	
19245	0	33084	32870	37952	1641	0	33012	32647	37978	
19246	0	33092	32864	37968	1642	0	33012	32658	37980	
19247	0	33104	32856	37972	1643	0	33014	32655	37971	
19248	0	33100	32864	37992	1644	0	33012	32647	37972	
19249	0	33104	32860	38001	1645	0	33012	32655	37983	
19250	0	33096	32876	37984	1646	0	33012	32647	37957	
19251	0	33090	32884	37980	1647	0	33012	32660	37968	
19252	0	33096	32876	37988	1648	0	33024	32641	37958	
19253	0	33088	32880	37969	1649	0	33028	32646	37957	
19254	0	33084	32896	37972	1650	0	33012	32647	37952	
19255	0	33080	32900	37980	1651	0	33012	32639	37946	
19256	0	33080	32890	37960	1652	0	33012	32645	37959	
19257	0	33084	32884	37948	1653	0	33006	32647	37967	
19258	0	33084	32881	37958	1654	0	33006	32647	37974	
19259	0	33096	32872	37952	1655	0	33004	32647	37970	
19260	0	33096	32873	37964	1656	0	33001	32656	37990	
19261	0	33088	32880	37992	1657	0	33006	32647	38000	
19262	0	33088	32888	37984	1658	0	33018	32632	37999	
19263	0	33088	32888	37988	1659	0	33009	32647	38006	
19264	0	33092	32880	37985	1660	0	33016	32638	37996	
19265	0	33088	32880	37965	1661	0	33016	32637	37991	
19266	0	33084	32884	37945	1662	0	33007	32641	37978	
19267	0	33088	32880	37940	1663	0	33004	32654	37957	
19268	0	33096	32880	37952	1664	0	33018	32647	37972	
19269	0	33088	32885	37952	1665	0	33012	32647	37974	
19270	0	33080	32880	37940	1666	0	33005	32647	37959	
19271	0	33096	32880	37928	1667	0	33008	32655	37946	
19272	0	33100	32866	37952	1668	0	33004	32647	37928	
19273	0	33096	32876	37932	1669	0	33010	32658	37936	
19274	0	33096	32868	37952	1670	0	33028	32666	37940	
19275	0	33084	32868	37960	1671	0	33010	32647	37938	
19276	0	33088	32872	37940	1672	0	33034	32646	37948	
19277	0	33092	32856	37968	1673	0	33024	32634	37946	
19278	0	33092	32864	37964	1674	0	33020	32629	37959	
19279	0	33096	32872	37964	1675	0	33008	32639	37955	
19280	0	33088	32868	37968	1676	0	33010	32642	37967	
19281	0	33092	32872	37972	1677	0	32996	32645	37980	
19282	0	33082	32868	37968	1678	0	33012	32642	37955	
19283	0	33096	32864	37960	1679	0	33008	32646	37943	
19284	0	33096	32861	37980	1680	0	33016	32646	37951	
19285	0	33100	32868	37972	1681	0	33012	32640	37934	
19286	0	33092	32868	37961	1682	0	33004	32647	37926	
19287	0	33088	32868	37980	1683	0	33004	32647	37947	
19288	0	33088	32861	37974	1684	0	33008	32647	37940	
19289	0	33092	32864	37972	1685	0	33004	32655	37933	
19290	0	33088	32868	37973	1686	0	32984	32669	37916	
19291	0	33092	32876	37972	1687	0	33008	32647	37942	
19292	0	33088	32884	37972	1688	0	33004	32662	37945	
19293	0	33088	32882	37976	1689	0	33020	32659	37959	
19294	0	33108	32876	37992	1690	0	33012	32645	37981	
19295	0	33100	32878	38016	1691	0	33008	32647	37981	
19296	0	33088	32868	37996	1692	0	33012	32637	37970	
19297	0	33108	32857	37980	1693	0	33014	32658	37983	
19298	0	33096	32860	37957	1694	0	33004	32662	37977	
19299	0	33096	32864	37968	1695	0	33004	32647	37981	
19300	0	33096	32848	37965	1696	0	32984	32656	37970	
19301	0	33096	32848	37992	1697	0	33000	32657	37981	
19302	0	33104	32840	37969	1698	0	33005	32647	37964	
19303	0	33112	32849	37964	1699	0	33014	32661	37964	
19304	0	33104	32848	37952	1700	0	33020	32647	37959	
19305	0	33096	32860	37948	1701	0	33010	32634	37972	
19306	0	33100	32868	37968	1702	0	33016	32629	37970	
19307	0	33096	32858	37988	1703	0	33024	32624	37959	
19308	0	33093	32870	37980	1704	0	33024	32640	37967	
19309	0	33088	32864	37980	1705	0	33018	32647	37967	
19310	0	33092	32864	37984	1706	0	33012	32655	37946	
19311	0	33092	32864	37956	1707	0	33016	32647	37927	
19312	0	33084	32868	37952	1708	0	33008	32645	37915	
19313	0	33084	32860	37964	1709	0	33004	32634	37941	
19314	0	33088	32864	37952	1710	0	33017	32633	37929	
19315	0	33088	32864	37972	1711	0	33024	32647	37959	
19316	0	33096	32856	37972	1712	0	33028	32647	37972	
19317	0	33092	32868	37960	1713	0	33035	32631	37974	
19318	0	33096	32864	37976	1714	0	33024	32646	37979	
19319	0	33100	32879	37968	1715	0	33016	32644	37976	
19320	0	33088	32880	37952	1716	0	33010	32647	37987	
19321	0	33100	32866	37952	1717	0	33004	32647	37977	
19322	0	33100	32872	37944	1718	0	33008	32647	37967	
19323	0	33100	32876	37957	1719	0	33020	32647	37959	
19324	0	33088	32880	37962	1720	0	33016	32647	37977	
19325	0	33080	32884	37984	1721	0	33028	32647	37967	
19326	0	33080	32888	37972	1722	0	33018	32655	37959	
19327	0	33080	32886	37981	1723	0	33010	32658	37972	
19328	0	33080	32880	37972	1724	0	33018	32657	37943	
19329	0	33080	32876	37952	1725	0	33020	32647	37958	
19330	0	33084	32880	37952	1726	0	33012	32655	37943	
19331	0	33100	32877	37964	1727	0	33018	32666	37941	
19332	0	33096	32868	37968	1728	0	33033	32647	37954	
19333	0	33093	32860	37980	1729	0	33024	32644	37943	
19334	0	33088	32860	37992	1730	0	33010	32641	37954	
19335	0	33096	32868	38000	1731	0	33008	32644	37988	
19336	0	33084	32869	37988	1732	0	32992	32655	37997	
19337	0	33084	32864	37980	1733	0	33000	32647	37982	
19338	0	33088	32878	37984	1734	0	33016	32647	37998	
19339	0	33088	32868	37984	1735	0	33014	32637	37976	
19340	0	33088	32872	37972	1736	0	33020	32642	37985	
19341	0	33088	32884	37984	1737	0	33020	32646	37978	
19342	0	33076	32876	37989	1738	0	33020	32647	37996	
19343	0	33088	32872	37984	1739	0	33016	32647	37967	
19344	0	33096	32870	37988	1740	0	33016	32647	37959	
19345	0	33093	32868	37996	1741	0	33018	32647	37948	
19346	0	33080	32872	37988	1742	0	33006	32647	37949	
19347	0	33084	32872	37968	1743	0	33004	32662	37956	
19348	0	33088	32880	37972	1744	0	33016	32660	37959	
19349	0	33088	32876	37980	1745	0	33021	32655	37958	
19350	0	33088	32880	37952	1746	0	33016	32663	37966	
19351	0	33090	32873	37948	1747	0	33028	32654	37956	
19352	0	33104	32869	37956	1748	0	33024	32660	37975	
19353	0	33092	32876	37952	1749	0	33012	32647	37964	
19354	0	33088	32873	37984	1750	0	33016	32644	37974	
19355	0	33096	32876	37968	1751	0	33006	32665	37946	
19356	0	33088	32856	37968	1752	0	33012	32653	37966	
19357	0	33088	32872	37980	1753	0	33024	32638	37949	
19358	0	33088	32852	37972	1754	0	33025	32637	37964	
19359	0	33084	32856	37957	1755	0	33016	32641	37951	
19360	0	33088	32856	37984	1756	0	33006	32654	37953	
19361	0	33084	32860	37976	1757	0	32998	32647	37957	
19362	0	33084	32860	37976	1758	0	33012	32640	37955	
19363	0	33080	32864	37960	1759	0	33004	32658	37941	
19364	0	33088	32864	37948	1760	0	33016	32655	37956	
19365	0	33081	32864	37968	1761	0	33017	32661	37956	
19366	0	33080	32864	37964	1762	0	33022	32647	37956	
19367	0	33076	32864	37988	1763	0	33016	32638	37951	
19368	0	33088	32868	37980	1764	0	33024	32642	37959	
19369	0	33088	32864	37972	1765	0	33012	32643	37980	
19370	0	33076	32872	37960	1766	0	33024	32634	37956	
19371	0	33084	32872	37952	1767	0	33010	32642	37959	
19372	0	33080	32880	37936	1768	0	33008	32642	37971	
19373	0	33092	32868	37952	1769	0	33014	32628	37988	
19374	0	33072	32880	37964	1770	0	33008	32634	37993	
19375	0	33064	32888	37964	1771	0	33020	32634	37972	
19376	0	33068	32876	37976	1772	0	33014	32647	37936	
19377	0	33096	32876	37976	1773	0	33024	32643	37951	
19378	0	33088	32872	37960	1774	0	33028	32635	37953	
19379	0	33088	32884	37960	1775	0	33020	32647	37954	
19380	0	33092	32876	37972	1776	0	33026	32647	37955	
19381	0	33080	32876	37980	1777	0	33012	32652	37958	
19382	0	33080	32880	37984	1778	0	33018	32647	37978	
19383	0	33076	32880	37996	1779	0	33010	32659	37996	
19384	0	33068	32888	37960	1780	0	33013	32647	37977	
19385	0	33084	32880	37952	1781	0	33005	32647	37970	
19386	0	33088	32872	37952	1782	0	33004	32658	37979	
19387	0	33084	32872	37964	1783	0	33020	32658	37983	
19388	0	33088	32868	37960	1784	0	33012	32663	37942	
19389	0	33080	32876	37989	1785	0	33022	32658	37953	
19390	0	33084	32884	37984	1786	0	33024	32647	37959	
19391	0	33092	32880	37968	1787	0	33020	32637	37959	
19392	0	33088	32865	37980	1788	0	33010	32638	37959	
19393	0	33088	32864	37976	1789	0	32996	32647	37943	
19394	0	33088	32864	37972	1790	0	33004	32646	37955	
19395	0	33088	32864	37976	1791	0	33026	32638	37947	
19396	0	33088	32868	37988	1792	0	33020	32645	37944	
19397	0	33088	32872	38002	1793	0	33028	32638	37952	
19398	0	33092	32874	38000	1794	0	33028	32619	37959	
19399	0	33092	32876	38008	1795	0	33016	32635	37959	
19400	0	33088	32872	37976	1796	0	33012	32641	37967	
19401	0	33088	32876	37964	1797	0	33027	32647	37955	
19402	0	33100	32869	37968	1798	0	33032	32647	37959	
19403	0	33088	32884	37980	1799	0	33025	32659	37953	
19404	0	33088	32876	37976	1800	0	33028	32656	37958	
19405	0	33100	32892	37972	1801	0	33021	32658	37968	
19406	0	33096	32892	38004	1802	0	33026	32658	37962	
19407	0	33088	32892	38000	1803	0	33024	32660	37977	
19408	0	33076	32884	37964	1804	0	33012	32658	37962	
19409	0	33088	32884	37972	1805	0	33008	32644	37951	
19410	0	33076	32888	37984	1806	0	33008	32655	37958	
19411	0	33088	32888	37976	1807	0	33016	32655	37980	
19412	0	33088	32876	37972	1808	0	33012	32658	37985	
19413	0	33076	32880	37976	1809	0	33016	32658	37988	
19414	0	33080	32878	37976	1810	0	33020	32647	37991	
19415	0	33090	32872	37964	1811	0	33026	32638	37976	
19416	0	33100	32864	37960	1812	0	33020	32647	37979	
19417	0	33092	32868	37964	1813	0	33017	32640	37981	
19418	0	33082	32878	37968	1814	0	33022	32647	37959	
19419	0	33088	32864	37980	1815	0	33016	32647	37949	
19420	0	33092	32872	37984	1816	0	33034	32642	37952	
19421	0	33084	32873	37984	1817	0	33033	32638	37953	
19422	0	33088	32872	37976	1818	0	33018	32647	37934	
19423	0	33096	32864	37976	1819	0	33024	32647	37943	
19424	0	33092	32872	37980	1820	0	33012	32647	37943	
19425	0	33104	32868	37968	1821	0	33022	32647	37943	
19426	0	33092	32868	37972	1822	0	33030	32657	37947	
19427	0	33092	32864	37964	1823	0	33026	32647	37948	
19428	0	33088	32868	37980	1824	0	33016	32647	37954	
19429	0	33088	32864	37972	1825	0	33008	32647	37981	
19430	0	33088	32880	37956	1826	0	33012	32647	37967	
19431	0	33092	32872	37968	1827	0	33016	32644	37959	
19432	0	33092	32876	37964	1828	0	33014	32647	37956	
19433	0	33092	32876	37968	1829	0	33010	32647	37990	
19434	0	33096	32868	37976	1830	0	33016	32637	37959	
19435	0	33084	32880	37956	1831	0	33012	32638	37957	
19436	0	33088	32868	37964	1832	0	33000	32639	37965	
19437	0	33080	32876	37960	1833	0	33012	32635	37959	
19438	0	33088	32872	37952	1834	0	33016	32647	37954	
19439	0	33100	32878	37956	1835	0	33002	32656	37954	
19440	0	33104	32872	37956	1836	0	33000	32659	37954	
19441	0	33096	32874	37976	1837	0	33012	32665	37970	
19442	0	33096	32876	37980	1838	0	33012	32671	37974	
19443	0	33096	32864	37988	1839	0	33028	32671	37951	
19444	0	33088	32868	37972	1840	0	33016	32674	37957	
19445	0	33092	32858	37966	1841	0	33030	32677	37962	
19446	0	33084	32872	37980	1842	0	33016	32675	37959	
19447	0	33086	32876	37972	1843	0	33001	32671	37974	
19448	0	33084	32876	37989	1844	0	33004	32671	37975	
19449	0	33084	32876	37984	1845	0	33020	32646	37983	
19450	0	33088	32872	37964	1846	0	33016	32647	37959	
19451	0	33080	32880	37968	1847	0	33020	32647	37973	
19452	0	33084	32880	37972	1848	0	33008	32661	37980	
19453	0	33084	32882	37972	1849	0	32996	32660	37966	
19454	0	33088	32884	37972	1850	0	33010	32647	37967	
19455	0	33088	32872	37988	1851	0	33017	32639	37978	
19456	0	33092	32860	37976	1852	0	33008	32647	37978	
19457	0	33088	32856	37988	1853	0	33010	32643	37951	
19458	0	33080	32864	37984	1854	0	33020	32626	37937	
19459	0	33084	32864	37992	1855	0	33019	32636	37941	
19460	0	33076	32860	37984	1856	0	33005	32639	37950	
19461	0	33080	32868	37968	1857	0	33016	32644	37974	
19462	0	33072	32881	37968	1858	0	33017	32641	37972	
19463	0	33080	32884	37952	1859	0	33038	32632	37973	
19464	0	33096	32873	37953	1860	0	33024	32644	37945	
19465	0	33100	32868	37968	1861	0	33021	32639	37959	
19466	0	33088	32864	37972	1862	0	33013	32642	37949	
19467	0	33084	32868	37980	1863	0	33008	32658	37949	
19468	0	33088	32876	37988	1864	0	33006	32663	37950	
19469	0	33092	32872	37992	1865	0	33020	32647	37964	
19470	0	33092	32864	38012	1866	0	33008	32638	37974	
19471	0	33096	32872	38000	1867	0	33016	32635	37970	
19472	0	33100	32860	37988	1868	0	33024	32639	37981	
19473	0	33092	32882	37976	1869	0	33028	32637	37982	
19474	0	33096	32888	37962	1870	0	33026	32647	37959	
19475	0	33084	32868	37976	1871	0	33021	32647	37955	
19476	0	33076	32868	37961	1872	0	33028	32655	37966	
19477	0	33076	32872	37964	1873	0	33005	32647	37941	
19478	0	33080	32872	37945	1874	0	33004	32642	37965	
19479	0	33080	32872	37936	1875	0	33004	32644	37968	
19480	0	33076	32858	37952	1876	0	32993	32652	37967	
19481	0	33068	32872	37948	1877	0	32992	32647	37971	
19482	0	33072	32868	37944	1878	0	33008	32637	37991	
19483	0	33084	32856	37964	1879	0	33012	32642	37974	
19484	0	33084	32872	37960	1880	0	33008	32637	37959	
19485	0	33088	32868	37952	1881	0	33000	32647	37947	
19486	0	33080	32877	37960	1882	0	33000	32663	37959	
19487	0	33084	32874	37980	1883	0	33004	32664	37972	
19488	0	33080	32872	37944	1884	0	33000	32667	37974	
19489	0	33092	32864	37956	1885	0	33012	32667	37953	
19490	0	33104	32860	37964	1886	0	33016	32647	37954	
19491	0	33092	32868	37964	1887	0	33002	32656	37948	
19492	0	33088	32872	37952	1888	0	33016	32647	37951	
19493	0	33088	32868	37960	1889	0	33020	32646	37959	
19494	0	33096	32856	37992	1890	0	33006	32655	37970	
19495	0	33096	32868	37988	1891	0	33000	32647	37959	
19496	0	33092	32868	37996	1892	0	33022	32644	37959	
19497	0	33088	32860	37992	1893	0	33008	32644	37967	
19498	0	33096	32856	37996	1894	0	33005	32637	37948	
19499	0	33108	32852	37996	1895	0	33006	32635	37970	
19500	0	33104	32848	37980	1896	0	33016	32626	37956	
19501	0	33108	32852	37968	1897	0	33008	32640	37972	
19502	0	33108	32848	37964	1898	0	33008	32657	37965	
19503	0	33112	32848	37968	1899	0	33004	32654	37977	
19504	0	33100	32864	37980	1900	0	33020	32647	37963	
19505	0	33080	32870	37988	1901	0	33018	32639	37971	
19506	0	33088	32874	37956	1902	0	33004	32646	37970	
19507	0	33096	32864	37972	1903	0	33012	32647	37959	
19508	0	33096	32852	37992	1904	0	33008	32639	37958	
19509	0	33092	32856	37980	1905	0	32992	32647	37959	
19510	0	33100	32856	37972	1906	0	32993	32647	37958	
19511	0	33104	32864	37968	1907	0	33000	32660	37988	
19512	0	33104	32872	37968	1908	0	33008	32639	37954	
19513	0	33080	32864	37976	1909	0	33015	32645	37959	
19514	0	33080	32864	37982	1910	0	33016	32642	37959	
19515	0	33082	32872	37968	1911	0	33004	32637	37971	
19516	0	33080	32876	37973	1912	0	33012	32634	37977	
19517	0	33092	32876	37992	1913	0	33007	32647	37959	
19518	0	33096	32888	37988	1914	0	33004	32630	37972	
19519	0	33096	32880	37996	1915	0	33008	32641	37989	
19520	0	33088	32864	37996	1916	0	33012	32641	37983	
19521	0	33092	32864	37996	1917	0	33010	32647	37983	
19522	0	33084	32872	37992	1918	0	33006	32647	37968	
19523	0	33098	32864	37984	1919	0	33004	32646	37969	
19524	0	33080	32876	37976	1920	0	33000	32647	37988	
19525	0	33096	32868	37988	1921	0	33012	32646	37983	
19526	0	33096	32864	37985	1922	0	33021	32633	37981	
19527	0	33088	32876	37952	1923	0	33018	32647	37974	
19528	0	33096	32868	37948	1924	0	33026	32642	37972	
19529	0	33092	32868	37976	1925	0	33030	32624	37984	
19530	0	33092	32864	37968	1926	0	33028	32634	37972	
19531	0	33080	32876	37956	1927	0	33024	32639	37968	
19532	0	33080	32864	37976	1928	0	33024	32628	37981	
19533	0	33088	32864	37964	1929	0	33032	32625	37988	
19534	0	33100	32868	37964	1930	0	33024	32645	37975	
19535	0	33104	32864	37980	1931	0	33028	32630	37986	
19536	0	33104	32865	37988	1932	0	33030	32634	37964	
19537	0	33104	32865	38000	1933	0	33026	32630	37966	
19538	0	33096	32860	37994	1934	0	33040	32620	37974	
19539	0	33100	32860	37984	1935	0	33028	32630	37991	
19540	0	33100	32864	37980	1936	0	33032	32640	37986	
19541	0	33102	32864	37988	1937	0	33032	32646	37997	
19542	0	33104	32858	37976	1938	0	33024	32647	37999	
19543	0	33088	32864	37988	1939	0	33036	32625	37975	
19544	0	33096	32860	37968	1940	0	33039	32631	37964	
19545	0	33084	32868	37988	1941	0	33020	32639	37959	
19546	0	33088	32864	37980	1942	0	33024	32632	37981	
19547	0	33092	32860	38004	1943	0	33016	32638	37990	
19548	0	33088	32874	37968	1944	0	33000	32647	37980	
19549	0	33092	32884	37976	1945	0	33010	32655	37966	
19550	0	33108	32873	37976	1946	0	33008	32664	37965	
19551	0	33088	32880	37976	1947	0	33022	32662	37959	
19552	0	33096	32880	37984	1948	0	33028	32647	37959	
19553	0	33100	32876	37980	1949	0	33014	32647	37951	
19554	0	33073	32896	37960	1950	0	32988	32670	37956	
19555	0	33076	32888	37948	1951	0	32992	32679	37966	
19556	0	33084	32888	37960	1952	0	32992	32672	37959	
19557	0	33084	32888	37964	1953	0	33000	32662	37959	
19558	0	33092	32892	37986	1954	0	33008	32647	37959	
19559	0	33096	32892	37984	1955	0	33014	32660	37956	
19560	0	33088	32892	37972	1956	0	33000	32658	37936	
19561	0	33098	32888	37968	1957	0	32996	32664	37959	
19562	0	33092	32892	37972	1958	0	33004	32671	37943	
19563	0	33094	32892	37980	1959	0	33000	32679	37967	
19564	0	33088	32884	37976	1960	0	33008	32676	37959	
19565	0	33088	32896	37972	1961	0	33025	32667	37974	
19566	0	33088	32896	37980	1962	0	33012	32678	37980	
19567	0	33096	32884	37972	1963	0	33012	32670	37959	
19568	0	33092	32892	37984	1964	0	32998	32674	37953	
19569	0	33088	32876	37980	1965	0	33000	32658	37964	
19570	0	33088	32868	37988	1966	0	33004	32659	37970	
19571	0	33088	32868	37972	1967	0	32998	32666	37991	
19572	0	33088	32878	37956	1968	0	33006	32663	37959	
19573	0	33092	32872	37972	1969	0	33006	32655	37945	
19574	0	33088	32873	37972	1970	0	33010	32665	37959	
19575	0	33076	32878	37980	1971	0	33010	32679	37956	
19576	0	33084	32884	37960	1972	0	33007	32666	37979	
19577	0	33084	32885	37960	1973	0	33006	32663	37985	
19578	0	33081	32880	37972	1974	0	33018	32647	37967	
19579	0	33092	32876	37960	1975	0	33024	32647	37949	
19580	0	33096	32880	37972	1976	0	33024	32660	37956	
19581	0	33108	32872	37976	1977	0	33016	32662	37959	
19582	0	33092	32876	37968	1978	0	33030	32658	37959	
19583	0	33092	32881	37974	1979	0	33022	32670	37932	
19584	0	33089	32888	37976	1980	0	33022	32670	37927	
19585	0	33084	32892	37980	1981	0	33016	32671	37923	
19586	0	33088	32893	37960	1982	0	33010	32663	37962	
19587	0	33080	32896	37968	1983	0	33006	32666	37968	
19588	0	33072	32872	37972	1984	0	33008	32658	37978	
19589	0	33076	32886	37964	1985	0	33018	32640	37950	
19590	0	33080	32889	37956	1986	0	33024	32655	37939	
19591	0	33076	32880	37960	1987	0	33016	32658	37959	
19592	0	33076	32868	37952	1988	0	33023	32647	37959	
19593	0	33072	32868	37952	1989	0	33024	32647	37971	
19594	0	33096	32872	37944	1990	0	33012	32647	38002	
19595	0	33104	32872	37972	1991	0	33020	32638	37986	
19596	0	33088	32872	37972	1992	0	33024	32644	37983	
19597	0	33088	32874	37976	1993	0	33028	32647	37990	
19598	0	33080	32864	37972	1994	0	33032	32647	37990	
19599	0	33092	32868	37946	1995	0	33040	32647	37962	
19600	0	33100	32864	37960	1996	0	33042	32647	37972	
19601	0	33096	32872	37972	1997	0	33037	32647	37965	
19602	0	33100	32873	37984	1998	0	33026	32662	37963	
19603	0	33100	32864	37980	1999	0	33024	32658	37971	
19604	0	33088	32864	37984	2000	0	33010	32663	37990	
19605	0	33088	32862	37984	2001	0	33024	32647	37991	
19606	0	33100	32868	37988	2002	0	33016	32646	38005	
19607	0	33086	32865	37956	2003	0	33012	32647	37990	
19608	0	33100	32840	37952	2004	0	33010	32642	37986	
19609	0	33096	32840	37960	2005	0	33016	32647	37959	
19610	0	33096	32848	37984	2006	0	33018	32642	37991	
19611	0	33088	32844	37980	2007	0	33004	32647	37979	
19612	0	33072	32852	37968	2008	0	32997	32647	37965	
19613	0	33088	32865	37972	2009	0	33013	32632	37953	
19614	0	33092	32876	37964	2010	0	33026	32638	37958	
19615	0	33096	32868	37980	2011	0	33016	32647	37970	
19616	0	33096	32880	37976	2012	0	33030	32646	37971	
19617	0	33089	32884	37980	2013	0	33028	32642	37994	
19618	0	33085	32876	37986	2014	0	33036	32634	37979	
19619	0	33096	32870	37972	2015	0	33014	32647	37959	
19620	0	33096	32866	37972	2016	0	33004	32667	37959	
19621	0	33089	32868	37980	2017	0	33002	32647	37972	
19622	0	33088	32876	37976	2018	0	33004	32641	38006	
19623	0	33096	32858	37994	2019	0	33016	32637	37988	
19624	0	33088	32860	37972	2020	0	33028	32632	37989	
19625	0	33088	32860	37981	2021	0	33020	32644	37990	
19626	0	33084	32848	37981	2022	0	33024	32646	37974	
19627	0	33088	32848	37960	2023	0	33016	32645	37975	
19628	0	33088	32858	37968	2024	0	33020	32647	37975	
19629	0	33088	32860	37964	2025	0	33012	32638	37980	
19630	0	33096	32856	37950	2026	0	33006	32640	37970	
19631	0	33092	32860	37968	2027	0	33000	32642	37955	
19632	0	33096	32856	37984	2028	0	33013	32636	37935	
19633	0	33092	32864	37964	2029	0	33004	32647	37957	
19634	0	33100	32868	37980	2030	0	33018	32647	37970	
19635	0	33080	32868	37988	2031	0	33016	32641	37975	
19636	0	33068	32876	37966	2032	0	33010	32658	37968	
19637	0	33088	32868	37964	2033	0	33008	32662	37970	
19638	0	33088	32868	37985	2034	0	33012	32647	37984	
19639	0	33092	32860	37968	2035	0	33011	32662	37991	
19640	0	33088	32856	37972	2036	0	33020	32647	37978	
19641	0	33090	32864	37968	2037	0	33018	32639	37957	
19642	0	33096	32864	37960	2038	0	33021	32637	37959	
19643	0	33092	32865	37974	2039	0	33012	32647	37958	
19644	0	33088	32865	37968	2040	0	33016	32647	37946	
19645	0	33088	32864	37996	2041	0	33008	32647	37953	
19646	0	33104	32860	37988	2042	0	33004	32659	37964	
19647	0	33088	32872	37984	2043	0	33018	32647	37965	
19648	0	33088	32872	37984	2044	0	33024	32647	37949	
19649	0	33092	32872	37964	2045	0	33024	32647	37959	
19650	0	33096	32876	37944	2046	0	33024	32636	37975	
19651	0	33096	32864	37940	2047	0	33028	32638	37970	
19652	0	33100	32868	37936	2048	0	33040	32632	37967	
19653	0	33088	32868	37944	2049	0	33036	32645	37951	
19654	0	33084	32868	37932	2050	0	33012	32644	37949	
19655	0	33080	32870	37936	2051	0	33005	32647	37951	
19656	0	33092	32858	37960	2052	0	32992	32645	37959	
19657	0	33088	32865	37952	2053	0	33012	32637	37958	
19658	0	33084	32864	37948	2054	0	32996	32647	37951	
19659	0	33088	32872	37944	2055	0	33004	32647	37978	
19660	0	33088	32884	37948	2056	0	33016	32656	37975	
19661	0	33088	32876	37952	2057	0	33014	32654	37960	
19662	0	33084	32872	37948	2058	0	33008	32654	37943	
19663	0	33088	32872	37956	2059	0	33024	32667	37916	
19664	0	33088	32880	37984	2060	0	33021	32666	37949	
19665	0	33072	32876	37984	2061	0	33016	32659	37968	
19666	0	33080	32884	37964	2062	0	33018	32647	37984	
19667	0	33092	32876	37984	2063	0	33024	32663	37979	
19668	0	33088	32892	37980	2064	0	33016	32671	37978	
19669	0	33092	32904	37968	2065	0	33026	32670	37958	
19670	0	33096	32894	37960	2066	0	33032	32675	37964	
19671	0	33080	32900	37952	2067	0	33028	32655	37968	
19672	0	33084	32900	37945	2068	0	33016	32679	37972	
19673	0	33076	32896	37960	2069	0	33024	32664	37991	
19674	0	33088	32888	37947	2070	0	33012	32672	37968	
19675	0	33076	32888	37952	2071	0	33012	32671	37959	
19676	0	33084	32884	37972	2072	0	32996	32679	37974	
19677	0	33108	32872	37964	2073	0	32996	32671	37959	
19678	0	33096	32880	37964	2074	0	33014	32663	37956	
19679	0	33088	32892	37968	2075	0	33000	32670	37952	
19680	0	33104	32880	37988	2076	0	33004	32671	37970	
19681	0	33096	32884	37980	2077	0	33014	32663	37976	
19682	0	33104	32888	37960	2078	0	33014	32662	37953	
19683	0	33112	32884	37968	2079	0	33013	32641	37980	
19684	0	33112	32868	37968	2080	0	33020	32647	37976	
19685	0	33104	32880	37973	2081	0	33021	32654	37968	
19686	0	33092	32880	37984	2082	0	33030	32655	37956	
19687	0	33096	32874	37980	2083	0	33028	32665	37975	
19688	0	33088	32872	37988	2084	0	33026	32663	37974	
19689	0	33096	32872	37984	2085	0	33012	32667	37959	
19690	0	33096	32864	37992	2086	0	33020	32666	37968	
19691	0	33084	32872	37976	2087	0	33008	32662	37964	
19692	0	33104	32864	37972	2088	0	33016	32655	37970	
19693	0	33100	32876	37980	2089	0	33018	32660	37959	
19694	0	33092	32880	37980	2090	0	33013	32660	37975	
19695	0	33108	32877	37976	2091	0	33024	32674	37970	
19696	0	33098	32876	37960	2092	0	33020	32666	37974	
19697	0	33104	32888	37968	2093	0	33021	32668	37976	
19698	0	33096	32888	37960	2094	0	33020	32676	37991	
19699	0	33096	32884	37968	2095	0	33008	32662	37970	
19700	0	33108	32884	37980	2096	0	33010	32660	37956	
19701	0	33112	32882	37960	2097	0	33016	32658	37974	
19702	0	33104	32880	37948	2098	0	33028	32647	37982	
19703	0	33104	32880	37984	2099	0	33024	32647	37959	
19704	0	33112	32876	37984	2100	0	33040	32655	37975	
19705	0	33088	32880	37990	2101	0	33024	32663	37948	
19706	0	33080	32881	37964	2102	0	33018	32660	37968	
19707	0	33084	32880	37980	2103	0	33022	32652	37981	
19708	0	33082	32884	37996	2104	0	33005	32658	37992	
19709	0	33097	32878	37972	2105	0	33016	32656	37998	
19710	0	33090	32880	37984	2106	0	33012	32662	38006	
19711	0	33100	32880	37996	2107	0	33014	32666	37988	
19712	0	33108	32872	37972	2108	0	33000	32662	37959	
19713	0	33108	32876	37976	2109	0	32997	32671	37970	
19714	0	33092	32876	37966	2110	0	33018	32660	37970	
19715	0	33076	32884	37962	2111	0	33004	32658	37972	
19716	0	33076	32880	37992	2112	0	33000	32647	37975	
19717	0	33080	32876	37996	2113	0	33006	32647	37968	
19718	0	33084	32884	37996	2114	0	33012	32662	37955	
19719	0	33096	32880	37972	2115	0	33026	32647	37959	
19720	0	33100	32876	37984	2116	0	33013	32663	37946	
19721	0	33112	32876	37960	2117	0	33008	32671	37937	
19722	0	33104	32884	37948	2118	0	33016	32669	37946	
19723	0	33098	32876	37961	2119	0	33018	32655	37944	
19724	0	33108	32877	37964	2120	0	33021	32647	37943	
19725	0	33104	32872	37972	2121	0	33016	32652	37946	
19726	0	33084	32872	37980	2122	0	33012	32645	37975	
19727	0	33088	32872	37988	2123	0	33016	32663	37968	
19728	0	33100	32872	37988	2124	0	33020	32645	37980	
19729	0	33100	32876	37956	2125	0	33014	32647	37999	
19730	0	33098	32876	37972	2126	0	33032	32658	37986	
19731	0	33100	32876	37968	2127	0	33032	32670	37968	
19732	0	33100	32864	37964	2128	0	33028	32669	37965	
19733	0	33097	32872	37972	2129	0	33037	32647	37959	
19734	0	33100	32880	37992	2130	0	33024	32666	37972	
19735	0	33092	32881	37973	2131	0	33016	32657	37972	
19736	0	33096	32892	38008	2132	0	33010	32655	37957	
19737	0	33092	32868	38000	2133	0	33002	32647	37938	
19738	0	33104	32868	38008	2134	0	33024	32640	37934	
19739	0	33104	32868	38016	2135	0	33030	32644	37949	
19740	0	33108	32864	38004	2136	0	33020	32647	37959	
19741	0	33112	32868	37996	2137	0	33024	32647	37967	
19742	0	33116	32864	37988	2138	0	33028	32662	37975	
19743	0	33104	32872	38008	2139	0	33020	32663	37963	
19744	0	33104	32872	37992	2140	0	33026	32662	37956	
19745	0	33108	32862	37976	2141	0	33026	32647	37958	
19746	0	33113	32854	37956	2142	0	33020	32647	37958	
19747	0	33108	32868	37964	2143	0	33001	32669	37964	
19748	0	33108	32865	37949	2144	0	33008	32663	37952	
19749	0	33104	32861	37968	2145	0	33010	32658	37959	
19750	0	33105	32872	37964	2146	0	33008	32655	37959	
19751	0	33104	32874	37960	2147	0	33024	32641	37974	
19752	0	33096	32877	37960	2148	0	33021	32644	37962	
19753	0	33092	32880	37944	2149	0	33024	32647	37968	
19754	0	33088	32868	37960	2150	0	33024	32656	37970	
19755	0	33088	32876	37934	2151	0	33020	32653	37956	
19756	0	33084	32893	37920	2152	0	33016	32659	37959	
19757	0	33088	32896	37933	2153	0	33018	32658	37958	
19758	0	33092	32884	37944	2154	0	33024	32642	37954	
19759	0	33104	32876	37960	2155	0	33016	32658	37951	
19760	0	33096	32872	37968	2156	0	33020	32644	37956	
19761	0	33100	32872	37952	2157	0	33026	32639	37953	
19762	0	33104	32880	37972	2158	0	33032	32638	37956	
19763	0	33108	32880	37968	2159	0	33022	32647	37953	
19764	0	33092	32882	37972	2160	0	33018	32642	37943	
19765	0	33096	32873	37968	2161	0	33024	32642	37946	
19766	0	33108	32868	37964	2162	0	33026	32639	37957	
19767	0	33088	32860	37960	2163	0	33024	32644	37968	
19768	0	33088	32876	37932	2164	0	33030	32647	37982	
19769	0	33088	32856	37960	2165	0	33024	32647	37969	
19770	0	33084	32868	37964	2166	0	33028	32643	37954	
19771	0	33080	32864	37957	2167	0	33022	32641	37959	
19772	0	33084	32882	37980	2168	0	33020	32642	37959	
19773	0	33084	32884	37980	2169	0	33018	32647	37967	
19774	0	33080	32884	37965	2170	0	33016	32662	37989	
19775	0	33088	32880	37985	2171	0	33016	32656	37968	
19776	0	33096	32884	37976	2172	0	33020	32663	37978	
19777	0	33088	32887	37980	2173	0	33000	32669	37959	
19778	0	33100	32880	37969	2174	0	33006	32663	37972	
19779	0	33096	32876	37980	2175	0	33012	32660	37975	
19780	0	33092	32880	37976	2176	0	33020	32647	37952	
19781	0	33088	32876	37980	2177	0	33008	32646	37959	
19782	0	33092	32880	37984	2178	0	32992	32652	37974	
19783	0	33096	32876	37952	2179	0	33002	32647	37956	
19784	0	33088	32884	37964	2180	0	33016	32656	37967	
19785	0	33088	32888	37960	2181	0	33024	32647	37968	
19786	0	33076	32900	37976	2182	0	33024	32669	37977	
19787	0	33084	32885	37980	2183	0	33020	32662	37967	
19788	0	33092	32876	37964	2184	0	33012	32647	37951	
19789	0	33104	32868	37984	2185	0	33008	32662	37959	
19790	0	33092	32888	37984	2186	0	33030	32638	37958	
19791	0	33092	32884	37988	2187	0	33008	32663	37960	
19792	0	33096	32868	37996	2188	0	33024	32671	37970	
19793	0	33088	32872	37976	2189	0	33016	32662	37974	
19794	0	33088	32868	37964	2190	0	33028	32647	37964	
19795	0	33088	32860	37972	2191	0	33024	32647	37941	
19796	0	33092	32852	37952	2192	0	33008	32647	37959	
19797	0	33088	32852	37965	2193	0	33005	32647	37958	
19798	0	33088	32856	37984	2194	0	33014	32647	37968	
19799	0	33084	32856	37988	2195	0	33018	32647	37958	
19800	0	33080	32860	37989	2196	0	33010	32632	37971	
19801	0	33084	32868	37972	2197	0	33002	32647	37966	
19802	0	33088	32868	37976	2198	0	32996	32655	37951	
19803	0	33088	32868	37968	2199	0	33000	32636	37959	
19804	0	33100	32864	37956	2200	0	33010	32624	37959	
19805	0	33096	32856	37968	2201	0	33006	32639	37951	
19806	0	33084	32865	37960	2202	0	33010	32638	37966	
19807	0	33077	32865	37962	2203	0	33020	32647	37992	
19808	0	33082	32860	37972	2204	0	33020	32638	37967	
19809	0	33080	32856	37980	2205	0	33020	32637	37957	
19810	0	33088	32856	37980	2206	0	33024	32631	37958	
19811	0	33080	32858	37972	2207	0	33024	32638	37959	
19812	0	33084	32856	37981	2208	0	33020	32631	37944	
19813	0	33088	32864	37976	2209	0	33016	32634	37951	
19814	0	33088	32864	37968	2210	0	33012	32639	37949	
19815	0	33084	32856	37968	2211	0	33028	32631	37938	
19816	0	33088	32856	37976	2212	0	33028	32626	37935	
19817	0	33096	32848	37968	2213	0	33022	32630	37948	
19818	0	33096	32860	37972	2214	0	33018	32630	37938	
19819	0	33088	32856	37988	2215	0	33008	32639	37959	
19820	0	33088	32852	37988	2216	0	33008	32647	37974	
19821	0	33088	32860	37972	2217	0	33018	32643	37954	
19822	0	33096	32864	37980	2218	0	33012	32647	37962	
19823	0	33088	32864	37992	2219	0	33001	32656	37975	
19824	0	33104	32868	37968	2220	0	33009	32647	37976	
19825	0	33096	32864	37966	2221	0	33001	32658	37974	
19826	0	33092	32852	37976	2222	0	33000	32655	37970	
19827	0	33108	32860	37968	2223	0	33022	32639	37980	
19828	0	33108	32848	37952	2224	0	33016	32642	37970	
19829	0	33092	32856	37960	2225	0	33014	32641	37972	
19830	0	33104	32854	37976	2226	0	33008	32644	37974	
19831	0	33088	32864	37984	2227	0	33008	32647	37987	
19832	0	33092	32864	37992	2228	0	33016	32647	37959	
19833	0	33096	32876	37992	2229	0	33012	32647	37955	
19834	0	33108	32864	37992	2230	0	33010	32644	37959	
19835	0	33096	32876	37976	2231	0	32999	32647	37968	
19836	0	33096	32884	37960	2232	0	33008	32658	37977	
19837	0	33105	32872	37956	2233	0	33034	32638	37971	
19838	0	33104	32880	37964	2234	0	33024	32642	37975	
19839	0	33096	32885	37976	2235	0	33024	32643	37943	
19840	0	33096	32876	37968	2236	0	33025	32647	37946	
19841	0	33096	32888	37972	2237	0	33018	32647	37964	
19842	0	33088	32896	37992	2238	0	33021	32658	37961	
19843	0	33092	32888	37984	2239	0	33021	32661	37954	
19844	0	33096	32896	37984	2240	0	33022	32656	37973	
19845	0	33100	32884	37980	2241	0	33030	32663	37988	
19846	0	33096	32896	37992	2242	0	33021	32674	37998	
19847	0	33104	32884	37976	2243	0	33020	32660	37986	
19848	0	33096	32896	37984	2244	0	33047	32647	37965	
19849	0	33076	32900	37992	2245	0	33020	32663	37953	
19850	0	33092	32884	37984	2246	0	33024	32671	37960	
19851	0	33104	32876	37972	2247	0	33016	32662	37959	
19852	0	33088	32894	37968	2248	0	33000	32669	37955	
19853	0	33092	32892	37984	2249	0	33000	32679	37955	
19854	0	33096	32892	38020	2250	0	32997	32679	37974	
19855	0	33100	32900	38001	2251	0	33008	32683	37999	
19856	0	33092	32888	38010	2252	0	33017	32679	37990	
19857	0	33104	32896	37992	2253	0	33040	32671	37967	
19858	0	33096	32900	37970	2254	0	33029	32669	37951	
19859	0	33092	32916	37964	2255	0	33018	32674	37974	
19860	0	33088	32916	37964	2256	0	33010	32662	37954	
19861	0	33089	32912	37944	2257	0	33014	32676	37959	
19862	0	33108	32906	37964	2258	0	33016	32676	37964	
19863	0	33100	32906	37968	2259	0	33000	32681	37975	
19864	0	33100	32904	37964	2260	0	33016	32679	37981	
19865	0	33096	32908	37980	2261	0	33012	32671	37980	
19866	0	33088	32912	37976	2262	0	33018	32679	37972	
19867	0	33104	32904	37980	2263	0	33016	32668	37959	
19868	0	33104	32900	37988	2264	0	33016	32672	37958	
19869	0	33100	32892	37989	2265	0	33016	32667	37976	
19870	0	33080	32904	37968	2266	0	33000	32683	37963	
19871	0	33080	32904	37975	2267	0	32999	32663	37974	
19872	0	33088	32892	37972	2268	0	33016	32675	37976	
19873	0	33092	32900	37984	2269	0	33024	32672	37977	
19874	0	33080	32897	37980	2270	0	33020	32669	37971	
19875	0	33084	32892	37996	2271	0	33020	32669	37959	
19876	0	33080	32912	38001	2272	0	33018	32679	37958	
19877	0	33076	32896	38000	2273	0	33024	32668	37958	
19878	0	33080	32888	37984	2274	0	33001	32673	37959	
19879	0	33092	32900	37964	2275	0	33006	32676	37968	
19880	0	33088	32880	37968	2276	0	33012	32675	37967	
19881	0	33080	32892	37964	2277	0	33020	32666	37954	
19882	0	33088	32885	37968	2278	0	33016	32669	37964	
19883	0	33104	32890	37956	2279	0	33039	32672	37938	
19884	0	33108	32874	37934	2280	0	33026	32676	37975	
19885	0	33108	32876	37940	2281	0	33018	32678	37970	
19886	0	33096	32876	37948	2282	0	33010	32676	37967	
19887	0	33096	32878	37928	2283	0	33024	32663	37963	
19888	0	33092	32888	37952	2284	0	33016	32657	37968	
19889	0	33084	32876	37958	2285	0	33029	32656	37969	
19890	0	33088	32876	37980	2286	0	33025	32656	37982	
19891	0	33088	32878	37980	2287	0	33036	32647	37970	
19892	0	33088	32869	37972	2288	0	33036	32646	37953	
19893	0	33096	32864	37976	2289	0	33038	32646	37940	
19894	0	33096	32872	37968	2290	0	33040	32647	37956	
19895	0	33088	32868	37950	2291	0	33031	32647	37955	
19896	0	33084	32876	37968	2292	0	33038	32636	37959	
19897	0	33088	32868	37984	2293	0	33030	32638	37972	
19898	0	33092	32876	37984	2294	0	33036	32647	37974	
19899	0	33096	32868	37988	2295	0	33030	32655	37968	
19900	0	33104	32862	37984	2296	0	33016	32647	37981	
19901	0	33108	32864	37984	2297	0	33032	32647	37981	
19902	0	33092	32864	37992	2298	0	33028	32642	37983	
19903	0	33104	32852	38004	2299	0	33030	32647	37959	
19904	0	33092	32845	38012	2300	0	33034	32647	37968	
19905	0	33108	32852	38000	2301	0	33034	32625	37967	
19906	0	33092	32856	38004	2302	0	33030	32631	37972	
19907	0	33080	32864	37984	2303	0	33028	32627	37981	
19908	0	33100	32852	37980	2304	0	33020	32630	37988	
19909	0	33104	32844	37976	2305	0	33016	32623	37981	
19910	0	33104	32852	37972	2306	0	33024	32637	37968	
19911	0	33104	32852	37988	2307	0	33024	32635	37951	
