0.000000000000000000e+00 3.906250000000000000e-03 7.812500000000000000e-03 1.171875000000000000e-02 1.562500000000000000e-02 1.953125000000000000e-02 2.343750000000000000e-02 2.734375000000000000e-02 3.125000000000000000e-02 3.515625000000000000e-02 3.906250000000000000e-02 4.296875000000000000e-02 4.687500000000000000e-02 5.078125000000000000e-02 5.468750000000000000e-02 5.859375000000000000e-02 6.250000000000000000e-02 6.640625000000000000e-02 7.031250000000000000e-02 7.421875000000000000e-02 7.812500000000000000e-02 8.203125000000000000e-02 8.593750000000000000e-02 8.984375000000000000e-02 9.375000000000000000e-02 9.765625000000000000e-02 1.015625000000000000e-01 1.054687500000000000e-01 1.093750000000000000e-01 1.132812500000000000e-01 1.171875000000000000e-01 1.210937500000000000e-01 1.250000000000000000e-01 1.289062500000000000e-01 1.328125000000000000e-01 1.367187500000000000e-01 1.406250000000000000e-01 1.445312500000000000e-01 1.484375000000000000e-01 1.523437500000000000e-01 1.562500000000000000e-01 1.601562500000000000e-01 1.640625000000000000e-01 1.679687500000000000e-01 1.718750000000000000e-01 1.757812500000000000e-01 1.796875000000000000e-01 1.835937500000000000e-01 1.875000000000000000e-01 1.914062500000000000e-01 1.953125000000000000e-01 1.992187500000000000e-01 2.031250000000000000e-01 2.070312500000000000e-01 2.109375000000000000e-01 2.148437500000000000e-01 2.187500000000000000e-01 2.226562500000000000e-01 2.265625000000000000e-01 2.304687500000000000e-01 2.343750000000000000e-01 2.382812500000000000e-01 2.421875000000000000e-01 2.460937500000000000e-01 2.500000000000000000e-01 2.539062500000000000e-01 2.578125000000000000e-01 2.617187500000000000e-01 2.656250000000000000e-01 2.695312500000000000e-01 2.734375000000000000e-01 2.773437500000000000e-01 2.812500000000000000e-01 2.851562500000000000e-01 2.890625000000000000e-01 2.929687500000000000e-01 2.968750000000000000e-01 3.007812500000000000e-01 3.046875000000000000e-01 3.085937500000000000e-01 3.125000000000000000e-01 3.164062500000000000e-01 3.203125000000000000e-01 3.242187500000000000e-01 3.281250000000000000e-01 3.320312500000000000e-01 3.359375000000000000e-01 3.398437500000000000e-01 3.437500000000000000e-01 3.476562500000000000e-01 3.515625000000000000e-01 3.554687500000000000e-01 3.593750000000000000e-01 3.632812500000000000e-01 3.671875000000000000e-01 3.710937500000000000e-01 3.750000000000000000e-01 3.789062500000000000e-01 3.828125000000000000e-01 3.867187500000000000e-01 3.906250000000000000e-01 3.945312500000000000e-01 3.984375000000000000e-01 4.023437500000000000e-01 4.062500000000000000e-01 4.101562500000000000e-01 4.140625000000000000e-01 4.179687500000000000e-01 4.218750000000000000e-01 4.257812500000000000e-01 4.296875000000000000e-01 4.335937500000000000e-01 4.375000000000000000e-01 4.414062500000000000e-01 4.453125000000000000e-01 4.492187500000000000e-01 4.531250000000000000e-01 4.570312500000000000e-01 4.609375000000000000e-01 4.648437500000000000e-01 4.687500000000000000e-01 4.726562500000000000e-01 4.765625000000000000e-01 4.804687500000000000e-01 4.843750000000000000e-01 4.882812500000000000e-01 4.921875000000000000e-01 4.960937500000000000e-01 5.000000000000000000e-01 5.039062500000000000e-01 5.078125000000000000e-01 5.117187500000000000e-01 5.156250000000000000e-01 5.195312500000000000e-01 5.234375000000000000e-01 5.273437500000000000e-01 5.312500000000000000e-01 5.351562500000000000e-01 5.390625000000000000e-01 5.429687500000000000e-01 5.468750000000000000e-01 5.507812500000000000e-01 5.546875000000000000e-01 5.585937500000000000e-01 5.625000000000000000e-01 5.664062500000000000e-01 5.703125000000000000e-01 5.742187500000000000e-01 5.781250000000000000e-01 5.820312500000000000e-01 5.859375000000000000e-01 5.898437500000000000e-01 5.937500000000000000e-01 5.976562500000000000e-01 6.015625000000000000e-01 6.054687500000000000e-01 6.093750000000000000e-01 6.132812500000000000e-01 6.171875000000000000e-01 6.210937500000000000e-01 6.250000000000000000e-01 6.289062500000000000e-01 6.328125000000000000e-01 6.367187500000000000e-01 6.406250000000000000e-01 6.445312500000000000e-01 6.484375000000000000e-01 6.523437500000000000e-01 6.562500000000000000e-01 6.601562500000000000e-01 6.640625000000000000e-01 6.679687500000000000e-01 6.718750000000000000e-01 6.757812500000000000e-01 6.796875000000000000e-01 6.835937500000000000e-01 6.875000000000000000e-01 6.914062500000000000e-01 6.953125000000000000e-01 6.992187500000000000e-01 7.031250000000000000e-01 7.070312500000000000e-01 7.109375000000000000e-01 7.148437500000000000e-01 7.187500000000000000e-01 7.226562500000000000e-01 7.265625000000000000e-01 7.304687500000000000e-01 7.343750000000000000e-01 7.382812500000000000e-01 7.421875000000000000e-01 7.460937500000000000e-01 7.500000000000000000e-01 7.539062500000000000e-01 7.578125000000000000e-01 7.617187500000000000e-01 7.656250000000000000e-01 7.695312500000000000e-01 7.734375000000000000e-01 7.773437500000000000e-01 7.812500000000000000e-01 7.851562500000000000e-01 7.890625000000000000e-01 7.929687500000000000e-01 7.968750000000000000e-01 8.007812500000000000e-01 8.046875000000000000e-01 8.085937500000000000e-01 8.125000000000000000e-01 8.164062500000000000e-01 8.203125000000000000e-01 8.242187500000000000e-01 8.281250000000000000e-01 8.320312500000000000e-01 8.359375000000000000e-01 8.398437500000000000e-01 8.437500000000000000e-01 8.476562500000000000e-01 8.515625000000000000e-01 8.554687500000000000e-01 8.593750000000000000e-01 8.632812500000000000e-01 8.671875000000000000e-01 8.710937500000000000e-01 8.750000000000000000e-01 8.789062500000000000e-01 8.828125000000000000e-01 8.867187500000000000e-01 8.906250000000000000e-01 8.945312500000000000e-01 8.984375000000000000e-01 9.023437500000000000e-01 9.062500000000000000e-01 9.101562500000000000e-01 9.140625000000000000e-01 9.179687500000000000e-01 9.218750000000000000e-01 9.257812500000000000e-01 9.296875000000000000e-01 9.335937500000000000e-01 9.375000000000000000e-01 9.414062500000000000e-01 9.453125000000000000e-01 9.492187500000000000e-01 9.531250000000000000e-01 9.570312500000000000e-01 9.609375000000000000e-01 9.648437500000000000e-01 9.687500000000000000e-01 9.726562500000000000e-01 9.765625000000000000e-01 9.804687500000000000e-01 9.843750000000000000e-01 9.882812500000000000e-01 9.921875000000000000e-01 9.960937500000000000e-01 1.000000000000000000e+00 1.003906250000000000e+00 1.007812500000000000e+00 1.011718750000000000e+00 1.015625000000000000e+00 1.019531250000000000e+00 1.023437500000000000e+00 1.027343750000000000e+00 1.031250000000000000e+00 1.035156250000000000e+00 1.039062500000000000e+00 1.042968750000000000e+00 1.046875000000000000e+00 1.050781250000000000e+00 1.054687500000000000e+00 1.058593750000000000e+00 1.062500000000000000e+00 1.066406250000000000e+00 1.070312500000000000e+00 1.074218750000000000e+00 1.078125000000000000e+00 1.082031250000000000e+00 1.085937500000000000e+00 1.089843750000000000e+00 1.093750000000000000e+00 1.097656250000000000e+00 1.101562500000000000e+00 1.105468750000000000e+00 1.109375000000000000e+00 1.113281250000000000e+00 1.117187500000000000e+00 1.121093750000000000e+00 1.125000000000000000e+00 1.128906250000000000e+00 1.132812500000000000e+00 1.136718750000000000e+00 1.140625000000000000e+00 1.144531250000000000e+00 1.148437500000000000e+00 1.152343750000000000e+00 1.156250000000000000e+00 1.160156250000000000e+00 1.164062500000000000e+00 1.167968750000000000e+00 1.171875000000000000e+00 1.175781250000000000e+00 1.179687500000000000e+00 1.183593750000000000e+00 1.187500000000000000e+00 1.191406250000000000e+00 1.195312500000000000e+00 1.199218750000000000e+00 1.203125000000000000e+00 1.207031250000000000e+00 1.210937500000000000e+00 1.214843750000000000e+00 1.218750000000000000e+00 1.222656250000000000e+00 1.226562500000000000e+00 1.230468750000000000e+00 1.234375000000000000e+00 1.238281250000000000e+00 1.242187500000000000e+00 1.246093750000000000e+00 1.250000000000000000e+00 1.253906250000000000e+00 1.257812500000000000e+00 1.261718750000000000e+00 1.265625000000000000e+00 1.269531250000000000e+00 1.273437500000000000e+00 1.277343750000000000e+00 1.281250000000000000e+00 1.285156250000000000e+00 1.289062500000000000e+00 1.292968750000000000e+00 1.296875000000000000e+00 1.300781250000000000e+00 1.304687500000000000e+00 1.308593750000000000e+00 1.312500000000000000e+00 1.316406250000000000e+00 1.320312500000000000e+00 1.324218750000000000e+00 1.328125000000000000e+00 1.332031250000000000e+00 1.335937500000000000e+00 1.339843750000000000e+00 1.343750000000000000e+00 1.347656250000000000e+00 1.351562500000000000e+00 1.355468750000000000e+00 1.359375000000000000e+00 1.363281250000000000e+00 1.367187500000000000e+00 1.371093750000000000e+00 1.375000000000000000e+00 1.378906250000000000e+00 1.382812500000000000e+00 1.386718750000000000e+00 1.390625000000000000e+00 1.394531250000000000e+00 1.398437500000000000e+00 1.402343750000000000e+00 1.406250000000000000e+00 1.410156250000000000e+00 1.414062500000000000e+00 1.417968750000000000e+00 1.421875000000000000e+00 1.425781250000000000e+00 1.429687500000000000e+00 1.433593750000000000e+00 1.437500000000000000e+00 1.441406250000000000e+00 1.445312500000000000e+00 1.449218750000000000e+00 1.453125000000000000e+00 1.457031250000000000e+00 1.460937500000000000e+00 1.464843750000000000e+00 1.468750000000000000e+00 1.472656250000000000e+00 1.476562500000000000e+00 1.480468750000000000e+00 1.484375000000000000e+00 1.488281250000000000e+00 1.492187500000000000e+00 1.496093750000000000e+00 1.500000000000000000e+00 1.503906250000000000e+00 1.507812500000000000e+00 1.511718750000000000e+00 1.515625000000000000e+00 1.519531250000000000e+00 1.523437500000000000e+00 1.527343750000000000e+00 1.531250000000000000e+00 1.535156250000000000e+00 1.539062500000000000e+00 1.542968750000000000e+00 1.546875000000000000e+00 1.550781250000000000e+00 1.554687500000000000e+00 1.558593750000000000e+00 1.562500000000000000e+00 1.566406250000000000e+00 1.570312500000000000e+00 1.574218750000000000e+00 1.578125000000000000e+00 1.582031250000000000e+00 1.585937500000000000e+00 1.589843750000000000e+00 1.593750000000000000e+00 1.597656250000000000e+00 1.601562500000000000e+00 1.605468750000000000e+00 1.609375000000000000e+00 1.613281250000000000e+00 1.617187500000000000e+00 1.621093750000000000e+00 1.625000000000000000e+00 1.628906250000000000e+00 1.632812500000000000e+00 1.636718750000000000e+00 1.640625000000000000e+00 1.644531250000000000e+00 1.648437500000000000e+00 1.652343750000000000e+00 1.656250000000000000e+00 1.660156250000000000e+00 1.664062500000000000e+00 1.667968750000000000e+00 1.671875000000000000e+00 1.675781250000000000e+00 1.679687500000000000e+00 1.683593750000000000e+00 1.687500000000000000e+00 1.691406250000000000e+00 1.695312500000000000e+00 1.699218750000000000e+00 1.703125000000000000e+00 1.707031250000000000e+00 1.710937500000000000e+00 1.714843750000000000e+00 1.718750000000000000e+00 1.722656250000000000e+00 1.726562500000000000e+00 1.730468750000000000e+00 1.734375000000000000e+00 1.738281250000000000e+00 1.742187500000000000e+00 1.746093750000000000e+00 1.750000000000000000e+00 1.753906250000000000e+00 1.757812500000000000e+00 1.761718750000000000e+00 1.765625000000000000e+00 1.769531250000000000e+00 1.773437500000000000e+00 1.777343750000000000e+00 1.781250000000000000e+00 1.785156250000000000e+00 1.789062500000000000e+00 1.792968750000000000e+00 1.796875000000000000e+00 1.800781250000000000e+00 1.804687500000000000e+00 1.808593750000000000e+00 1.812500000000000000e+00 1.816406250000000000e+00 1.820312500000000000e+00 1.824218750000000000e+00 1.828125000000000000e+00 1.832031250000000000e+00 1.835937500000000000e+00 1.839843750000000000e+00 1.843750000000000000e+00 1.847656250000000000e+00 1.851562500000000000e+00 1.855468750000000000e+00 1.859375000000000000e+00 1.863281250000000000e+00 1.867187500000000000e+00 1.871093750000000000e+00 1.875000000000000000e+00 1.878906250000000000e+00 1.882812500000000000e+00 1.886718750000000000e+00 1.890625000000000000e+00 1.894531250000000000e+00 1.898437500000000000e+00 1.902343750000000000e+00 1.906250000000000000e+00 1.910156250000000000e+00 1.914062500000000000e+00 1.917968750000000000e+00 1.921875000000000000e+00 1.925781250000000000e+00 1.929687500000000000e+00 1.933593750000000000e+00 1.937500000000000000e+00 1.941406250000000000e+00 1.945312500000000000e+00 1.949218750000000000e+00 1.953125000000000000e+00 1.957031250000000000e+00 1.960937500000000000e+00 1.964843750000000000e+00 1.968750000000000000e+00 1.972656250000000000e+00 1.976562500000000000e+00 1.980468750000000000e+00 1.984375000000000000e+00 1.988281250000000000e+00 1.992187500000000000e+00 1.996093750000000000e+00 2.000000000000000000e+00 2.003906250000000000e+00 2.007812500000000000e+00 2.011718750000000000e+00 2.015625000000000000e+00 2.019531250000000000e+00 2.023437500000000000e+00 2.027343750000000000e+00 2.031250000000000000e+00 2.035156250000000000e+00 2.039062500000000000e+00 2.042968750000000000e+00 2.046875000000000000e+00 2.050781250000000000e+00 2.054687500000000000e+00 2.058593750000000000e+00 2.062500000000000000e+00 2.066406250000000000e+00 2.070312500000000000e+00 2.074218750000000000e+00 2.078125000000000000e+00 2.082031250000000000e+00 2.085937500000000000e+00 2.089843750000000000e+00 2.093750000000000000e+00 2.097656250000000000e+00 2.101562500000000000e+00 2.105468750000000000e+00 2.109375000000000000e+00 2.113281250000000000e+00 2.117187500000000000e+00 2.121093750000000000e+00 2.125000000000000000e+00 2.128906250000000000e+00 2.132812500000000000e+00 2.136718750000000000e+00 2.140625000000000000e+00 2.144531250000000000e+00 2.148437500000000000e+00 2.152343750000000000e+00 2.156250000000000000e+00 2.160156250000000000e+00 2.164062500000000000e+00 2.167968750000000000e+00 2.171875000000000000e+00 2.175781250000000000e+00 2.179687500000000000e+00 2.183593750000000000e+00 2.187500000000000000e+00 2.191406250000000000e+00 2.195312500000000000e+00 2.199218750000000000e+00 2.203125000000000000e+00 2.207031250000000000e+00 2.210937500000000000e+00 2.214843750000000000e+00 2.218750000000000000e+00 2.222656250000000000e+00 2.226562500000000000e+00 2.230468750000000000e+00 2.234375000000000000e+00 2.238281250000000000e+00 2.242187500000000000e+00 2.246093750000000000e+00 2.250000000000000000e+00 2.253906250000000000e+00 2.257812500000000000e+00 2.261718750000000000e+00 2.265625000000000000e+00 2.269531250000000000e+00 2.273437500000000000e+00 2.277343750000000000e+00 2.281250000000000000e+00 2.285156250000000000e+00 2.289062500000000000e+00 2.292968750000000000e+00 2.296875000000000000e+00 2.300781250000000000e+00 2.304687500000000000e+00 2.308593750000000000e+00 2.312500000000000000e+00 2.316406250000000000e+00 2.320312500000000000e+00 2.324218750000000000e+00 2.328125000000000000e+00 2.332031250000000000e+00 2.335937500000000000e+00 2.339843750000000000e+00 2.343750000000000000e+00 2.347656250000000000e+00 2.351562500000000000e+00 2.355468750000000000e+00 2.359375000000000000e+00 2.363281250000000000e+00 2.367187500000000000e+00 2.371093750000000000e+00 2.375000000000000000e+00 2.378906250000000000e+00 2.382812500000000000e+00 2.386718750000000000e+00 2.390625000000000000e+00 2.394531250000000000e+00 2.398437500000000000e+00 2.402343750000000000e+00 2.406250000000000000e+00 2.410156250000000000e+00 2.414062500000000000e+00 2.417968750000000000e+00 2.421875000000000000e+00 2.425781250000000000e+00 2.429687500000000000e+00 2.433593750000000000e+00 2.437500000000000000e+00 2.441406250000000000e+00 2.445312500000000000e+00 2.449218750000000000e+00 2.453125000000000000e+00 2.457031250000000000e+00 2.460937500000000000e+00 2.464843750000000000e+00 2.468750000000000000e+00 2.472656250000000000e+00 2.476562500000000000e+00 2.480468750000000000e+00 2.484375000000000000e+00 2.488281250000000000e+00 2.492187500000000000e+00 2.496093750000000000e+00 2.500000000000000000e+00 2.503906250000000000e+00 2.507812500000000000e+00 2.511718750000000000e+00 2.515625000000000000e+00 2.519531250000000000e+00 2.523437500000000000e+00 2.527343750000000000e+00 2.531250000000000000e+00 2.535156250000000000e+00 2.539062500000000000e+00 2.542968750000000000e+00 2.546875000000000000e+00 2.550781250000000000e+00 2.554687500000000000e+00 2.558593750000000000e+00 2.562500000000000000e+00 2.566406250000000000e+00 2.570312500000000000e+00 2.574218750000000000e+00 2.578125000000000000e+00 2.582031250000000000e+00 2.585937500000000000e+00 2.589843750000000000e+00 2.593750000000000000e+00 2.597656250000000000e+00 2.601562500000000000e+00 2.605468750000000000e+00 2.609375000000000000e+00 2.613281250000000000e+00 2.617187500000000000e+00 2.621093750000000000e+00 2.625000000000000000e+00 2.628906250000000000e+00 2.632812500000000000e+00 2.636718750000000000e+00 2.640625000000000000e+00 2.644531250000000000e+00 2.648437500000000000e+00 2.652343750000000000e+00 2.656250000000000000e+00 2.660156250000000000e+00 2.664062500000000000e+00 2.667968750000000000e+00 2.671875000000000000e+00 2.675781250000000000e+00 2.679687500000000000e+00 2.683593750000000000e+00 2.687500000000000000e+00 2.691406250000000000e+00 2.695312500000000000e+00 2.699218750000000000e+00 2.703125000000000000e+00 2.707031250000000000e+00 2.710937500000000000e+00 2.714843750000000000e+00 2.718750000000000000e+00 2.722656250000000000e+00 2.726562500000000000e+00 2.730468750000000000e+00 2.734375000000000000e+00 2.738281250000000000e+00 2.742187500000000000e+00 2.746093750000000000e+00 2.750000000000000000e+00 2.753906250000000000e+00 2.757812500000000000e+00 2.761718750000000000e+00 2.765625000000000000e+00 2.769531250000000000e+00 2.773437500000000000e+00 2.777343750000000000e+00 2.781250000000000000e+00 2.785156250000000000e+00 2.789062500000000000e+00 2.792968750000000000e+00 2.796875000000000000e+00 2.800781250000000000e+00 2.804687500000000000e+00 2.808593750000000000e+00 2.812500000000000000e+00 2.816406250000000000e+00 2.820312500000000000e+00 2.824218750000000000e+00 2.828125000000000000e+00 2.832031250000000000e+00 2.835937500000000000e+00 2.839843750000000000e+00 2.843750000000000000e+00 2.847656250000000000e+00 2.851562500000000000e+00 2.855468750000000000e+00 2.859375000000000000e+00 2.863281250000000000e+00 2.867187500000000000e+00 2.871093750000000000e+00 2.875000000000000000e+00 2.878906250000000000e+00 2.882812500000000000e+00 2.886718750000000000e+00 2.890625000000000000e+00 2.894531250000000000e+00 2.898437500000000000e+00 2.902343750000000000e+00 2.906250000000000000e+00 2.910156250000000000e+00 2.914062500000000000e+00 2.917968750000000000e+00 2.921875000000000000e+00 2.925781250000000000e+00 2.929687500000000000e+00 2.933593750000000000e+00 2.937500000000000000e+00 2.941406250000000000e+00 2.945312500000000000e+00 2.949218750000000000e+00 2.953125000000000000e+00 2.957031250000000000e+00 2.960937500000000000e+00 2.964843750000000000e+00 2.968750000000000000e+00 2.972656250000000000e+00 2.976562500000000000e+00 2.980468750000000000e+00 2.984375000000000000e+00 2.988281250000000000e+00 2.992187500000000000e+00 2.996093750000000000e+00 3.000000000000000000e+00 3.003906250000000000e+00 3.007812500000000000e+00 3.011718750000000000e+00 3.015625000000000000e+00 3.019531250000000000e+00 3.023437500000000000e+00 3.027343750000000000e+00 3.031250000000000000e+00 3.035156250000000000e+00 3.039062500000000000e+00 3.042968750000000000e+00 3.046875000000000000e+00 3.050781250000000000e+00 3.054687500000000000e+00 3.058593750000000000e+00 3.062500000000000000e+00 3.066406250000000000e+00 3.070312500000000000e+00 3.074218750000000000e+00 3.078125000000000000e+00 3.082031250000000000e+00 3.085937500000000000e+00 3.089843750000000000e+00 3.093750000000000000e+00 3.097656250000000000e+00 3.101562500000000000e+00 3.105468750000000000e+00 3.109375000000000000e+00 3.113281250000000000e+00 3.117187500000000000e+00 3.121093750000000000e+00 3.125000000000000000e+00 3.128906250000000000e+00 3.132812500000000000e+00 3.136718750000000000e+00 3.140625000000000000e+00 3.144531250000000000e+00 3.148437500000000000e+00 3.152343750000000000e+00 3.156250000000000000e+00 3.160156250000000000e+00 3.164062500000000000e+00 3.167968750000000000e+00 3.171875000000000000e+00 3.175781250000000000e+00 3.179687500000000000e+00 3.183593750000000000e+00 3.187500000000000000e+00 3.191406250000000000e+00 3.195312500000000000e+00 3.199218750000000000e+00 3.203125000000000000e+00 3.207031250000000000e+00 3.210937500000000000e+00 3.214843750000000000e+00 3.218750000000000000e+00 3.222656250000000000e+00 3.226562500000000000e+00 3.230468750000000000e+00 3.234375000000000000e+00 3.238281250000000000e+00 3.242187500000000000e+00 3.246093750000000000e+00 3.250000000000000000e+00 3.253906250000000000e+00 3.257812500000000000e+00 3.261718750000000000e+00 3.265625000000000000e+00 3.269531250000000000e+00 3.273437500000000000e+00 3.277343750000000000e+00 3.281250000000000000e+00 3.285156250000000000e+00 3.289062500000000000e+00 3.292968750000000000e+00 3.296875000000000000e+00 3.300781250000000000e+00 3.304687500000000000e+00 3.308593750000000000e+00 3.312500000000000000e+00 3.316406250000000000e+00 3.320312500000000000e+00 3.324218750000000000e+00 3.328125000000000000e+00 3.332031250000000000e+00 3.335937500000000000e+00 3.339843750000000000e+00 3.343750000000000000e+00 3.347656250000000000e+00 3.351562500000000000e+00 3.355468750000000000e+00 3.359375000000000000e+00 3.363281250000000000e+00 3.367187500000000000e+00 3.371093750000000000e+00 3.375000000000000000e+00 3.378906250000000000e+00 3.382812500000000000e+00 3.386718750000000000e+00 3.390625000000000000e+00 3.394531250000000000e+00 3.398437500000000000e+00 3.402343750000000000e+00 3.406250000000000000e+00 3.410156250000000000e+00 3.414062500000000000e+00 3.417968750000000000e+00 3.421875000000000000e+00 3.425781250000000000e+00 3.429687500000000000e+00 3.433593750000000000e+00 3.437500000000000000e+00 3.441406250000000000e+00 3.445312500000000000e+00 3.449218750000000000e+00 3.453125000000000000e+00 3.457031250000000000e+00 3.460937500000000000e+00 3.464843750000000000e+00 3.468750000000000000e+00 3.472656250000000000e+00 3.476562500000000000e+00 3.480468750000000000e+00 3.484375000000000000e+00 3.488281250000000000e+00 3.492187500000000000e+00 3.496093750000000000e+00 3.500000000000000000e+00 3.503906250000000000e+00 3.507812500000000000e+00 3.511718750000000000e+00 3.515625000000000000e+00 3.519531250000000000e+00 3.523437500000000000e+00 3.527343750000000000e+00 3.531250000000000000e+00 3.535156250000000000e+00 3.539062500000000000e+00 3.542968750000000000e+00 3.546875000000000000e+00 3.550781250000000000e+00 3.554687500000000000e+00 3.558593750000000000e+00 3.562500000000000000e+00 3.566406250000000000e+00 3.570312500000000000e+00 3.574218750000000000e+00 3.578125000000000000e+00 3.582031250000000000e+00 3.585937500000000000e+00 3.589843750000000000e+00 3.593750000000000000e+00 3.597656250000000000e+00 3.601562500000000000e+00 3.605468750000000000e+00 3.609375000000000000e+00 3.613281250000000000e+00 3.617187500000000000e+00 3.621093750000000000e+00 3.625000000000000000e+00 3.628906250000000000e+00 3.632812500000000000e+00 3.636718750000000000e+00 3.640625000000000000e+00 3.644531250000000000e+00 3.648437500000000000e+00 3.652343750000000000e+00 3.656250000000000000e+00 3.660156250000000000e+00 3.664062500000000000e+00 3.667968750000000000e+00 3.671875000000000000e+00 3.675781250000000000e+00 3.679687500000000000e+00 3.683593750000000000e+00 3.687500000000000000e+00 3.691406250000000000e+00 3.695312500000000000e+00 3.699218750000000000e+00 3.703125000000000000e+00 3.707031250000000000e+00 3.710937500000000000e+00 3.714843750000000000e+00 3.718750000000000000e+00 3.722656250000000000e+00 3.726562500000000000e+00 3.730468750000000000e+00 3.734375000000000000e+00 3.738281250000000000e+00 3.742187500000000000e+00 3.746093750000000000e+00 3.750000000000000000e+00 3.753906250000000000e+00 3.757812500000000000e+00 3.761718750000000000e+00 3.765625000000000000e+00 3.769531250000000000e+00 3.773437500000000000e+00 3.777343750000000000e+00 3.781250000000000000e+00 3.785156250000000000e+00 3.789062500000000000e+00 3.792968750000000000e+00 3.796875000000000000e+00 3.800781250000000000e+00 3.804687500000000000e+00 3.808593750000000000e+00 3.812500000000000000e+00 3.816406250000000000e+00 3.820312500000000000e+00 3.824218750000000000e+00 3.828125000000000000e+00 3.832031250000000000e+00 3.835937500000000000e+00 3.839843750000000000e+00 3.843750000000000000e+00 3.847656250000000000e+00 3.851562500000000000e+00 3.855468750000000000e+00 3.859375000000000000e+00 3.863281250000000000e+00 3.867187500000000000e+00 3.871093750000000000e+00 3.875000000000000000e+00 3.878906250000000000e+00 3.882812500000000000e+00 3.886718750000000000e+00 3.890625000000000000e+00 3.894531250000000000e+00 3.898437500000000000e+00 3.902343750000000000e+00 3.906250000000000000e+00 3.910156250000000000e+00 3.914062500000000000e+00 3.917968750000000000e+00 3.921875000000000000e+00 3.925781250000000000e+00 3.929687500000000000e+00 3.933593750000000000e+00 3.937500000000000000e+00 3.941406250000000000e+00 3.945312500000000000e+00 3.949218750000000000e+00 3.953125000000000000e+00 3.957031250000000000e+00 3.960937500000000000e+00 3.964843750000000000e+00 3.968750000000000000e+00 3.972656250000000000e+00 3.976562500000000000e+00 3.980468750000000000e+00 3.984375000000000000e+00 3.988281250000000000e+00 3.992187500000000000e+00 3.996093750000000000e+00 4.000000000000000000e+00 4.003906250000000000e+00 4.007812500000000000e+00 4.011718750000000000e+00 4.015625000000000000e+00 4.019531250000000000e+00 4.023437500000000000e+00 4.027343750000000000e+00 4.031250000000000000e+00 4.035156250000000000e+00 4.039062500000000000e+00 4.042968750000000000e+00 4.046875000000000000e+00 4.050781250000000000e+00 4.054687500000000000e+00 4.058593750000000000e+00 4.062500000000000000e+00 4.066406250000000000e+00 4.070312500000000000e+00 4.074218750000000000e+00 4.078125000000000000e+00 4.082031250000000000e+00 4.085937500000000000e+00 4.089843750000000000e+00 4.093750000000000000e+00 4.097656250000000000e+00 4.101562500000000000e+00 4.105468750000000000e+00 4.109375000000000000e+00 4.113281250000000000e+00 4.117187500000000000e+00 4.121093750000000000e+00 4.125000000000000000e+00 4.128906250000000000e+00 4.132812500000000000e+00 4.136718750000000000e+00 4.140625000000000000e+00 4.144531250000000000e+00 4.148437500000000000e+00 4.152343750000000000e+00 4.156250000000000000e+00 4.160156250000000000e+00 4.164062500000000000e+00 4.167968750000000000e+00 4.171875000000000000e+00 4.175781250000000000e+00 4.179687500000000000e+00 4.183593750000000000e+00 4.187500000000000000e+00 4.191406250000000000e+00 4.195312500000000000e+00 4.199218750000000000e+00 4.203125000000000000e+00 4.207031250000000000e+00 4.210937500000000000e+00 4.214843750000000000e+00 4.218750000000000000e+00 4.222656250000000000e+00 4.226562500000000000e+00 4.230468750000000000e+00 4.234375000000000000e+00 4.238281250000000000e+00 4.242187500000000000e+00 4.246093750000000000e+00 4.250000000000000000e+00 4.253906250000000000e+00 4.257812500000000000e+00 4.261718750000000000e+00 4.265625000000000000e+00 4.269531250000000000e+00 4.273437500000000000e+00 4.277343750000000000e+00 4.281250000000000000e+00 4.285156250000000000e+00 4.289062500000000000e+00 4.292968750000000000e+00 4.296875000000000000e+00 4.300781250000000000e+00 4.304687500000000000e+00 4.308593750000000000e+00 4.312500000000000000e+00 4.316406250000000000e+00 4.320312500000000000e+00 4.324218750000000000e+00 4.328125000000000000e+00 4.332031250000000000e+00 4.335937500000000000e+00 4.339843750000000000e+00 4.343750000000000000e+00 4.347656250000000000e+00 4.351562500000000000e+00 4.355468750000000000e+00 4.359375000000000000e+00 4.363281250000000000e+00 4.367187500000000000e+00 4.371093750000000000e+00 4.375000000000000000e+00 4.378906250000000000e+00 4.382812500000000000e+00 4.386718750000000000e+00 4.390625000000000000e+00 4.394531250000000000e+00 4.398437500000000000e+00 4.402343750000000000e+00 4.406250000000000000e+00 4.410156250000000000e+00 4.414062500000000000e+00 4.417968750000000000e+00 4.421875000000000000e+00 4.425781250000000000e+00 4.429687500000000000e+00 4.433593750000000000e+00 4.437500000000000000e+00 4.441406250000000000e+00 4.445312500000000000e+00 4.449218750000000000e+00 4.453125000000000000e+00 4.457031250000000000e+00 4.460937500000000000e+00 4.464843750000000000e+00 4.468750000000000000e+00 4.472656250000000000e+00 4.476562500000000000e+00 4.480468750000000000e+00 4.484375000000000000e+00 4.488281250000000000e+00 4.492187500000000000e+00 4.496093750000000000e+00 4.500000000000000000e+00 4.503906250000000000e+00 4.507812500000000000e+00 4.511718750000000000e+00 4.515625000000000000e+00 4.519531250000000000e+00 4.523437500000000000e+00 4.527343750000000000e+00 4.531250000000000000e+00 4.535156250000000000e+00 4.539062500000000000e+00 4.542968750000000000e+00 4.546875000000000000e+00 4.550781250000000000e+00 4.554687500000000000e+00 4.558593750000000000e+00 4.562500000000000000e+00 4.566406250000000000e+00 4.570312500000000000e+00 4.574218750000000000e+00 4.578125000000000000e+00 4.582031250000000000e+00 4.585937500000000000e+00 4.589843750000000000e+00 4.593750000000000000e+00 4.597656250000000000e+00 4.601562500000000000e+00 4.605468750000000000e+00 4.609375000000000000e+00 4.613281250000000000e+00 4.617187500000000000e+00 4.621093750000000000e+00 4.625000000000000000e+00 4.628906250000000000e+00 4.632812500000000000e+00 4.636718750000000000e+00 4.640625000000000000e+00 4.644531250000000000e+00 4.648437500000000000e+00 4.652343750000000000e+00 4.656250000000000000e+00 4.660156250000000000e+00 4.664062500000000000e+00 4.667968750000000000e+00 4.671875000000000000e+00 4.675781250000000000e+00 4.679687500000000000e+00 4.683593750000000000e+00 4.687500000000000000e+00 4.691406250000000000e+00 4.695312500000000000e+00 4.699218750000000000e+00 4.703125000000000000e+00 4.707031250000000000e+00 4.710937500000000000e+00 4.714843750000000000e+00 4.718750000000000000e+00 4.722656250000000000e+00 4.726562500000000000e+00 4.730468750000000000e+00 4.734375000000000000e+00 4.738281250000000000e+00 4.742187500000000000e+00 4.746093750000000000e+00 4.750000000000000000e+00 4.753906250000000000e+00 4.757812500000000000e+00 4.761718750000000000e+00 4.765625000000000000e+00 4.769531250000000000e+00 4.773437500000000000e+00 4.777343750000000000e+00 4.781250000000000000e+00 4.785156250000000000e+00 4.789062500000000000e+00 4.792968750000000000e+00 4.796875000000000000e+00 4.800781250000000000e+00 4.804687500000000000e+00 4.808593750000000000e+00 4.812500000000000000e+00 4.816406250000000000e+00 4.820312500000000000e+00 4.824218750000000000e+00 4.828125000000000000e+00 4.832031250000000000e+00 4.835937500000000000e+00 4.839843750000000000e+00 4.843750000000000000e+00 4.847656250000000000e+00 4.851562500000000000e+00 4.855468750000000000e+00 4.859375000000000000e+00 4.863281250000000000e+00 4.867187500000000000e+00 4.871093750000000000e+00 4.875000000000000000e+00 4.878906250000000000e+00 4.882812500000000000e+00 4.886718750000000000e+00 4.890625000000000000e+00 4.894531250000000000e+00 4.898437500000000000e+00 4.902343750000000000e+00 4.906250000000000000e+00 4.910156250000000000e+00 4.914062500000000000e+00 4.917968750000000000e+00 4.921875000000000000e+00 4.925781250000000000e+00 4.929687500000000000e+00 4.933593750000000000e+00 4.937500000000000000e+00 4.941406250000000000e+00 4.945312500000000000e+00 4.949218750000000000e+00 4.953125000000000000e+00 4.957031250000000000e+00 4.960937500000000000e+00 4.964843750000000000e+00 4.968750000000000000e+00 4.972656250000000000e+00 4.976562500000000000e+00 4.980468750000000000e+00 4.984375000000000000e+00 4.988281250000000000e+00 4.992187500000000000e+00 4.996093750000000000e+00 5.000000000000000000e+00 5.003906250000000000e+00 5.007812500000000000e+00 5.011718750000000000e+00 5.015625000000000000e+00 5.019531250000000000e+00 5.023437500000000000e+00 5.027343750000000000e+00 5.031250000000000000e+00 5.035156250000000000e+00 5.039062500000000000e+00 5.042968750000000000e+00 5.046875000000000000e+00 5.050781250000000000e+00 5.054687500000000000e+00 5.058593750000000000e+00 5.062500000000000000e+00 5.066406250000000000e+00 5.070312500000000000e+00 5.074218750000000000e+00 5.078125000000000000e+00 5.082031250000000000e+00 5.085937500000000000e+00 5.089843750000000000e+00 5.093750000000000000e+00 5.097656250000000000e+00 5.101562500000000000e+00 5.105468750000000000e+00 5.109375000000000000e+00 5.113281250000000000e+00 5.117187500000000000e+00 5.121093750000000000e+00 5.125000000000000000e+00 5.128906250000000000e+00 5.132812500000000000e+00 5.136718750000000000e+00 5.140625000000000000e+00 5.144531250000000000e+00 5.148437500000000000e+00 5.152343750000000000e+00 5.156250000000000000e+00 5.160156250000000000e+00 5.164062500000000000e+00 5.167968750000000000e+00 5.171875000000000000e+00 5.175781250000000000e+00 5.179687500000000000e+00 5.183593750000000000e+00 5.187500000000000000e+00 5.191406250000000000e+00 5.195312500000000000e+00 5.199218750000000000e+00 5.203125000000000000e+00 5.207031250000000000e+00 5.210937500000000000e+00 5.214843750000000000e+00 5.218750000000000000e+00 5.222656250000000000e+00 5.226562500000000000e+00 5.230468750000000000e+00 5.234375000000000000e+00 5.238281250000000000e+00 5.242187500000000000e+00 5.246093750000000000e+00 5.250000000000000000e+00 5.253906250000000000e+00 5.257812500000000000e+00 5.261718750000000000e+00 5.265625000000000000e+00 5.269531250000000000e+00 5.273437500000000000e+00 5.277343750000000000e+00 5.281250000000000000e+00 5.285156250000000000e+00 5.289062500000000000e+00 5.292968750000000000e+00 5.296875000000000000e+00 5.300781250000000000e+00 5.304687500000000000e+00 5.308593750000000000e+00 5.312500000000000000e+00 5.316406250000000000e+00 5.320312500000000000e+00 5.324218750000000000e+00 5.328125000000000000e+00 5.332031250000000000e+00 5.335937500000000000e+00 5.339843750000000000e+00 5.343750000000000000e+00 5.347656250000000000e+00 5.351562500000000000e+00 5.355468750000000000e+00 5.359375000000000000e+00 5.363281250000000000e+00 5.367187500000000000e+00 5.371093750000000000e+00 5.375000000000000000e+00 5.378906250000000000e+00 5.382812500000000000e+00 5.386718750000000000e+00 5.390625000000000000e+00 5.394531250000000000e+00 5.398437500000000000e+00 5.402343750000000000e+00 5.406250000000000000e+00 5.410156250000000000e+00 5.414062500000000000e+00 5.417968750000000000e+00 5.421875000000000000e+00 5.425781250000000000e+00 5.429687500000000000e+00 5.433593750000000000e+00 5.437500000000000000e+00 5.441406250000000000e+00 5.445312500000000000e+00 5.449218750000000000e+00 5.453125000000000000e+00 5.457031250000000000e+00 5.460937500000000000e+00 5.464843750000000000e+00 5.468750000000000000e+00 5.472656250000000000e+00 5.476562500000000000e+00 5.480468750000000000e+00 5.484375000000000000e+00 5.488281250000000000e+00 5.492187500000000000e+00 5.496093750000000000e+00 5.500000000000000000e+00 5.503906250000000000e+00 5.507812500000000000e+00 5.511718750000000000e+00 5.515625000000000000e+00 5.519531250000000000e+00 5.523437500000000000e+00 5.527343750000000000e+00 5.531250000000000000e+00 5.535156250000000000e+00 5.539062500000000000e+00 5.542968750000000000e+00 5.546875000000000000e+00 5.550781250000000000e+00 5.554687500000000000e+00 5.558593750000000000e+00 5.562500000000000000e+00 5.566406250000000000e+00 5.570312500000000000e+00 5.574218750000000000e+00 5.578125000000000000e+00 5.582031250000000000e+00 5.585937500000000000e+00 5.589843750000000000e+00 5.593750000000000000e+00 5.597656250000000000e+00 5.601562500000000000e+00 5.605468750000000000e+00 5.609375000000000000e+00 5.613281250000000000e+00 5.617187500000000000e+00 5.621093750000000000e+00 5.625000000000000000e+00 5.628906250000000000e+00 5.632812500000000000e+00 5.636718750000000000e+00 5.640625000000000000e+00 5.644531250000000000e+00 5.648437500000000000e+00 5.652343750000000000e+00 5.656250000000000000e+00 5.660156250000000000e+00 5.664062500000000000e+00 5.667968750000000000e+00 5.671875000000000000e+00 5.675781250000000000e+00 5.679687500000000000e+00 5.683593750000000000e+00 5.687500000000000000e+00 5.691406250000000000e+00 5.695312500000000000e+00 5.699218750000000000e+00 5.703125000000000000e+00 5.707031250000000000e+00 5.710937500000000000e+00 5.714843750000000000e+00 5.718750000000000000e+00 5.722656250000000000e+00 5.726562500000000000e+00 5.730468750000000000e+00 5.734375000000000000e+00 5.738281250000000000e+00 5.742187500000000000e+00 5.746093750000000000e+00 5.750000000000000000e+00 5.753906250000000000e+00 5.757812500000000000e+00 5.761718750000000000e+00 5.765625000000000000e+00 5.769531250000000000e+00 5.773437500000000000e+00 5.777343750000000000e+00 5.781250000000000000e+00 5.785156250000000000e+00 5.789062500000000000e+00 5.792968750000000000e+00 5.796875000000000000e+00 5.800781250000000000e+00 5.804687500000000000e+00 5.808593750000000000e+00 5.812500000000000000e+00 5.816406250000000000e+00 5.820312500000000000e+00 5.824218750000000000e+00 5.828125000000000000e+00 5.832031250000000000e+00 5.835937500000000000e+00 5.839843750000000000e+00 5.843750000000000000e+00 5.847656250000000000e+00 5.851562500000000000e+00 5.855468750000000000e+00 5.859375000000000000e+00 5.863281250000000000e+00 5.867187500000000000e+00 5.871093750000000000e+00 5.875000000000000000e+00 5.878906250000000000e+00 5.882812500000000000e+00 5.886718750000000000e+00 5.890625000000000000e+00 5.894531250000000000e+00 5.898437500000000000e+00 5.902343750000000000e+00 5.906250000000000000e+00 5.910156250000000000e+00 5.914062500000000000e+00 5.917968750000000000e+00 5.921875000000000000e+00 5.925781250000000000e+00 5.929687500000000000e+00 5.933593750000000000e+00 5.937500000000000000e+00 5.941406250000000000e+00 5.945312500000000000e+00 5.949218750000000000e+00 5.953125000000000000e+00 5.957031250000000000e+00 5.960937500000000000e+00 5.964843750000000000e+00 5.968750000000000000e+00 5.972656250000000000e+00 5.976562500000000000e+00 5.980468750000000000e+00 5.984375000000000000e+00 5.988281250000000000e+00 5.992187500000000000e+00 5.996093750000000000e+00 6.000000000000000000e+00 6.003906250000000000e+00 6.007812500000000000e+00 6.011718750000000000e+00 6.015625000000000000e+00 6.019531250000000000e+00 6.023437500000000000e+00 6.027343750000000000e+00 6.031250000000000000e+00 6.035156250000000000e+00 6.039062500000000000e+00 6.042968750000000000e+00 6.046875000000000000e+00 6.050781250000000000e+00 6.054687500000000000e+00 6.058593750000000000e+00 6.062500000000000000e+00 6.066406250000000000e+00 6.070312500000000000e+00 6.074218750000000000e+00 6.078125000000000000e+00 6.082031250000000000e+00 6.085937500000000000e+00 6.089843750000000000e+00 6.093750000000000000e+00 6.097656250000000000e+00 6.101562500000000000e+00 6.105468750000000000e+00 6.109375000000000000e+00 6.113281250000000000e+00 6.117187500000000000e+00 6.121093750000000000e+00 6.125000000000000000e+00 6.128906250000000000e+00 6.132812500000000000e+00 6.136718750000000000e+00 6.140625000000000000e+00 6.144531250000000000e+00 6.148437500000000000e+00 6.152343750000000000e+00 6.156250000000000000e+00 6.160156250000000000e+00 6.164062500000000000e+00 6.167968750000000000e+00 6.171875000000000000e+00 6.175781250000000000e+00 6.179687500000000000e+00 6.183593750000000000e+00 6.187500000000000000e+00 6.191406250000000000e+00 6.195312500000000000e+00 6.199218750000000000e+00 6.203125000000000000e+00 6.207031250000000000e+00 6.210937500000000000e+00 6.214843750000000000e+00 6.218750000000000000e+00 6.222656250000000000e+00 6.226562500000000000e+00 6.230468750000000000e+00 6.234375000000000000e+00 6.238281250000000000e+00 6.242187500000000000e+00 6.246093750000000000e+00 6.250000000000000000e+00 6.253906250000000000e+00 6.257812500000000000e+00 6.261718750000000000e+00 6.265625000000000000e+00 6.269531250000000000e+00 6.273437500000000000e+00 6.277343750000000000e+00 6.281250000000000000e+00 6.285156250000000000e+00 6.289062500000000000e+00 6.292968750000000000e+00 6.296875000000000000e+00 6.300781250000000000e+00 6.304687500000000000e+00 6.308593750000000000e+00 6.312500000000000000e+00 6.316406250000000000e+00 6.320312500000000000e+00 6.324218750000000000e+00 6.328125000000000000e+00 6.332031250000000000e+00 6.335937500000000000e+00 6.339843750000000000e+00 6.343750000000000000e+00 6.347656250000000000e+00 6.351562500000000000e+00 6.355468750000000000e+00 6.359375000000000000e+00 6.363281250000000000e+00 6.367187500000000000e+00 6.371093750000000000e+00 6.375000000000000000e+00 6.378906250000000000e+00 6.382812500000000000e+00 6.386718750000000000e+00 6.390625000000000000e+00 6.394531250000000000e+00 6.398437500000000000e+00 6.402343750000000000e+00 6.406250000000000000e+00 6.410156250000000000e+00 6.414062500000000000e+00 6.417968750000000000e+00 6.421875000000000000e+00 6.425781250000000000e+00 6.429687500000000000e+00 6.433593750000000000e+00 6.437500000000000000e+00 6.441406250000000000e+00 6.445312500000000000e+00 6.449218750000000000e+00 6.453125000000000000e+00 6.457031250000000000e+00 6.460937500000000000e+00 6.464843750000000000e+00 6.468750000000000000e+00 6.472656250000000000e+00 6.476562500000000000e+00 6.480468750000000000e+00 6.484375000000000000e+00 6.488281250000000000e+00 6.492187500000000000e+00 6.496093750000000000e+00 6.500000000000000000e+00 6.503906250000000000e+00 6.507812500000000000e+00 6.511718750000000000e+00 6.515625000000000000e+00 6.519531250000000000e+00 6.523437500000000000e+00 6.527343750000000000e+00 6.531250000000000000e+00 6.535156250000000000e+00 6.539062500000000000e+00 6.542968750000000000e+00 6.546875000000000000e+00 6.550781250000000000e+00 6.554687500000000000e+00 6.558593750000000000e+00 6.562500000000000000e+00 6.566406250000000000e+00 6.570312500000000000e+00 6.574218750000000000e+00 6.578125000000000000e+00 6.582031250000000000e+00 6.585937500000000000e+00 6.589843750000000000e+00 6.593750000000000000e+00 6.597656250000000000e+00 6.601562500000000000e+00 6.605468750000000000e+00 6.609375000000000000e+00 6.613281250000000000e+00 6.617187500000000000e+00 6.621093750000000000e+00 6.625000000000000000e+00 6.628906250000000000e+00 6.632812500000000000e+00 6.636718750000000000e+00 6.640625000000000000e+00 6.644531250000000000e+00 6.648437500000000000e+00 6.652343750000000000e+00 6.656250000000000000e+00 6.660156250000000000e+00 6.664062500000000000e+00 6.667968750000000000e+00 6.671875000000000000e+00 6.675781250000000000e+00 6.679687500000000000e+00 6.683593750000000000e+00 6.687500000000000000e+00 6.691406250000000000e+00 6.695312500000000000e+00 6.699218750000000000e+00 6.703125000000000000e+00 6.707031250000000000e+00 6.710937500000000000e+00 6.714843750000000000e+00 6.718750000000000000e+00 6.722656250000000000e+00 6.726562500000000000e+00 6.730468750000000000e+00 6.734375000000000000e+00 6.738281250000000000e+00 6.742187500000000000e+00 6.746093750000000000e+00 6.750000000000000000e+00 6.753906250000000000e+00 6.757812500000000000e+00 6.761718750000000000e+00 6.765625000000000000e+00 6.769531250000000000e+00 6.773437500000000000e+00 6.777343750000000000e+00 6.781250000000000000e+00 6.785156250000000000e+00 6.789062500000000000e+00 6.792968750000000000e+00 6.796875000000000000e+00 6.800781250000000000e+00 6.804687500000000000e+00 6.808593750000000000e+00 6.812500000000000000e+00 6.816406250000000000e+00 6.820312500000000000e+00 6.824218750000000000e+00 6.828125000000000000e+00 6.832031250000000000e+00 6.835937500000000000e+00 6.839843750000000000e+00 6.843750000000000000e+00 6.847656250000000000e+00 6.851562500000000000e+00 6.855468750000000000e+00 6.859375000000000000e+00 6.863281250000000000e+00 6.867187500000000000e+00 6.871093750000000000e+00 6.875000000000000000e+00 6.878906250000000000e+00 6.882812500000000000e+00 6.886718750000000000e+00 6.890625000000000000e+00 6.894531250000000000e+00 6.898437500000000000e+00 6.902343750000000000e+00 6.906250000000000000e+00 6.910156250000000000e+00 6.914062500000000000e+00 6.917968750000000000e+00 6.921875000000000000e+00 6.925781250000000000e+00 6.929687500000000000e+00 6.933593750000000000e+00 6.937500000000000000e+00 6.941406250000000000e+00 6.945312500000000000e+00 6.949218750000000000e+00 6.953125000000000000e+00 6.957031250000000000e+00 6.960937500000000000e+00 6.964843750000000000e+00 6.968750000000000000e+00 6.972656250000000000e+00 6.976562500000000000e+00 6.980468750000000000e+00 6.984375000000000000e+00 6.988281250000000000e+00 6.992187500000000000e+00 6.996093750000000000e+00 7.000000000000000000e+00 7.003906250000000000e+00 7.007812500000000000e+00 7.011718750000000000e+00 7.015625000000000000e+00 7.019531250000000000e+00 7.023437500000000000e+00 7.027343750000000000e+00 7.031250000000000000e+00 7.035156250000000000e+00 7.039062500000000000e+00 7.042968750000000000e+00 7.046875000000000000e+00 7.050781250000000000e+00 7.054687500000000000e+00 7.058593750000000000e+00 7.062500000000000000e+00 7.066406250000000000e+00 7.070312500000000000e+00 7.074218750000000000e+00 7.078125000000000000e+00 7.082031250000000000e+00 7.085937500000000000e+00 7.089843750000000000e+00 7.093750000000000000e+00 7.097656250000000000e+00 7.101562500000000000e+00 7.105468750000000000e+00 7.109375000000000000e+00 7.113281250000000000e+00 7.117187500000000000e+00 7.121093750000000000e+00 7.125000000000000000e+00 7.128906250000000000e+00 7.132812500000000000e+00 7.136718750000000000e+00 7.140625000000000000e+00 7.144531250000000000e+00 7.148437500000000000e+00 7.152343750000000000e+00 7.156250000000000000e+00 7.160156250000000000e+00 7.164062500000000000e+00 7.167968750000000000e+00 7.171875000000000000e+00 7.175781250000000000e+00 7.179687500000000000e+00 7.183593750000000000e+00 7.187500000000000000e+00 7.191406250000000000e+00 7.195312500000000000e+00 7.199218750000000000e+00 7.203125000000000000e+00 7.207031250000000000e+00 7.210937500000000000e+00 7.214843750000000000e+00 7.218750000000000000e+00 7.222656250000000000e+00 7.226562500000000000e+00 7.230468750000000000e+00 7.234375000000000000e+00 7.238281250000000000e+00 7.242187500000000000e+00 7.246093750000000000e+00 7.250000000000000000e+00 7.253906250000000000e+00 7.257812500000000000e+00 7.261718750000000000e+00 7.265625000000000000e+00 7.269531250000000000e+00 7.273437500000000000e+00 7.277343750000000000e+00 7.281250000000000000e+00 7.285156250000000000e+00 7.289062500000000000e+00 7.292968750000000000e+00 7.296875000000000000e+00 7.300781250000000000e+00 7.304687500000000000e+00 7.308593750000000000e+00 7.312500000000000000e+00 7.316406250000000000e+00 7.320312500000000000e+00 7.324218750000000000e+00 7.328125000000000000e+00 7.332031250000000000e+00 7.335937500000000000e+00 7.339843750000000000e+00 7.343750000000000000e+00 7.347656250000000000e+00 7.351562500000000000e+00 7.355468750000000000e+00 7.359375000000000000e+00 7.363281250000000000e+00 7.367187500000000000e+00 7.371093750000000000e+00 7.375000000000000000e+00 7.378906250000000000e+00 7.382812500000000000e+00 7.386718750000000000e+00 7.390625000000000000e+00 7.394531250000000000e+00 7.398437500000000000e+00 7.402343750000000000e+00 7.406250000000000000e+00 7.410156250000000000e+00 7.414062500000000000e+00 7.417968750000000000e+00 7.421875000000000000e+00 7.425781250000000000e+00 7.429687500000000000e+00 7.433593750000000000e+00 7.437500000000000000e+00 7.441406250000000000e+00 7.445312500000000000e+00 7.449218750000000000e+00 7.453125000000000000e+00 7.457031250000000000e+00 7.460937500000000000e+00 7.464843750000000000e+00 7.468750000000000000e+00 7.472656250000000000e+00 7.476562500000000000e+00 7.480468750000000000e+00 7.484375000000000000e+00 7.488281250000000000e+00 7.492187500000000000e+00 7.496093750000000000e+00 7.500000000000000000e+00 7.503906250000000000e+00 7.507812500000000000e+00 7.511718750000000000e+00 7.515625000000000000e+00 7.519531250000000000e+00 7.523437500000000000e+00 7.527343750000000000e+00 7.531250000000000000e+00 7.535156250000000000e+00 7.539062500000000000e+00 7.542968750000000000e+00 7.546875000000000000e+00 7.550781250000000000e+00 7.554687500000000000e+00 7.558593750000000000e+00 7.562500000000000000e+00 7.566406250000000000e+00 7.570312500000000000e+00 7.574218750000000000e+00 7.578125000000000000e+00 7.582031250000000000e+00 7.585937500000000000e+00 7.589843750000000000e+00 7.593750000000000000e+00 7.597656250000000000e+00 7.601562500000000000e+00 7.605468750000000000e+00 7.609375000000000000e+00 7.613281250000000000e+00 7.617187500000000000e+00 7.621093750000000000e+00 7.625000000000000000e+00 7.628906250000000000e+00 7.632812500000000000e+00 7.636718750000000000e+00 7.640625000000000000e+00 7.644531250000000000e+00 7.648437500000000000e+00 7.652343750000000000e+00 7.656250000000000000e+00 7.660156250000000000e+00 7.664062500000000000e+00 7.667968750000000000e+00 7.671875000000000000e+00 7.675781250000000000e+00 7.679687500000000000e+00 7.683593750000000000e+00 7.687500000000000000e+00 7.691406250000000000e+00 7.695312500000000000e+00 7.699218750000000000e+00 7.703125000000000000e+00 7.707031250000000000e+00 7.710937500000000000e+00 7.714843750000000000e+00 7.718750000000000000e+00 7.722656250000000000e+00 7.726562500000000000e+00 7.730468750000000000e+00 7.734375000000000000e+00 7.738281250000000000e+00 7.742187500000000000e+00 7.746093750000000000e+00 7.750000000000000000e+00 7.753906250000000000e+00 7.757812500000000000e+00 7.761718750000000000e+00 7.765625000000000000e+00 7.769531250000000000e+00 7.773437500000000000e+00 7.777343750000000000e+00 7.781250000000000000e+00 7.785156250000000000e+00 7.789062500000000000e+00 7.792968750000000000e+00 7.796875000000000000e+00 7.800781250000000000e+00 7.804687500000000000e+00 7.808593750000000000e+00 7.812500000000000000e+00 7.816406250000000000e+00 7.820312500000000000e+00 7.824218750000000000e+00 7.828125000000000000e+00 7.832031250000000000e+00 7.835937500000000000e+00 7.839843750000000000e+00 7.843750000000000000e+00 7.847656250000000000e+00 7.851562500000000000e+00 7.855468750000000000e+00 7.859375000000000000e+00 7.863281250000000000e+00 7.867187500000000000e+00 7.871093750000000000e+00 7.875000000000000000e+00 7.878906250000000000e+00 7.882812500000000000e+00 7.886718750000000000e+00 7.890625000000000000e+00 7.894531250000000000e+00 7.898437500000000000e+00 7.902343750000000000e+00 7.906250000000000000e+00 7.910156250000000000e+00 7.914062500000000000e+00 7.917968750000000000e+00 7.921875000000000000e+00 7.925781250000000000e+00 7.929687500000000000e+00 7.933593750000000000e+00 7.937500000000000000e+00 7.941406250000000000e+00 7.945312500000000000e+00 7.949218750000000000e+00 7.953125000000000000e+00 7.957031250000000000e+00 7.960937500000000000e+00 7.964843750000000000e+00 7.968750000000000000e+00 7.972656250000000000e+00 7.976562500000000000e+00 7.980468750000000000e+00 7.984375000000000000e+00 7.988281250000000000e+00 7.992187500000000000e+00 7.996093750000000000e+00 8.000000000000000000e+00 8.003906250000000000e+00 8.007812500000000000e+00 8.011718750000000000e+00 8.015625000000000000e+00 8.019531250000000000e+00 8.023437500000000000e+00 8.027343750000000000e+00 8.031250000000000000e+00 8.035156250000000000e+00 8.039062500000000000e+00 8.042968750000000000e+00 8.046875000000000000e+00 8.050781250000000000e+00 8.054687500000000000e+00 8.058593750000000000e+00 8.062500000000000000e+00 8.066406250000000000e+00 8.070312500000000000e+00 8.074218750000000000e+00 8.078125000000000000e+00 8.082031250000000000e+00 8.085937500000000000e+00 8.089843750000000000e+00 8.093750000000000000e+00 8.097656250000000000e+00 8.101562500000000000e+00 8.105468750000000000e+00 8.109375000000000000e+00 8.113281250000000000e+00 8.117187500000000000e+00 8.121093750000000000e+00 8.125000000000000000e+00 8.128906250000000000e+00 8.132812500000000000e+00 8.136718750000000000e+00 8.140625000000000000e+00 8.144531250000000000e+00 8.148437500000000000e+00 8.152343750000000000e+00 8.156250000000000000e+00 8.160156250000000000e+00 8.164062500000000000e+00 8.167968750000000000e+00 8.171875000000000000e+00 8.175781250000000000e+00 8.179687500000000000e+00 8.183593750000000000e+00 8.187500000000000000e+00 8.191406250000000000e+00 8.195312500000000000e+00 8.199218750000000000e+00 8.203125000000000000e+00 8.207031250000000000e+00 8.210937500000000000e+00 8.214843750000000000e+00 8.218750000000000000e+00 8.222656250000000000e+00 8.226562500000000000e+00 8.230468750000000000e+00 8.234375000000000000e+00 8.238281250000000000e+00 8.242187500000000000e+00 8.246093750000000000e+00 8.250000000000000000e+00 8.253906250000000000e+00 8.257812500000000000e+00 8.261718750000000000e+00 8.265625000000000000e+00 8.269531250000000000e+00 8.273437500000000000e+00 8.277343750000000000e+00 8.281250000000000000e+00 8.285156250000000000e+00 8.289062500000000000e+00 8.292968750000000000e+00 8.296875000000000000e+00 8.300781250000000000e+00 8.304687500000000000e+00 8.308593750000000000e+00 8.312500000000000000e+00 8.316406250000000000e+00 8.320312500000000000e+00 8.324218750000000000e+00 8.328125000000000000e+00 8.332031250000000000e+00 8.335937500000000000e+00 8.339843750000000000e+00 8.343750000000000000e+00 8.347656250000000000e+00 8.351562500000000000e+00 8.355468750000000000e+00 8.359375000000000000e+00 8.363281250000000000e+00 8.367187500000000000e+00 8.371093750000000000e+00 8.375000000000000000e+00 8.378906250000000000e+00 8.382812500000000000e+00 8.386718750000000000e+00 8.390625000000000000e+00 8.394531250000000000e+00 8.398437500000000000e+00 8.402343750000000000e+00 8.406250000000000000e+00 8.410156250000000000e+00 8.414062500000000000e+00 8.417968750000000000e+00 8.421875000000000000e+00 8.425781250000000000e+00 8.429687500000000000e+00 8.433593750000000000e+00 8.437500000000000000e+00 8.441406250000000000e+00 8.445312500000000000e+00 8.449218750000000000e+00 8.453125000000000000e+00 8.457031250000000000e+00 8.460937500000000000e+00 8.464843750000000000e+00 8.468750000000000000e+00 8.472656250000000000e+00 8.476562500000000000e+00 8.480468750000000000e+00 8.484375000000000000e+00 8.488281250000000000e+00 8.492187500000000000e+00 8.496093750000000000e+00 8.500000000000000000e+00 8.503906250000000000e+00 8.507812500000000000e+00 8.511718750000000000e+00 8.515625000000000000e+00 8.519531250000000000e+00 8.523437500000000000e+00 8.527343750000000000e+00 8.531250000000000000e+00 8.535156250000000000e+00 8.539062500000000000e+00 8.542968750000000000e+00 8.546875000000000000e+00 8.550781250000000000e+00 8.554687500000000000e+00 8.558593750000000000e+00 8.562500000000000000e+00 8.566406250000000000e+00 8.570312500000000000e+00 8.574218750000000000e+00 8.578125000000000000e+00 8.582031250000000000e+00 8.585937500000000000e+00 8.589843750000000000e+00 8.593750000000000000e+00 8.597656250000000000e+00 8.601562500000000000e+00 8.605468750000000000e+00 8.609375000000000000e+00 8.613281250000000000e+00 8.617187500000000000e+00 8.621093750000000000e+00 8.625000000000000000e+00 8.628906250000000000e+00 8.632812500000000000e+00 8.636718750000000000e+00 8.640625000000000000e+00 8.644531250000000000e+00 8.648437500000000000e+00 8.652343750000000000e+00 8.656250000000000000e+00 8.660156250000000000e+00 8.664062500000000000e+00 8.667968750000000000e+00 8.671875000000000000e+00 8.675781250000000000e+00 8.679687500000000000e+00 8.683593750000000000e+00 8.687500000000000000e+00 8.691406250000000000e+00 8.695312500000000000e+00 8.699218750000000000e+00 8.703125000000000000e+00 8.707031250000000000e+00 8.710937500000000000e+00 8.714843750000000000e+00 8.718750000000000000e+00 8.722656250000000000e+00 8.726562500000000000e+00 8.730468750000000000e+00 8.734375000000000000e+00 8.738281250000000000e+00 8.742187500000000000e+00 8.746093750000000000e+00 8.750000000000000000e+00 8.753906250000000000e+00 8.757812500000000000e+00 8.761718750000000000e+00 8.765625000000000000e+00 8.769531250000000000e+00 8.773437500000000000e+00 8.777343750000000000e+00 8.781250000000000000e+00 8.785156250000000000e+00 8.789062500000000000e+00 8.792968750000000000e+00 8.796875000000000000e+00 8.800781250000000000e+00 8.804687500000000000e+00 8.808593750000000000e+00 8.812500000000000000e+00 8.816406250000000000e+00 8.820312500000000000e+00 8.824218750000000000e+00 8.828125000000000000e+00 8.832031250000000000e+00 8.835937500000000000e+00 8.839843750000000000e+00 8.843750000000000000e+00 8.847656250000000000e+00 8.851562500000000000e+00 8.855468750000000000e+00 8.859375000000000000e+00 8.863281250000000000e+00 8.867187500000000000e+00 8.871093750000000000e+00 8.875000000000000000e+00 8.878906250000000000e+00 8.882812500000000000e+00 8.886718750000000000e+00 8.890625000000000000e+00 8.894531250000000000e+00 8.898437500000000000e+00 8.902343750000000000e+00 8.906250000000000000e+00 8.910156250000000000e+00 8.914062500000000000e+00 8.917968750000000000e+00 8.921875000000000000e+00 8.925781250000000000e+00 8.929687500000000000e+00 8.933593750000000000e+00 8.937500000000000000e+00 8.941406250000000000e+00 8.945312500000000000e+00 8.949218750000000000e+00 8.953125000000000000e+00 8.957031250000000000e+00 8.960937500000000000e+00 8.964843750000000000e+00 8.968750000000000000e+00 8.972656250000000000e+00 8.976562500000000000e+00 8.980468750000000000e+00 8.984375000000000000e+00 8.988281250000000000e+00 8.992187500000000000e+00 8.996093750000000000e+00 9.000000000000000000e+00 9.003906250000000000e+00 9.007812500000000000e+00 9.011718750000000000e+00 9.015625000000000000e+00 9.019531250000000000e+00 9.023437500000000000e+00 9.027343750000000000e+00 9.031250000000000000e+00 9.035156250000000000e+00 9.039062500000000000e+00 9.042968750000000000e+00 9.046875000000000000e+00 9.050781250000000000e+00 9.054687500000000000e+00 9.058593750000000000e+00 9.062500000000000000e+00 9.066406250000000000e+00 9.070312500000000000e+00 9.074218750000000000e+00 9.078125000000000000e+00 9.082031250000000000e+00 9.085937500000000000e+00 9.089843750000000000e+00 9.093750000000000000e+00 9.097656250000000000e+00 9.101562500000000000e+00 9.105468750000000000e+00 9.109375000000000000e+00 9.113281250000000000e+00 9.117187500000000000e+00 9.121093750000000000e+00 9.125000000000000000e+00 9.128906250000000000e+00 9.132812500000000000e+00 9.136718750000000000e+00 9.140625000000000000e+00 9.144531250000000000e+00 9.148437500000000000e+00 9.152343750000000000e+00 9.156250000000000000e+00 9.160156250000000000e+00 9.164062500000000000e+00 9.167968750000000000e+00 9.171875000000000000e+00 9.175781250000000000e+00 9.179687500000000000e+00 9.183593750000000000e+00 9.187500000000000000e+00 9.191406250000000000e+00 9.195312500000000000e+00 9.199218750000000000e+00 9.203125000000000000e+00 9.207031250000000000e+00 9.210937500000000000e+00 9.214843750000000000e+00 9.218750000000000000e+00 9.222656250000000000e+00 9.226562500000000000e+00 9.230468750000000000e+00 9.234375000000000000e+00 9.238281250000000000e+00 9.242187500000000000e+00 9.246093750000000000e+00 9.250000000000000000e+00 9.253906250000000000e+00 9.257812500000000000e+00 9.261718750000000000e+00 9.265625000000000000e+00 9.269531250000000000e+00 9.273437500000000000e+00 9.277343750000000000e+00 9.281250000000000000e+00 9.285156250000000000e+00 9.289062500000000000e+00 9.292968750000000000e+00 9.296875000000000000e+00 9.300781250000000000e+00 9.304687500000000000e+00 9.308593750000000000e+00 9.312500000000000000e+00 9.316406250000000000e+00 9.320312500000000000e+00 9.324218750000000000e+00 9.328125000000000000e+00 9.332031250000000000e+00 9.335937500000000000e+00 9.339843750000000000e+00 9.343750000000000000e+00 9.347656250000000000e+00 9.351562500000000000e+00 9.355468750000000000e+00 9.359375000000000000e+00 9.363281250000000000e+00 9.367187500000000000e+00 9.371093750000000000e+00 9.375000000000000000e+00 9.378906250000000000e+00 9.382812500000000000e+00 9.386718750000000000e+00 9.390625000000000000e+00 9.394531250000000000e+00 9.398437500000000000e+00 9.402343750000000000e+00 9.406250000000000000e+00 9.410156250000000000e+00 9.414062500000000000e+00 9.417968750000000000e+00 9.421875000000000000e+00 9.425781250000000000e+00 9.429687500000000000e+00 9.433593750000000000e+00 9.437500000000000000e+00 9.441406250000000000e+00 9.445312500000000000e+00 9.449218750000000000e+00 9.453125000000000000e+00 9.457031250000000000e+00 9.460937500000000000e+00 9.464843750000000000e+00 9.468750000000000000e+00 9.472656250000000000e+00 9.476562500000000000e+00 9.480468750000000000e+00 9.484375000000000000e+00 9.488281250000000000e+00 9.492187500000000000e+00 9.496093750000000000e+00 9.500000000000000000e+00 9.503906250000000000e+00 9.507812500000000000e+00 9.511718750000000000e+00 9.515625000000000000e+00 9.519531250000000000e+00 9.523437500000000000e+00 9.527343750000000000e+00 9.531250000000000000e+00 9.535156250000000000e+00 9.539062500000000000e+00 9.542968750000000000e+00 9.546875000000000000e+00 9.550781250000000000e+00 9.554687500000000000e+00 9.558593750000000000e+00 9.562500000000000000e+00 9.566406250000000000e+00 9.570312500000000000e+00 9.574218750000000000e+00 9.578125000000000000e+00 9.582031250000000000e+00 9.585937500000000000e+00 9.589843750000000000e+00 9.593750000000000000e+00 9.597656250000000000e+00 9.601562500000000000e+00 9.605468750000000000e+00 9.609375000000000000e+00 9.613281250000000000e+00 9.617187500000000000e+00 9.621093750000000000e+00 9.625000000000000000e+00 9.628906250000000000e+00 9.632812500000000000e+00 9.636718750000000000e+00 9.640625000000000000e+00 9.644531250000000000e+00 9.648437500000000000e+00 9.652343750000000000e+00 9.656250000000000000e+00 9.660156250000000000e+00 9.664062500000000000e+00 9.667968750000000000e+00 9.671875000000000000e+00 9.675781250000000000e+00 9.679687500000000000e+00 9.683593750000000000e+00 9.687500000000000000e+00 9.691406250000000000e+00 9.695312500000000000e+00 9.699218750000000000e+00 9.703125000000000000e+00 9.707031250000000000e+00 9.710937500000000000e+00 9.714843750000000000e+00 9.718750000000000000e+00 9.722656250000000000e+00 9.726562500000000000e+00 9.730468750000000000e+00 9.734375000000000000e+00 9.738281250000000000e+00 9.742187500000000000e+00 9.746093750000000000e+00 9.750000000000000000e+00 9.753906250000000000e+00 9.757812500000000000e+00 9.761718750000000000e+00 9.765625000000000000e+00 9.769531250000000000e+00 9.773437500000000000e+00 9.777343750000000000e+00 9.781250000000000000e+00 9.785156250000000000e+00 9.789062500000000000e+00 9.792968750000000000e+00 9.796875000000000000e+00 9.800781250000000000e+00 9.804687500000000000e+00 9.808593750000000000e+00 9.812500000000000000e+00 9.816406250000000000e+00 9.820312500000000000e+00 9.824218750000000000e+00 9.828125000000000000e+00 9.832031250000000000e+00 9.835937500000000000e+00 9.839843750000000000e+00 9.843750000000000000e+00 9.847656250000000000e+00 9.851562500000000000e+00 9.855468750000000000e+00 9.859375000000000000e+00 9.863281250000000000e+00 9.867187500000000000e+00 9.871093750000000000e+00 9.875000000000000000e+00 9.878906250000000000e+00 9.882812500000000000e+00 9.886718750000000000e+00 9.890625000000000000e+00 9.894531250000000000e+00 9.898437500000000000e+00 9.902343750000000000e+00 9.906250000000000000e+00 9.910156250000000000e+00 9.914062500000000000e+00 9.917968750000000000e+00 9.921875000000000000e+00 9.925781250000000000e+00 9.929687500000000000e+00 9.933593750000000000e+00 9.937500000000000000e+00 9.941406250000000000e+00 9.945312500000000000e+00 9.949218750000000000e+00 9.953125000000000000e+00 9.957031250000000000e+00 9.960937500000000000e+00 9.964843750000000000e+00 9.968750000000000000e+00 9.972656250000000000e+00 9.976562500000000000e+00 9.980468750000000000e+00 9.984375000000000000e+00 9.988281250000000000e+00 9.992187500000000000e+00 9.996093750000000000e+00 1.000000000000000000e+01 1.000390625000000000e+01 1.000781250000000000e+01 1.001171875000000000e+01 1.001562500000000000e+01 1.001953125000000000e+01 1.002343750000000000e+01 1.002734375000000000e+01 1.003125000000000000e+01 1.003515625000000000e+01 1.003906250000000000e+01 1.004296875000000000e+01 1.004687500000000000e+01 1.005078125000000000e+01 1.005468750000000000e+01 1.005859375000000000e+01 1.006250000000000000e+01 1.006640625000000000e+01 1.007031250000000000e+01 1.007421875000000000e+01 1.007812500000000000e+01 1.008203125000000000e+01 1.008593750000000000e+01 1.008984375000000000e+01 1.009375000000000000e+01 1.009765625000000000e+01 1.010156250000000000e+01 1.010546875000000000e+01 1.010937500000000000e+01 1.011328125000000000e+01 1.011718750000000000e+01 1.012109375000000000e+01 1.012500000000000000e+01 1.012890625000000000e+01 1.013281250000000000e+01 1.013671875000000000e+01 1.014062500000000000e+01 1.014453125000000000e+01 1.014843750000000000e+01 1.015234375000000000e+01 1.015625000000000000e+01 1.016015625000000000e+01 1.016406250000000000e+01 1.016796875000000000e+01 1.017187500000000000e+01 1.017578125000000000e+01 1.017968750000000000e+01 1.018359375000000000e+01 1.018750000000000000e+01 1.019140625000000000e+01 1.019531250000000000e+01 1.019921875000000000e+01 1.020312500000000000e+01 1.020703125000000000e+01 1.021093750000000000e+01 1.021484375000000000e+01 1.021875000000000000e+01 1.022265625000000000e+01 1.022656250000000000e+01 1.023046875000000000e+01 1.023437500000000000e+01 1.023828125000000000e+01 1.024218750000000000e+01 1.024609375000000000e+01 1.025000000000000000e+01 1.025390625000000000e+01 1.025781250000000000e+01 1.026171875000000000e+01 1.026562500000000000e+01 1.026953125000000000e+01 1.027343750000000000e+01 1.027734375000000000e+01 1.028125000000000000e+01 1.028515625000000000e+01 1.028906250000000000e+01 1.029296875000000000e+01 1.029687500000000000e+01 1.030078125000000000e+01 1.030468750000000000e+01 1.030859375000000000e+01 1.031250000000000000e+01 1.031640625000000000e+01 1.032031250000000000e+01 1.032421875000000000e+01 1.032812500000000000e+01 1.033203125000000000e+01 1.033593750000000000e+01 1.033984375000000000e+01 1.034375000000000000e+01 1.034765625000000000e+01 1.035156250000000000e+01 1.035546875000000000e+01 1.035937500000000000e+01 1.036328125000000000e+01 1.036718750000000000e+01 1.037109375000000000e+01 1.037500000000000000e+01 1.037890625000000000e+01 1.038281250000000000e+01 1.038671875000000000e+01 1.039062500000000000e+01 1.039453125000000000e+01 1.039843750000000000e+01 1.040234375000000000e+01 1.040625000000000000e+01 1.041015625000000000e+01 1.041406250000000000e+01 1.041796875000000000e+01 1.042187500000000000e+01 1.042578125000000000e+01 1.042968750000000000e+01 1.043359375000000000e+01 1.043750000000000000e+01 1.044140625000000000e+01 1.044531250000000000e+01 1.044921875000000000e+01 1.045312500000000000e+01 1.045703125000000000e+01 1.046093750000000000e+01 1.046484375000000000e+01 1.046875000000000000e+01 1.047265625000000000e+01 1.047656250000000000e+01 1.048046875000000000e+01 1.048437500000000000e+01 1.048828125000000000e+01 1.049218750000000000e+01 1.049609375000000000e+01 1.050000000000000000e+01 1.050390625000000000e+01 1.050781250000000000e+01 1.051171875000000000e+01 1.051562500000000000e+01 1.051953125000000000e+01 1.052343750000000000e+01 1.052734375000000000e+01 1.053125000000000000e+01 1.053515625000000000e+01 1.053906250000000000e+01 1.054296875000000000e+01 1.054687500000000000e+01 1.055078125000000000e+01 1.055468750000000000e+01 1.055859375000000000e+01 1.056250000000000000e+01 1.056640625000000000e+01 1.057031250000000000e+01 1.057421875000000000e+01 1.057812500000000000e+01 1.058203125000000000e+01 1.058593750000000000e+01 1.058984375000000000e+01 1.059375000000000000e+01 1.059765625000000000e+01 1.060156250000000000e+01 1.060546875000000000e+01 1.060937500000000000e+01 1.061328125000000000e+01 1.061718750000000000e+01 1.062109375000000000e+01 1.062500000000000000e+01 1.062890625000000000e+01 1.063281250000000000e+01 1.063671875000000000e+01 1.064062500000000000e+01 1.064453125000000000e+01 1.064843750000000000e+01 1.065234375000000000e+01 1.065625000000000000e+01 1.066015625000000000e+01 1.066406250000000000e+01 1.066796875000000000e+01 1.067187500000000000e+01 1.067578125000000000e+01 1.067968750000000000e+01 1.068359375000000000e+01 1.068750000000000000e+01 1.069140625000000000e+01 1.069531250000000000e+01 1.069921875000000000e+01 1.070312500000000000e+01 1.070703125000000000e+01 1.071093750000000000e+01 1.071484375000000000e+01 1.071875000000000000e+01 1.072265625000000000e+01 1.072656250000000000e+01 1.073046875000000000e+01 1.073437500000000000e+01 1.073828125000000000e+01 1.074218750000000000e+01 1.074609375000000000e+01 1.075000000000000000e+01 1.075390625000000000e+01 1.075781250000000000e+01 1.076171875000000000e+01 1.076562500000000000e+01 1.076953125000000000e+01 1.077343750000000000e+01 1.077734375000000000e+01 1.078125000000000000e+01 1.078515625000000000e+01 1.078906250000000000e+01 1.079296875000000000e+01 1.079687500000000000e+01 1.080078125000000000e+01 1.080468750000000000e+01 1.080859375000000000e+01 1.081250000000000000e+01 1.081640625000000000e+01 1.082031250000000000e+01 1.082421875000000000e+01 1.082812500000000000e+01 1.083203125000000000e+01 1.083593750000000000e+01 1.083984375000000000e+01 1.084375000000000000e+01 1.084765625000000000e+01 1.085156250000000000e+01 1.085546875000000000e+01 1.085937500000000000e+01 1.086328125000000000e+01 1.086718750000000000e+01 1.087109375000000000e+01 1.087500000000000000e+01 1.087890625000000000e+01 1.088281250000000000e+01 1.088671875000000000e+01 1.089062500000000000e+01 1.089453125000000000e+01 1.089843750000000000e+01 1.090234375000000000e+01 1.090625000000000000e+01 1.091015625000000000e+01 1.091406250000000000e+01 1.091796875000000000e+01 1.092187500000000000e+01 1.092578125000000000e+01 1.092968750000000000e+01 1.093359375000000000e+01 1.093750000000000000e+01 1.094140625000000000e+01 1.094531250000000000e+01 1.094921875000000000e+01 1.095312500000000000e+01 1.095703125000000000e+01 1.096093750000000000e+01 1.096484375000000000e+01 1.096875000000000000e+01 1.097265625000000000e+01 1.097656250000000000e+01 1.098046875000000000e+01 1.098437500000000000e+01 1.098828125000000000e+01 1.099218750000000000e+01 1.099609375000000000e+01 1.100000000000000000e+01 1.100390625000000000e+01 1.100781250000000000e+01 1.101171875000000000e+01 1.101562500000000000e+01 1.101953125000000000e+01 1.102343750000000000e+01 1.102734375000000000e+01 1.103125000000000000e+01 1.103515625000000000e+01 1.103906250000000000e+01 1.104296875000000000e+01 1.104687500000000000e+01 1.105078125000000000e+01 1.105468750000000000e+01 1.105859375000000000e+01 1.106250000000000000e+01 1.106640625000000000e+01 1.107031250000000000e+01 1.107421875000000000e+01 1.107812500000000000e+01 1.108203125000000000e+01 1.108593750000000000e+01 1.108984375000000000e+01 1.109375000000000000e+01 1.109765625000000000e+01 1.110156250000000000e+01 1.110546875000000000e+01 1.110937500000000000e+01 1.111328125000000000e+01 1.111718750000000000e+01 1.112109375000000000e+01 1.112500000000000000e+01 1.112890625000000000e+01 1.113281250000000000e+01 1.113671875000000000e+01 1.114062500000000000e+01 1.114453125000000000e+01 1.114843750000000000e+01 1.115234375000000000e+01 1.115625000000000000e+01 1.116015625000000000e+01 1.116406250000000000e+01 1.116796875000000000e+01 1.117187500000000000e+01 1.117578125000000000e+01 1.117968750000000000e+01 1.118359375000000000e+01 1.118750000000000000e+01 1.119140625000000000e+01 1.119531250000000000e+01 1.119921875000000000e+01 1.120312500000000000e+01 1.120703125000000000e+01 1.121093750000000000e+01 1.121484375000000000e+01 1.121875000000000000e+01 1.122265625000000000e+01 1.122656250000000000e+01 1.123046875000000000e+01 1.123437500000000000e+01 1.123828125000000000e+01 1.124218750000000000e+01 1.124609375000000000e+01 1.125000000000000000e+01 1.125390625000000000e+01 1.125781250000000000e+01 1.126171875000000000e+01 1.126562500000000000e+01 1.126953125000000000e+01 1.127343750000000000e+01 1.127734375000000000e+01 1.128125000000000000e+01 1.128515625000000000e+01 1.128906250000000000e+01 1.129296875000000000e+01 1.129687500000000000e+01 1.130078125000000000e+01 1.130468750000000000e+01 1.130859375000000000e+01 1.131250000000000000e+01 1.131640625000000000e+01 1.132031250000000000e+01 1.132421875000000000e+01 1.132812500000000000e+01 1.133203125000000000e+01 1.133593750000000000e+01 1.133984375000000000e+01 1.134375000000000000e+01 1.134765625000000000e+01 1.135156250000000000e+01 1.135546875000000000e+01 1.135937500000000000e+01 1.136328125000000000e+01 1.136718750000000000e+01 1.137109375000000000e+01 1.137500000000000000e+01 1.137890625000000000e+01 1.138281250000000000e+01 1.138671875000000000e+01 1.139062500000000000e+01 1.139453125000000000e+01 1.139843750000000000e+01 1.140234375000000000e+01 1.140625000000000000e+01 1.141015625000000000e+01 1.141406250000000000e+01 1.141796875000000000e+01 1.142187500000000000e+01 1.142578125000000000e+01 1.142968750000000000e+01 1.143359375000000000e+01 1.143750000000000000e+01 1.144140625000000000e+01 1.144531250000000000e+01 1.144921875000000000e+01 1.145312500000000000e+01 1.145703125000000000e+01 1.146093750000000000e+01 1.146484375000000000e+01 1.146875000000000000e+01 1.147265625000000000e+01 1.147656250000000000e+01 1.148046875000000000e+01 1.148437500000000000e+01 1.148828125000000000e+01 1.149218750000000000e+01 1.149609375000000000e+01 1.150000000000000000e+01 1.150390625000000000e+01 1.150781250000000000e+01 1.151171875000000000e+01 1.151562500000000000e+01 1.151953125000000000e+01 1.152343750000000000e+01 1.152734375000000000e+01 1.153125000000000000e+01 1.153515625000000000e+01 1.153906250000000000e+01 1.154296875000000000e+01 1.154687500000000000e+01 1.155078125000000000e+01 1.155468750000000000e+01 1.155859375000000000e+01 1.156250000000000000e+01 1.156640625000000000e+01 1.157031250000000000e+01 1.157421875000000000e+01 1.157812500000000000e+01 1.158203125000000000e+01 1.158593750000000000e+01 1.158984375000000000e+01 1.159375000000000000e+01 1.159765625000000000e+01 1.160156250000000000e+01 1.160546875000000000e+01 1.160937500000000000e+01 1.161328125000000000e+01 1.161718750000000000e+01 1.162109375000000000e+01 1.162500000000000000e+01 1.162890625000000000e+01 1.163281250000000000e+01 1.163671875000000000e+01 1.164062500000000000e+01 1.164453125000000000e+01 1.164843750000000000e+01 1.165234375000000000e+01 1.165625000000000000e+01 1.166015625000000000e+01 1.166406250000000000e+01 1.166796875000000000e+01 1.167187500000000000e+01 1.167578125000000000e+01 1.167968750000000000e+01 1.168359375000000000e+01 1.168750000000000000e+01 1.169140625000000000e+01 1.169531250000000000e+01 1.169921875000000000e+01 1.170312500000000000e+01 1.170703125000000000e+01 1.171093750000000000e+01 1.171484375000000000e+01 1.171875000000000000e+01 1.172265625000000000e+01 1.172656250000000000e+01 1.173046875000000000e+01 1.173437500000000000e+01 1.173828125000000000e+01 1.174218750000000000e+01 1.174609375000000000e+01 1.175000000000000000e+01 1.175390625000000000e+01 1.175781250000000000e+01 1.176171875000000000e+01 1.176562500000000000e+01 1.176953125000000000e+01 1.177343750000000000e+01 1.177734375000000000e+01 1.178125000000000000e+01 1.178515625000000000e+01 1.178906250000000000e+01 1.179296875000000000e+01 1.179687500000000000e+01 1.180078125000000000e+01 1.180468750000000000e+01 1.180859375000000000e+01 1.181250000000000000e+01 1.181640625000000000e+01 1.182031250000000000e+01 1.182421875000000000e+01 1.182812500000000000e+01 1.183203125000000000e+01 1.183593750000000000e+01 1.183984375000000000e+01 1.184375000000000000e+01 1.184765625000000000e+01 1.185156250000000000e+01 1.185546875000000000e+01 1.185937500000000000e+01 1.186328125000000000e+01 1.186718750000000000e+01 1.187109375000000000e+01 1.187500000000000000e+01 1.187890625000000000e+01 1.188281250000000000e+01 1.188671875000000000e+01 1.189062500000000000e+01 1.189453125000000000e+01 1.189843750000000000e+01 1.190234375000000000e+01 1.190625000000000000e+01 1.191015625000000000e+01 1.191406250000000000e+01 1.191796875000000000e+01 1.192187500000000000e+01 1.192578125000000000e+01 1.192968750000000000e+01 1.193359375000000000e+01 1.193750000000000000e+01 1.194140625000000000e+01 1.194531250000000000e+01 1.194921875000000000e+01 1.195312500000000000e+01 1.195703125000000000e+01 1.196093750000000000e+01 1.196484375000000000e+01 1.196875000000000000e+01 1.197265625000000000e+01 1.197656250000000000e+01 1.198046875000000000e+01 1.198437500000000000e+01 1.198828125000000000e+01 1.199218750000000000e+01 1.199609375000000000e+01 1.200000000000000000e+01 1.200390625000000000e+01 1.200781250000000000e+01 1.201171875000000000e+01 1.201562500000000000e+01 1.201953125000000000e+01 1.202343750000000000e+01 1.202734375000000000e+01 1.203125000000000000e+01 1.203515625000000000e+01 1.203906250000000000e+01 1.204296875000000000e+01 1.204687500000000000e+01 1.205078125000000000e+01 1.205468750000000000e+01 1.205859375000000000e+01 1.206250000000000000e+01 1.206640625000000000e+01 1.207031250000000000e+01 1.207421875000000000e+01 1.207812500000000000e+01 1.208203125000000000e+01 1.208593750000000000e+01 1.208984375000000000e+01 1.209375000000000000e+01 1.209765625000000000e+01 1.210156250000000000e+01 1.210546875000000000e+01 1.210937500000000000e+01 1.211328125000000000e+01 1.211718750000000000e+01 1.212109375000000000e+01 1.212500000000000000e+01 1.212890625000000000e+01 1.213281250000000000e+01 1.213671875000000000e+01 1.214062500000000000e+01 1.214453125000000000e+01 1.214843750000000000e+01 1.215234375000000000e+01 1.215625000000000000e+01 1.216015625000000000e+01 1.216406250000000000e+01 1.216796875000000000e+01 1.217187500000000000e+01 1.217578125000000000e+01 1.217968750000000000e+01 1.218359375000000000e+01 1.218750000000000000e+01 1.219140625000000000e+01 1.219531250000000000e+01 1.219921875000000000e+01 1.220312500000000000e+01 1.220703125000000000e+01 1.221093750000000000e+01 1.221484375000000000e+01 1.221875000000000000e+01 1.222265625000000000e+01 1.222656250000000000e+01 1.223046875000000000e+01 1.223437500000000000e+01 1.223828125000000000e+01 1.224218750000000000e+01 1.224609375000000000e+01 1.225000000000000000e+01 1.225390625000000000e+01 1.225781250000000000e+01 1.226171875000000000e+01 1.226562500000000000e+01 1.226953125000000000e+01 1.227343750000000000e+01 1.227734375000000000e+01 1.228125000000000000e+01 1.228515625000000000e+01 1.228906250000000000e+01 1.229296875000000000e+01 1.229687500000000000e+01 1.230078125000000000e+01 1.230468750000000000e+01 1.230859375000000000e+01 1.231250000000000000e+01 1.231640625000000000e+01 1.232031250000000000e+01 1.232421875000000000e+01 1.232812500000000000e+01 1.233203125000000000e+01 1.233593750000000000e+01 1.233984375000000000e+01 1.234375000000000000e+01 1.234765625000000000e+01 1.235156250000000000e+01 1.235546875000000000e+01 1.235937500000000000e+01 1.236328125000000000e+01 1.236718750000000000e+01 1.237109375000000000e+01 1.237500000000000000e+01 1.237890625000000000e+01 1.238281250000000000e+01 1.238671875000000000e+01 1.239062500000000000e+01 1.239453125000000000e+01 1.239843750000000000e+01 1.240234375000000000e+01 1.240625000000000000e+01 1.241015625000000000e+01 1.241406250000000000e+01 1.241796875000000000e+01 1.242187500000000000e+01 1.242578125000000000e+01 1.242968750000000000e+01 1.243359375000000000e+01 1.243750000000000000e+01 1.244140625000000000e+01 1.244531250000000000e+01 1.244921875000000000e+01 1.245312500000000000e+01 1.245703125000000000e+01 1.246093750000000000e+01 1.246484375000000000e+01 1.246875000000000000e+01 1.247265625000000000e+01 1.247656250000000000e+01 1.248046875000000000e+01 1.248437500000000000e+01 1.248828125000000000e+01 1.249218750000000000e+01 1.249609375000000000e+01 1.250000000000000000e+01 1.250390625000000000e+01 1.250781250000000000e+01 1.251171875000000000e+01 1.251562500000000000e+01 1.251953125000000000e+01 1.252343750000000000e+01 1.252734375000000000e+01 1.253125000000000000e+01 1.253515625000000000e+01 1.253906250000000000e+01 1.254296875000000000e+01 1.254687500000000000e+01 1.255078125000000000e+01 1.255468750000000000e+01 1.255859375000000000e+01 1.256250000000000000e+01 1.256640625000000000e+01 1.257031250000000000e+01 1.257421875000000000e+01 1.257812500000000000e+01 1.258203125000000000e+01 1.258593750000000000e+01 1.258984375000000000e+01 1.259375000000000000e+01 1.259765625000000000e+01 1.260156250000000000e+01 1.260546875000000000e+01 1.260937500000000000e+01 1.261328125000000000e+01 1.261718750000000000e+01 1.262109375000000000e+01 1.262500000000000000e+01 1.262890625000000000e+01 1.263281250000000000e+01 1.263671875000000000e+01 1.264062500000000000e+01 1.264453125000000000e+01 1.264843750000000000e+01 1.265234375000000000e+01 1.265625000000000000e+01 1.266015625000000000e+01 1.266406250000000000e+01 1.266796875000000000e+01 1.267187500000000000e+01 1.267578125000000000e+01 1.267968750000000000e+01 1.268359375000000000e+01 1.268750000000000000e+01 1.269140625000000000e+01 1.269531250000000000e+01 1.269921875000000000e+01 1.270312500000000000e+01 1.270703125000000000e+01 1.271093750000000000e+01 1.271484375000000000e+01 1.271875000000000000e+01 1.272265625000000000e+01 1.272656250000000000e+01 1.273046875000000000e+01 1.273437500000000000e+01 1.273828125000000000e+01 1.274218750000000000e+01 1.274609375000000000e+01 1.275000000000000000e+01 1.275390625000000000e+01 1.275781250000000000e+01 1.276171875000000000e+01 1.276562500000000000e+01 1.276953125000000000e+01 1.277343750000000000e+01 1.277734375000000000e+01 1.278125000000000000e+01 1.278515625000000000e+01 1.278906250000000000e+01 1.279296875000000000e+01 1.279687500000000000e+01 1.280078125000000000e+01 1.280468750000000000e+01 1.280859375000000000e+01 1.281250000000000000e+01 1.281640625000000000e+01 1.282031250000000000e+01 1.282421875000000000e+01 1.282812500000000000e+01 1.283203125000000000e+01 1.283593750000000000e+01 1.283984375000000000e+01 1.284375000000000000e+01 1.284765625000000000e+01 1.285156250000000000e+01 1.285546875000000000e+01 1.285937500000000000e+01 1.286328125000000000e+01 1.286718750000000000e+01 1.287109375000000000e+01 1.287500000000000000e+01 1.287890625000000000e+01 1.288281250000000000e+01 1.288671875000000000e+01 1.289062500000000000e+01 1.289453125000000000e+01 1.289843750000000000e+01 1.290234375000000000e+01 1.290625000000000000e+01 1.291015625000000000e+01 1.291406250000000000e+01 1.291796875000000000e+01 1.292187500000000000e+01 1.292578125000000000e+01 1.292968750000000000e+01 1.293359375000000000e+01 1.293750000000000000e+01 1.294140625000000000e+01 1.294531250000000000e+01 1.294921875000000000e+01 1.295312500000000000e+01 1.295703125000000000e+01 1.296093750000000000e+01 1.296484375000000000e+01 1.296875000000000000e+01 1.297265625000000000e+01 1.297656250000000000e+01 1.298046875000000000e+01 1.298437500000000000e+01 1.298828125000000000e+01 1.299218750000000000e+01 1.299609375000000000e+01 1.300000000000000000e+01 1.300390625000000000e+01 1.300781250000000000e+01 1.301171875000000000e+01 1.301562500000000000e+01 1.301953125000000000e+01 1.302343750000000000e+01 1.302734375000000000e+01 1.303125000000000000e+01 1.303515625000000000e+01 1.303906250000000000e+01 1.304296875000000000e+01 1.304687500000000000e+01 1.305078125000000000e+01 1.305468750000000000e+01 1.305859375000000000e+01 1.306250000000000000e+01 1.306640625000000000e+01 1.307031250000000000e+01 1.307421875000000000e+01 1.307812500000000000e+01 1.308203125000000000e+01 1.308593750000000000e+01 1.308984375000000000e+01 1.309375000000000000e+01 1.309765625000000000e+01 1.310156250000000000e+01 1.310546875000000000e+01 1.310937500000000000e+01 1.311328125000000000e+01 1.311718750000000000e+01 1.312109375000000000e+01 1.312500000000000000e+01 1.312890625000000000e+01 1.313281250000000000e+01 1.313671875000000000e+01 1.314062500000000000e+01 1.314453125000000000e+01 1.314843750000000000e+01 1.315234375000000000e+01 1.315625000000000000e+01 1.316015625000000000e+01 1.316406250000000000e+01 1.316796875000000000e+01 1.317187500000000000e+01 1.317578125000000000e+01 1.317968750000000000e+01 1.318359375000000000e+01 1.318750000000000000e+01 1.319140625000000000e+01 1.319531250000000000e+01 1.319921875000000000e+01 1.320312500000000000e+01 1.320703125000000000e+01 1.321093750000000000e+01 1.321484375000000000e+01 1.321875000000000000e+01 1.322265625000000000e+01 1.322656250000000000e+01 1.323046875000000000e+01 1.323437500000000000e+01 1.323828125000000000e+01 1.324218750000000000e+01 1.324609375000000000e+01 1.325000000000000000e+01 1.325390625000000000e+01 1.325781250000000000e+01 1.326171875000000000e+01 1.326562500000000000e+01 1.326953125000000000e+01 1.327343750000000000e+01 1.327734375000000000e+01 1.328125000000000000e+01 1.328515625000000000e+01 1.328906250000000000e+01 1.329296875000000000e+01 1.329687500000000000e+01 1.330078125000000000e+01 1.330468750000000000e+01 1.330859375000000000e+01 1.331250000000000000e+01 1.331640625000000000e+01 1.332031250000000000e+01 1.332421875000000000e+01 1.332812500000000000e+01 1.333203125000000000e+01 1.333593750000000000e+01 1.333984375000000000e+01 1.334375000000000000e+01 1.334765625000000000e+01 1.335156250000000000e+01 1.335546875000000000e+01 1.335937500000000000e+01 1.336328125000000000e+01 1.336718750000000000e+01 1.337109375000000000e+01 1.337500000000000000e+01 1.337890625000000000e+01 1.338281250000000000e+01 1.338671875000000000e+01 1.339062500000000000e+01 1.339453125000000000e+01 1.339843750000000000e+01 1.340234375000000000e+01 1.340625000000000000e+01 1.341015625000000000e+01 1.341406250000000000e+01 1.341796875000000000e+01 1.342187500000000000e+01 1.342578125000000000e+01 1.342968750000000000e+01 1.343359375000000000e+01 1.343750000000000000e+01 1.344140625000000000e+01 1.344531250000000000e+01 1.344921875000000000e+01 1.345312500000000000e+01 1.345703125000000000e+01 1.346093750000000000e+01 1.346484375000000000e+01 1.346875000000000000e+01 1.347265625000000000e+01 1.347656250000000000e+01 1.348046875000000000e+01 1.348437500000000000e+01 1.348828125000000000e+01 1.349218750000000000e+01 1.349609375000000000e+01 1.350000000000000000e+01 1.350390625000000000e+01 1.350781250000000000e+01 1.351171875000000000e+01 1.351562500000000000e+01 1.351953125000000000e+01 1.352343750000000000e+01 1.352734375000000000e+01 1.353125000000000000e+01 1.353515625000000000e+01 1.353906250000000000e+01 1.354296875000000000e+01 1.354687500000000000e+01 1.355078125000000000e+01 1.355468750000000000e+01 1.355859375000000000e+01 1.356250000000000000e+01 1.356640625000000000e+01 1.357031250000000000e+01 1.357421875000000000e+01 1.357812500000000000e+01 1.358203125000000000e+01 1.358593750000000000e+01 1.358984375000000000e+01 1.359375000000000000e+01 1.359765625000000000e+01 1.360156250000000000e+01 1.360546875000000000e+01 1.360937500000000000e+01 1.361328125000000000e+01 1.361718750000000000e+01 1.362109375000000000e+01 1.362500000000000000e+01 1.362890625000000000e+01 1.363281250000000000e+01 1.363671875000000000e+01 1.364062500000000000e+01 1.364453125000000000e+01 1.364843750000000000e+01 1.365234375000000000e+01 1.365625000000000000e+01 1.366015625000000000e+01 1.366406250000000000e+01 1.366796875000000000e+01 1.367187500000000000e+01 1.367578125000000000e+01 1.367968750000000000e+01 1.368359375000000000e+01 1.368750000000000000e+01 1.369140625000000000e+01 1.369531250000000000e+01 1.369921875000000000e+01 1.370312500000000000e+01 1.370703125000000000e+01 1.371093750000000000e+01 1.371484375000000000e+01 1.371875000000000000e+01 1.372265625000000000e+01 1.372656250000000000e+01 1.373046875000000000e+01 1.373437500000000000e+01 1.373828125000000000e+01 1.374218750000000000e+01 1.374609375000000000e+01 1.375000000000000000e+01 1.375390625000000000e+01 1.375781250000000000e+01 1.376171875000000000e+01 1.376562500000000000e+01 1.376953125000000000e+01 1.377343750000000000e+01 1.377734375000000000e+01 1.378125000000000000e+01 1.378515625000000000e+01 1.378906250000000000e+01 1.379296875000000000e+01 1.379687500000000000e+01 1.380078125000000000e+01 1.380468750000000000e+01 1.380859375000000000e+01 1.381250000000000000e+01 1.381640625000000000e+01 1.382031250000000000e+01 1.382421875000000000e+01 1.382812500000000000e+01 1.383203125000000000e+01 1.383593750000000000e+01 1.383984375000000000e+01 1.384375000000000000e+01 1.384765625000000000e+01 1.385156250000000000e+01 1.385546875000000000e+01 1.385937500000000000e+01 1.386328125000000000e+01 1.386718750000000000e+01 1.387109375000000000e+01 1.387500000000000000e+01 1.387890625000000000e+01 1.388281250000000000e+01 1.388671875000000000e+01 1.389062500000000000e+01 1.389453125000000000e+01 1.389843750000000000e+01 1.390234375000000000e+01 1.390625000000000000e+01 1.391015625000000000e+01 1.391406250000000000e+01 1.391796875000000000e+01 1.392187500000000000e+01 1.392578125000000000e+01 1.392968750000000000e+01 1.393359375000000000e+01 1.393750000000000000e+01 1.394140625000000000e+01 1.394531250000000000e+01 1.394921875000000000e+01 1.395312500000000000e+01 1.395703125000000000e+01 1.396093750000000000e+01 1.396484375000000000e+01 1.396875000000000000e+01 1.397265625000000000e+01 1.397656250000000000e+01 1.398046875000000000e+01 1.398437500000000000e+01 1.398828125000000000e+01 1.399218750000000000e+01 1.399609375000000000e+01 1.400000000000000000e+01 1.400390625000000000e+01 1.400781250000000000e+01 1.401171875000000000e+01 1.401562500000000000e+01 1.401953125000000000e+01 1.402343750000000000e+01 1.402734375000000000e+01 1.403125000000000000e+01 1.403515625000000000e+01 1.403906250000000000e+01 1.404296875000000000e+01 1.404687500000000000e+01 1.405078125000000000e+01 1.405468750000000000e+01 1.405859375000000000e+01 1.406250000000000000e+01 1.406640625000000000e+01 1.407031250000000000e+01 1.407421875000000000e+01 1.407812500000000000e+01 1.408203125000000000e+01 1.408593750000000000e+01 1.408984375000000000e+01 1.409375000000000000e+01 1.409765625000000000e+01 1.410156250000000000e+01 1.410546875000000000e+01 1.410937500000000000e+01 1.411328125000000000e+01 1.411718750000000000e+01 1.412109375000000000e+01 1.412500000000000000e+01 1.412890625000000000e+01 1.413281250000000000e+01 1.413671875000000000e+01 1.414062500000000000e+01 1.414453125000000000e+01 1.414843750000000000e+01 1.415234375000000000e+01 1.415625000000000000e+01 1.416015625000000000e+01 1.416406250000000000e+01 1.416796875000000000e+01 1.417187500000000000e+01 1.417578125000000000e+01 1.417968750000000000e+01 1.418359375000000000e+01 1.418750000000000000e+01 1.419140625000000000e+01 1.419531250000000000e+01 1.419921875000000000e+01 1.420312500000000000e+01 1.420703125000000000e+01 1.421093750000000000e+01 1.421484375000000000e+01 1.421875000000000000e+01 1.422265625000000000e+01 1.422656250000000000e+01 1.423046875000000000e+01 1.423437500000000000e+01 1.423828125000000000e+01 1.424218750000000000e+01 1.424609375000000000e+01 1.425000000000000000e+01 1.425390625000000000e+01 1.425781250000000000e+01 1.426171875000000000e+01 1.426562500000000000e+01 1.426953125000000000e+01 1.427343750000000000e+01 1.427734375000000000e+01 1.428125000000000000e+01 1.428515625000000000e+01 1.428906250000000000e+01 1.429296875000000000e+01 1.429687500000000000e+01 1.430078125000000000e+01 1.430468750000000000e+01 1.430859375000000000e+01 1.431250000000000000e+01 1.431640625000000000e+01 1.432031250000000000e+01 1.432421875000000000e+01 1.432812500000000000e+01 1.433203125000000000e+01 1.433593750000000000e+01 1.433984375000000000e+01 1.434375000000000000e+01 1.434765625000000000e+01 1.435156250000000000e+01 1.435546875000000000e+01 1.435937500000000000e+01 1.436328125000000000e+01 1.436718750000000000e+01 1.437109375000000000e+01 1.437500000000000000e+01 1.437890625000000000e+01 1.438281250000000000e+01 1.438671875000000000e+01 1.439062500000000000e+01 1.439453125000000000e+01 1.439843750000000000e+01 1.440234375000000000e+01 1.440625000000000000e+01 1.441015625000000000e+01 1.441406250000000000e+01 1.441796875000000000e+01 1.442187500000000000e+01 1.442578125000000000e+01 1.442968750000000000e+01 1.443359375000000000e+01 1.443750000000000000e+01 1.444140625000000000e+01 1.444531250000000000e+01 1.444921875000000000e+01 1.445312500000000000e+01 1.445703125000000000e+01 1.446093750000000000e+01 1.446484375000000000e+01 1.446875000000000000e+01 1.447265625000000000e+01 1.447656250000000000e+01 1.448046875000000000e+01 1.448437500000000000e+01 1.448828125000000000e+01 1.449218750000000000e+01 1.449609375000000000e+01 1.450000000000000000e+01 1.450390625000000000e+01 1.450781250000000000e+01 1.451171875000000000e+01 1.451562500000000000e+01 1.451953125000000000e+01 1.452343750000000000e+01 1.452734375000000000e+01 1.453125000000000000e+01 1.453515625000000000e+01 1.453906250000000000e+01 1.454296875000000000e+01 1.454687500000000000e+01 1.455078125000000000e+01 1.455468750000000000e+01 1.455859375000000000e+01 1.456250000000000000e+01 1.456640625000000000e+01 1.457031250000000000e+01 1.457421875000000000e+01 1.457812500000000000e+01 1.458203125000000000e+01 1.458593750000000000e+01 1.458984375000000000e+01 1.459375000000000000e+01 1.459765625000000000e+01 1.460156250000000000e+01 1.460546875000000000e+01 1.460937500000000000e+01 1.461328125000000000e+01 1.461718750000000000e+01 1.462109375000000000e+01 1.462500000000000000e+01 1.462890625000000000e+01 1.463281250000000000e+01 1.463671875000000000e+01 1.464062500000000000e+01 1.464453125000000000e+01 1.464843750000000000e+01 1.465234375000000000e+01 1.465625000000000000e+01 1.466015625000000000e+01 1.466406250000000000e+01 1.466796875000000000e+01 1.467187500000000000e+01 1.467578125000000000e+01 1.467968750000000000e+01 1.468359375000000000e+01 1.468750000000000000e+01 1.469140625000000000e+01 1.469531250000000000e+01 1.469921875000000000e+01 1.470312500000000000e+01 1.470703125000000000e+01 1.471093750000000000e+01 1.471484375000000000e+01 1.471875000000000000e+01 1.472265625000000000e+01 1.472656250000000000e+01 1.473046875000000000e+01 1.473437500000000000e+01 1.473828125000000000e+01 1.474218750000000000e+01 1.474609375000000000e+01 1.475000000000000000e+01 1.475390625000000000e+01 1.475781250000000000e+01 1.476171875000000000e+01 1.476562500000000000e+01 1.476953125000000000e+01 1.477343750000000000e+01 1.477734375000000000e+01 1.478125000000000000e+01 1.478515625000000000e+01 1.478906250000000000e+01 1.479296875000000000e+01 1.479687500000000000e+01 1.480078125000000000e+01 1.480468750000000000e+01 1.480859375000000000e+01 1.481250000000000000e+01 1.481640625000000000e+01 1.482031250000000000e+01 1.482421875000000000e+01 1.482812500000000000e+01 1.483203125000000000e+01 1.483593750000000000e+01 1.483984375000000000e+01 1.484375000000000000e+01 1.484765625000000000e+01 1.485156250000000000e+01 1.485546875000000000e+01 1.485937500000000000e+01 1.486328125000000000e+01 1.486718750000000000e+01 1.487109375000000000e+01 1.487500000000000000e+01 1.487890625000000000e+01 1.488281250000000000e+01 1.488671875000000000e+01 1.489062500000000000e+01 1.489453125000000000e+01 1.489843750000000000e+01 1.490234375000000000e+01 1.490625000000000000e+01 1.491015625000000000e+01 1.491406250000000000e+01 1.491796875000000000e+01 1.492187500000000000e+01 1.492578125000000000e+01 1.492968750000000000e+01 1.493359375000000000e+01 1.493750000000000000e+01 1.494140625000000000e+01 1.494531250000000000e+01 1.494921875000000000e+01 1.495312500000000000e+01 1.495703125000000000e+01 1.496093750000000000e+01 1.496484375000000000e+01 1.496875000000000000e+01 1.497265625000000000e+01 1.497656250000000000e+01 1.498046875000000000e+01 1.498437500000000000e+01 1.498828125000000000e+01 1.499218750000000000e+01 1.499609375000000000e+01 1.500000000000000000e+01 1.500390625000000000e+01 1.500781250000000000e+01 1.501171875000000000e+01 1.501562500000000000e+01 1.501953125000000000e+01 1.502343750000000000e+01 1.502734375000000000e+01 1.503125000000000000e+01 1.503515625000000000e+01 1.503906250000000000e+01 1.504296875000000000e+01 1.504687500000000000e+01 1.505078125000000000e+01 1.505468750000000000e+01 1.505859375000000000e+01 1.506250000000000000e+01 1.506640625000000000e+01 1.507031250000000000e+01 1.507421875000000000e+01 1.507812500000000000e+01 1.508203125000000000e+01 1.508593750000000000e+01 1.508984375000000000e+01 1.509375000000000000e+01 1.509765625000000000e+01 1.510156250000000000e+01 1.510546875000000000e+01 1.510937500000000000e+01 1.511328125000000000e+01 1.511718750000000000e+01 1.512109375000000000e+01 1.512500000000000000e+01 1.512890625000000000e+01 1.513281250000000000e+01 1.513671875000000000e+01 1.514062500000000000e+01 1.514453125000000000e+01 1.514843750000000000e+01 1.515234375000000000e+01 1.515625000000000000e+01 1.516015625000000000e+01 1.516406250000000000e+01 1.516796875000000000e+01 1.517187500000000000e+01 1.517578125000000000e+01 1.517968750000000000e+01 1.518359375000000000e+01 1.518750000000000000e+01 1.519140625000000000e+01 1.519531250000000000e+01 1.519921875000000000e+01 1.520312500000000000e+01 1.520703125000000000e+01 1.521093750000000000e+01 1.521484375000000000e+01 1.521875000000000000e+01 1.522265625000000000e+01 1.522656250000000000e+01 1.523046875000000000e+01 1.523437500000000000e+01 1.523828125000000000e+01 1.524218750000000000e+01 1.524609375000000000e+01 1.525000000000000000e+01 1.525390625000000000e+01 1.525781250000000000e+01 1.526171875000000000e+01 1.526562500000000000e+01 1.526953125000000000e+01 1.527343750000000000e+01 1.527734375000000000e+01 1.528125000000000000e+01 1.528515625000000000e+01 1.528906250000000000e+01 1.529296875000000000e+01 1.529687500000000000e+01 1.530078125000000000e+01 1.530468750000000000e+01 1.530859375000000000e+01 1.531250000000000000e+01 1.531640625000000000e+01 1.532031250000000000e+01 1.532421875000000000e+01 1.532812500000000000e+01 1.533203125000000000e+01 1.533593750000000000e+01 1.533984375000000000e+01 1.534375000000000000e+01 1.534765625000000000e+01 1.535156250000000000e+01 1.535546875000000000e+01 1.535937500000000000e+01 1.536328125000000000e+01 1.536718750000000000e+01 1.537109375000000000e+01 1.537500000000000000e+01 1.537890625000000000e+01 1.538281250000000000e+01 1.538671875000000000e+01 1.539062500000000000e+01 1.539453125000000000e+01 1.539843750000000000e+01 1.540234375000000000e+01 1.540625000000000000e+01 1.541015625000000000e+01 1.541406250000000000e+01 1.541796875000000000e+01 1.542187500000000000e+01 1.542578125000000000e+01 1.542968750000000000e+01 1.543359375000000000e+01 1.543750000000000000e+01 1.544140625000000000e+01 1.544531250000000000e+01 1.544921875000000000e+01 1.545312500000000000e+01 1.545703125000000000e+01 1.546093750000000000e+01 1.546484375000000000e+01 1.546875000000000000e+01 1.547265625000000000e+01 1.547656250000000000e+01 1.548046875000000000e+01 1.548437500000000000e+01 1.548828125000000000e+01 1.549218750000000000e+01 1.549609375000000000e+01 1.550000000000000000e+01 1.550390625000000000e+01 1.550781250000000000e+01 1.551171875000000000e+01 1.551562500000000000e+01 1.551953125000000000e+01 1.552343750000000000e+01 1.552734375000000000e+01 1.553125000000000000e+01 1.553515625000000000e+01 1.553906250000000000e+01 1.554296875000000000e+01 1.554687500000000000e+01 1.555078125000000000e+01 1.555468750000000000e+01 1.555859375000000000e+01 1.556250000000000000e+01 1.556640625000000000e+01 1.557031250000000000e+01 1.557421875000000000e+01 1.557812500000000000e+01 1.558203125000000000e+01 1.558593750000000000e+01 1.558984375000000000e+01 1.559375000000000000e+01 1.559765625000000000e+01 1.560156250000000000e+01 1.560546875000000000e+01 1.560937500000000000e+01 1.561328125000000000e+01 1.561718750000000000e+01 1.562109375000000000e+01 1.562500000000000000e+01 1.562890625000000000e+01 1.563281250000000000e+01 1.563671875000000000e+01 1.564062500000000000e+01 1.564453125000000000e+01 1.564843750000000000e+01 1.565234375000000000e+01 1.565625000000000000e+01 1.566015625000000000e+01 1.566406250000000000e+01 1.566796875000000000e+01 1.567187500000000000e+01 1.567578125000000000e+01 1.567968750000000000e+01 1.568359375000000000e+01 1.568750000000000000e+01 1.569140625000000000e+01 1.569531250000000000e+01 1.569921875000000000e+01 1.570312500000000000e+01 1.570703125000000000e+01 1.571093750000000000e+01 1.571484375000000000e+01 1.571875000000000000e+01 1.572265625000000000e+01 1.572656250000000000e+01 1.573046875000000000e+01 1.573437500000000000e+01 1.573828125000000000e+01 1.574218750000000000e+01 1.574609375000000000e+01 1.575000000000000000e+01 1.575390625000000000e+01 1.575781250000000000e+01 1.576171875000000000e+01 1.576562500000000000e+01 1.576953125000000000e+01 1.577343750000000000e+01 1.577734375000000000e+01 1.578125000000000000e+01 1.578515625000000000e+01 1.578906250000000000e+01 1.579296875000000000e+01 1.579687500000000000e+01 1.580078125000000000e+01 1.580468750000000000e+01 1.580859375000000000e+01 1.581250000000000000e+01 1.581640625000000000e+01 1.582031250000000000e+01 1.582421875000000000e+01 1.582812500000000000e+01 1.583203125000000000e+01 1.583593750000000000e+01 1.583984375000000000e+01 1.584375000000000000e+01 1.584765625000000000e+01 1.585156250000000000e+01 1.585546875000000000e+01 1.585937500000000000e+01 1.586328125000000000e+01 1.586718750000000000e+01 1.587109375000000000e+01 1.587500000000000000e+01 1.587890625000000000e+01 1.588281250000000000e+01 1.588671875000000000e+01 1.589062500000000000e+01 1.589453125000000000e+01 1.589843750000000000e+01 1.590234375000000000e+01 1.590625000000000000e+01 1.591015625000000000e+01 1.591406250000000000e+01 1.591796875000000000e+01 1.592187500000000000e+01 1.592578125000000000e+01 1.592968750000000000e+01 1.593359375000000000e+01 1.593750000000000000e+01 1.594140625000000000e+01 1.594531250000000000e+01 1.594921875000000000e+01 1.595312500000000000e+01 1.595703125000000000e+01 1.596093750000000000e+01 1.596484375000000000e+01 1.596875000000000000e+01 1.597265625000000000e+01 1.597656250000000000e+01 1.598046875000000000e+01 1.598437500000000000e+01 1.598828125000000000e+01 1.599218750000000000e+01 1.599609375000000000e+01 1.600000000000000000e+01 1.600390625000000000e+01 1.600781250000000000e+01 1.601171875000000000e+01 1.601562500000000000e+01 1.601953125000000000e+01 1.602343750000000000e+01 1.602734375000000000e+01 1.603125000000000000e+01 1.603515625000000000e+01 1.603906250000000000e+01 1.604296875000000000e+01 1.604687500000000000e+01 1.605078125000000000e+01 1.605468750000000000e+01 1.605859375000000000e+01 1.606250000000000000e+01 1.606640625000000000e+01 1.607031250000000000e+01 1.607421875000000000e+01 1.607812500000000000e+01 1.608203125000000000e+01 1.608593750000000000e+01 1.608984375000000000e+01 1.609375000000000000e+01 1.609765625000000000e+01 1.610156250000000000e+01 1.610546875000000000e+01 1.610937500000000000e+01 1.611328125000000000e+01 1.611718750000000000e+01 1.612109375000000000e+01 1.612500000000000000e+01 1.612890625000000000e+01 1.613281250000000000e+01 1.613671875000000000e+01 1.614062500000000000e+01 1.614453125000000000e+01 1.614843750000000000e+01 1.615234375000000000e+01 1.615625000000000000e+01 1.616015625000000000e+01 1.616406250000000000e+01 1.616796875000000000e+01 1.617187500000000000e+01 1.617578125000000000e+01 1.617968750000000000e+01 1.618359375000000000e+01 1.618750000000000000e+01 1.619140625000000000e+01 1.619531250000000000e+01 1.619921875000000000e+01 1.620312500000000000e+01 1.620703125000000000e+01 1.621093750000000000e+01 1.621484375000000000e+01 1.621875000000000000e+01 1.622265625000000000e+01 1.622656250000000000e+01 1.623046875000000000e+01 1.623437500000000000e+01 1.623828125000000000e+01 1.624218750000000000e+01 1.624609375000000000e+01 1.625000000000000000e+01 1.625390625000000000e+01 1.625781250000000000e+01 1.626171875000000000e+01 1.626562500000000000e+01 1.626953125000000000e+01 1.627343750000000000e+01 1.627734375000000000e+01 1.628125000000000000e+01 1.628515625000000000e+01 1.628906250000000000e+01 1.629296875000000000e+01 1.629687500000000000e+01 1.630078125000000000e+01 1.630468750000000000e+01 1.630859375000000000e+01 1.631250000000000000e+01 1.631640625000000000e+01 1.632031250000000000e+01 1.632421875000000000e+01 1.632812500000000000e+01 1.633203125000000000e+01 1.633593750000000000e+01 1.633984375000000000e+01 1.634375000000000000e+01 1.634765625000000000e+01 1.635156250000000000e+01 1.635546875000000000e+01 1.635937500000000000e+01 1.636328125000000000e+01 1.636718750000000000e+01 1.637109375000000000e+01 1.637500000000000000e+01 1.637890625000000000e+01 1.638281250000000000e+01 1.638671875000000000e+01 1.639062500000000000e+01 1.639453125000000000e+01 1.639843750000000000e+01 1.640234375000000000e+01 1.640625000000000000e+01 1.641015625000000000e+01 1.641406250000000000e+01 1.641796875000000000e+01 1.642187500000000000e+01 1.642578125000000000e+01 1.642968750000000000e+01 1.643359375000000000e+01 1.643750000000000000e+01 1.644140625000000000e+01 1.644531250000000000e+01 1.644921875000000000e+01 1.645312500000000000e+01 1.645703125000000000e+01 1.646093750000000000e+01 1.646484375000000000e+01 1.646875000000000000e+01 1.647265625000000000e+01 1.647656250000000000e+01 1.648046875000000000e+01 1.648437500000000000e+01 1.648828125000000000e+01 1.649218750000000000e+01 1.649609375000000000e+01 1.650000000000000000e+01 1.650390625000000000e+01 1.650781250000000000e+01 1.651171875000000000e+01 1.651562500000000000e+01 1.651953125000000000e+01 1.652343750000000000e+01 1.652734375000000000e+01 1.653125000000000000e+01 1.653515625000000000e+01 1.653906250000000000e+01 1.654296875000000000e+01 1.654687500000000000e+01 1.655078125000000000e+01 1.655468750000000000e+01 1.655859375000000000e+01 1.656250000000000000e+01 1.656640625000000000e+01 1.657031250000000000e+01 1.657421875000000000e+01 1.657812500000000000e+01 1.658203125000000000e+01 1.658593750000000000e+01 1.658984375000000000e+01 1.659375000000000000e+01 1.659765625000000000e+01 1.660156250000000000e+01 1.660546875000000000e+01 1.660937500000000000e+01 1.661328125000000000e+01 1.661718750000000000e+01 1.662109375000000000e+01 1.662500000000000000e+01 1.662890625000000000e+01 1.663281250000000000e+01 1.663671875000000000e+01 1.664062500000000000e+01 1.664453125000000000e+01 1.664843750000000000e+01 1.665234375000000000e+01 1.665625000000000000e+01 1.666015625000000000e+01 1.666406250000000000e+01 1.666796875000000000e+01 1.667187500000000000e+01 1.667578125000000000e+01 1.667968750000000000e+01 1.668359375000000000e+01 1.668750000000000000e+01 1.669140625000000000e+01 1.669531250000000000e+01 1.669921875000000000e+01 1.670312500000000000e+01 1.670703125000000000e+01 1.671093750000000000e+01 1.671484375000000000e+01 1.671875000000000000e+01 1.672265625000000000e+01 1.672656250000000000e+01 1.673046875000000000e+01 1.673437500000000000e+01 1.673828125000000000e+01 1.674218750000000000e+01 1.674609375000000000e+01 1.675000000000000000e+01 1.675390625000000000e+01 1.675781250000000000e+01 1.676171875000000000e+01 1.676562500000000000e+01 1.676953125000000000e+01 1.677343750000000000e+01 1.677734375000000000e+01 1.678125000000000000e+01 1.678515625000000000e+01 1.678906250000000000e+01 1.679296875000000000e+01 1.679687500000000000e+01 1.680078125000000000e+01 1.680468750000000000e+01 1.680859375000000000e+01 1.681250000000000000e+01 1.681640625000000000e+01 1.682031250000000000e+01 1.682421875000000000e+01 1.682812500000000000e+01 1.683203125000000000e+01 1.683593750000000000e+01 1.683984375000000000e+01 1.684375000000000000e+01 1.684765625000000000e+01 1.685156250000000000e+01 1.685546875000000000e+01 1.685937500000000000e+01 1.686328125000000000e+01 1.686718750000000000e+01 1.687109375000000000e+01 1.687500000000000000e+01 1.687890625000000000e+01 1.688281250000000000e+01 1.688671875000000000e+01 1.689062500000000000e+01 1.689453125000000000e+01 1.689843750000000000e+01 1.690234375000000000e+01 1.690625000000000000e+01 1.691015625000000000e+01 1.691406250000000000e+01 1.691796875000000000e+01 1.692187500000000000e+01 1.692578125000000000e+01 1.692968750000000000e+01 1.693359375000000000e+01 1.693750000000000000e+01 1.694140625000000000e+01 1.694531250000000000e+01 1.694921875000000000e+01 1.695312500000000000e+01 1.695703125000000000e+01 1.696093750000000000e+01 1.696484375000000000e+01 1.696875000000000000e+01 1.697265625000000000e+01 1.697656250000000000e+01 1.698046875000000000e+01 1.698437500000000000e+01 1.698828125000000000e+01 1.699218750000000000e+01 1.699609375000000000e+01 1.700000000000000000e+01 1.700390625000000000e+01 1.700781250000000000e+01 1.701171875000000000e+01 1.701562500000000000e+01 1.701953125000000000e+01 1.702343750000000000e+01 1.702734375000000000e+01 1.703125000000000000e+01 1.703515625000000000e+01 1.703906250000000000e+01 1.704296875000000000e+01 1.704687500000000000e+01 1.705078125000000000e+01 1.705468750000000000e+01 1.705859375000000000e+01 1.706250000000000000e+01 1.706640625000000000e+01 1.707031250000000000e+01 1.707421875000000000e+01 1.707812500000000000e+01 1.708203125000000000e+01 1.708593750000000000e+01 1.708984375000000000e+01 1.709375000000000000e+01 1.709765625000000000e+01 1.710156250000000000e+01 1.710546875000000000e+01 1.710937500000000000e+01 1.711328125000000000e+01 1.711718750000000000e+01 1.712109375000000000e+01 1.712500000000000000e+01 1.712890625000000000e+01 1.713281250000000000e+01 1.713671875000000000e+01 1.714062500000000000e+01 1.714453125000000000e+01 1.714843750000000000e+01 1.715234375000000000e+01 1.715625000000000000e+01 1.716015625000000000e+01 1.716406250000000000e+01 1.716796875000000000e+01 1.717187500000000000e+01 1.717578125000000000e+01 1.717968750000000000e+01 1.718359375000000000e+01 1.718750000000000000e+01 1.719140625000000000e+01 1.719531250000000000e+01 1.719921875000000000e+01 1.720312500000000000e+01 1.720703125000000000e+01 1.721093750000000000e+01 1.721484375000000000e+01 1.721875000000000000e+01 1.722265625000000000e+01 1.722656250000000000e+01 1.723046875000000000e+01 1.723437500000000000e+01 1.723828125000000000e+01 1.724218750000000000e+01 1.724609375000000000e+01 1.725000000000000000e+01 1.725390625000000000e+01 1.725781250000000000e+01 1.726171875000000000e+01 1.726562500000000000e+01 1.726953125000000000e+01 1.727343750000000000e+01 1.727734375000000000e+01 1.728125000000000000e+01 1.728515625000000000e+01 1.728906250000000000e+01 1.729296875000000000e+01 1.729687500000000000e+01 1.730078125000000000e+01 1.730468750000000000e+01 1.730859375000000000e+01 1.731250000000000000e+01 1.731640625000000000e+01 1.732031250000000000e+01 1.732421875000000000e+01 1.732812500000000000e+01 1.733203125000000000e+01 1.733593750000000000e+01 1.733984375000000000e+01 1.734375000000000000e+01 1.734765625000000000e+01 1.735156250000000000e+01 1.735546875000000000e+01 1.735937500000000000e+01 1.736328125000000000e+01 1.736718750000000000e+01 1.737109375000000000e+01 1.737500000000000000e+01 1.737890625000000000e+01 1.738281250000000000e+01 1.738671875000000000e+01 1.739062500000000000e+01 1.739453125000000000e+01 1.739843750000000000e+01 1.740234375000000000e+01 1.740625000000000000e+01 1.741015625000000000e+01 1.741406250000000000e+01 1.741796875000000000e+01 1.742187500000000000e+01 1.742578125000000000e+01 1.742968750000000000e+01 1.743359375000000000e+01 1.743750000000000000e+01 1.744140625000000000e+01 1.744531250000000000e+01 1.744921875000000000e+01 1.745312500000000000e+01 1.745703125000000000e+01 1.746093750000000000e+01 1.746484375000000000e+01 1.746875000000000000e+01 1.747265625000000000e+01 1.747656250000000000e+01 1.748046875000000000e+01 1.748437500000000000e+01 1.748828125000000000e+01 1.749218750000000000e+01 1.749609375000000000e+01 1.750000000000000000e+01 1.750390625000000000e+01 1.750781250000000000e+01 1.751171875000000000e+01 1.751562500000000000e+01 1.751953125000000000e+01 1.752343750000000000e+01 1.752734375000000000e+01 1.753125000000000000e+01 1.753515625000000000e+01 1.753906250000000000e+01 1.754296875000000000e+01 1.754687500000000000e+01 1.755078125000000000e+01 1.755468750000000000e+01 1.755859375000000000e+01 1.756250000000000000e+01 1.756640625000000000e+01 1.757031250000000000e+01 1.757421875000000000e+01 1.757812500000000000e+01 1.758203125000000000e+01 1.758593750000000000e+01 1.758984375000000000e+01 1.759375000000000000e+01 1.759765625000000000e+01 1.760156250000000000e+01 1.760546875000000000e+01 1.760937500000000000e+01 1.761328125000000000e+01 1.761718750000000000e+01 1.762109375000000000e+01 1.762500000000000000e+01 1.762890625000000000e+01 1.763281250000000000e+01 1.763671875000000000e+01 1.764062500000000000e+01 1.764453125000000000e+01 1.764843750000000000e+01 1.765234375000000000e+01 1.765625000000000000e+01 1.766015625000000000e+01 1.766406250000000000e+01 1.766796875000000000e+01 1.767187500000000000e+01 1.767578125000000000e+01 1.767968750000000000e+01 1.768359375000000000e+01 1.768750000000000000e+01 1.769140625000000000e+01 1.769531250000000000e+01 1.769921875000000000e+01 1.770312500000000000e+01 1.770703125000000000e+01 1.771093750000000000e+01 1.771484375000000000e+01 1.771875000000000000e+01 1.772265625000000000e+01 1.772656250000000000e+01 1.773046875000000000e+01 1.773437500000000000e+01 1.773828125000000000e+01 1.774218750000000000e+01 1.774609375000000000e+01 1.775000000000000000e+01 1.775390625000000000e+01 1.775781250000000000e+01 1.776171875000000000e+01 1.776562500000000000e+01 1.776953125000000000e+01 1.777343750000000000e+01 1.777734375000000000e+01 1.778125000000000000e+01 1.778515625000000000e+01 1.778906250000000000e+01 1.779296875000000000e+01 1.779687500000000000e+01 1.780078125000000000e+01 1.780468750000000000e+01 1.780859375000000000e+01 1.781250000000000000e+01 1.781640625000000000e+01 1.782031250000000000e+01 1.782421875000000000e+01 1.782812500000000000e+01 1.783203125000000000e+01 1.783593750000000000e+01 1.783984375000000000e+01 1.784375000000000000e+01 1.784765625000000000e+01 1.785156250000000000e+01 1.785546875000000000e+01 1.785937500000000000e+01 1.786328125000000000e+01 1.786718750000000000e+01 1.787109375000000000e+01 1.787500000000000000e+01 1.787890625000000000e+01 1.788281250000000000e+01 1.788671875000000000e+01 1.789062500000000000e+01 1.789453125000000000e+01 1.789843750000000000e+01 1.790234375000000000e+01 1.790625000000000000e+01 1.791015625000000000e+01 1.791406250000000000e+01 1.791796875000000000e+01 1.792187500000000000e+01 1.792578125000000000e+01 1.792968750000000000e+01 1.793359375000000000e+01 1.793750000000000000e+01 1.794140625000000000e+01 1.794531250000000000e+01 1.794921875000000000e+01 1.795312500000000000e+01 1.795703125000000000e+01 1.796093750000000000e+01 1.796484375000000000e+01 1.796875000000000000e+01 1.797265625000000000e+01 1.797656250000000000e+01 1.798046875000000000e+01 1.798437500000000000e+01 1.798828125000000000e+01 1.799218750000000000e+01 1.799609375000000000e+01 1.800000000000000000e+01 1.800390625000000000e+01 1.800781250000000000e+01 1.801171875000000000e+01 1.801562500000000000e+01 1.801953125000000000e+01 1.802343750000000000e+01 1.802734375000000000e+01 1.803125000000000000e+01 1.803515625000000000e+01 1.803906250000000000e+01 1.804296875000000000e+01 1.804687500000000000e+01 1.805078125000000000e+01 1.805468750000000000e+01 1.805859375000000000e+01 1.806250000000000000e+01 1.806640625000000000e+01 1.807031250000000000e+01 1.807421875000000000e+01 1.807812500000000000e+01 1.808203125000000000e+01 1.808593750000000000e+01 1.808984375000000000e+01 1.809375000000000000e+01 1.809765625000000000e+01 1.810156250000000000e+01 1.810546875000000000e+01 1.810937500000000000e+01 1.811328125000000000e+01 1.811718750000000000e+01 1.812109375000000000e+01 1.812500000000000000e+01 1.812890625000000000e+01 1.813281250000000000e+01 1.813671875000000000e+01 1.814062500000000000e+01 1.814453125000000000e+01 1.814843750000000000e+01 1.815234375000000000e+01 1.815625000000000000e+01 1.816015625000000000e+01 1.816406250000000000e+01 1.816796875000000000e+01 1.817187500000000000e+01 1.817578125000000000e+01 1.817968750000000000e+01 1.818359375000000000e+01 1.818750000000000000e+01 1.819140625000000000e+01 1.819531250000000000e+01 1.819921875000000000e+01 1.820312500000000000e+01 1.820703125000000000e+01 1.821093750000000000e+01 1.821484375000000000e+01 1.821875000000000000e+01 1.822265625000000000e+01 1.822656250000000000e+01 1.823046875000000000e+01 1.823437500000000000e+01 1.823828125000000000e+01 1.824218750000000000e+01 1.824609375000000000e+01 1.825000000000000000e+01 1.825390625000000000e+01 1.825781250000000000e+01 1.826171875000000000e+01 1.826562500000000000e+01 1.826953125000000000e+01 1.827343750000000000e+01 1.827734375000000000e+01 1.828125000000000000e+01 1.828515625000000000e+01 1.828906250000000000e+01 1.829296875000000000e+01 1.829687500000000000e+01 1.830078125000000000e+01 1.830468750000000000e+01 1.830859375000000000e+01 1.831250000000000000e+01 1.831640625000000000e+01 1.832031250000000000e+01 1.832421875000000000e+01 1.832812500000000000e+01 1.833203125000000000e+01 1.833593750000000000e+01 1.833984375000000000e+01 1.834375000000000000e+01 1.834765625000000000e+01 1.835156250000000000e+01 1.835546875000000000e+01 1.835937500000000000e+01 1.836328125000000000e+01 1.836718750000000000e+01 1.837109375000000000e+01 1.837500000000000000e+01 1.837890625000000000e+01 1.838281250000000000e+01 1.838671875000000000e+01 1.839062500000000000e+01 1.839453125000000000e+01 1.839843750000000000e+01 1.840234375000000000e+01 1.840625000000000000e+01 1.841015625000000000e+01 1.841406250000000000e+01 1.841796875000000000e+01 1.842187500000000000e+01 1.842578125000000000e+01 1.842968750000000000e+01 1.843359375000000000e+01 1.843750000000000000e+01 1.844140625000000000e+01 1.844531250000000000e+01 1.844921875000000000e+01 1.845312500000000000e+01 1.845703125000000000e+01 1.846093750000000000e+01 1.846484375000000000e+01 1.846875000000000000e+01 1.847265625000000000e+01 1.847656250000000000e+01 1.848046875000000000e+01 1.848437500000000000e+01 1.848828125000000000e+01 1.849218750000000000e+01 1.849609375000000000e+01 1.850000000000000000e+01 1.850390625000000000e+01 1.850781250000000000e+01 1.851171875000000000e+01 1.851562500000000000e+01 1.851953125000000000e+01 1.852343750000000000e+01 1.852734375000000000e+01 1.853125000000000000e+01 1.853515625000000000e+01 1.853906250000000000e+01 1.854296875000000000e+01 1.854687500000000000e+01 1.855078125000000000e+01 1.855468750000000000e+01 1.855859375000000000e+01 1.856250000000000000e+01 1.856640625000000000e+01 1.857031250000000000e+01 1.857421875000000000e+01 1.857812500000000000e+01 1.858203125000000000e+01 1.858593750000000000e+01 1.858984375000000000e+01 1.859375000000000000e+01 1.859765625000000000e+01 1.860156250000000000e+01 1.860546875000000000e+01 1.860937500000000000e+01 1.861328125000000000e+01 1.861718750000000000e+01 1.862109375000000000e+01 1.862500000000000000e+01 1.862890625000000000e+01 1.863281250000000000e+01 1.863671875000000000e+01 1.864062500000000000e+01 1.864453125000000000e+01 1.864843750000000000e+01 1.865234375000000000e+01 1.865625000000000000e+01 1.866015625000000000e+01 1.866406250000000000e+01 1.866796875000000000e+01 1.867187500000000000e+01 1.867578125000000000e+01 1.867968750000000000e+01 1.868359375000000000e+01 1.868750000000000000e+01 1.869140625000000000e+01 1.869531250000000000e+01 1.869921875000000000e+01 1.870312500000000000e+01 1.870703125000000000e+01 1.871093750000000000e+01 1.871484375000000000e+01 1.871875000000000000e+01 1.872265625000000000e+01 1.872656250000000000e+01 1.873046875000000000e+01 1.873437500000000000e+01 1.873828125000000000e+01 1.874218750000000000e+01 1.874609375000000000e+01 