# OpenSignals Text File Format
# {"internal sensors":{"sensor":["xMag","yMag","zMag"],"device name":"internal sensors","column":["nSeq","xMag","yMag","zMag"],"sync interval":2,"time":"19:01:34","comments":"","keywords":"","device connection":"UNKNOWNinternal sensors","channels":[0,1,2],"date":"2020-07-28","mode":0,"digital IO":[],"firmware version":0,"device":"android","position":0,"sampling rate":100,"label":["xMag","yMag","zMag"],"resolution":[1,1,1],"special":[{},{},{}],"sleeve color":["UNKNOWN","UNKNOWN","UNKNOWN"]}}
# EndOfHeader
1465354425592308	-21.626282	-30.073547	-16.505432	
1465354445393657	-22.377014	-29.173279	-17.105103	
1465354465525193	-21.626282	-29.322815	-17.855835	
1465354486149622	-21.32721	-28.874207	-16.355896	
1465354505802942	-21.777344	-27.822876	-17.704773	
1465354566197229	-21.176147	-27.973938	-19.204712	
1465354606388880	-20.126343	-27.372742	-18.605042	
1465354687046839	-19.82727	-27.67334	-20.555115	
1465354727513147	-18.327332	-27.822876	-19.055176	
1465354807926965	-19.976807	-27.523804	-20.405579	
1465354868351770	-20.726013	-26.473999	-19.055176	
1465354948887659	-19.676208	-26.473999	-17.704773	
1465355029759241	-22.377014	-25.424194	-18.005371	
1465355089878870	-22.227478	-29.023743	-18.605042	
1465355089878870	-22.227478	-29.023743	-18.605042	
1465355089878870	-22.227478	-29.023743	-18.605042	
1465355089878870	-22.227478	-29.023743	-18.605042	
1465355089878870	-22.227478	-29.023743	-18.605042	
1465355089878870	-22.227478	-29.023743	-18.605042	
1465355089878870	-22.227478	-29.023743	-18.605042	
1465355089878870	-22.227478	-29.023743	-18.605042	
1465355089878870	-22.227478	-29.023743	-18.605042	
1465355089878870	-22.227478	-29.023743	-18.605042	
1465355089878870	-22.227478	-29.023743	-18.605042	
1465355089878870	-22.227478	-29.023743	-18.605042	
1465355089878870	-22.227478	-29.023743	-18.605042	
1465355089878870	-22.227478	-29.023743	-18.605042	
1465355089878870	-22.227478	-29.023743	-18.605042	
1465355089878870	-22.227478	-29.023743	-18.605042	
1465355089878870	-22.227478	-29.023743	-18.605042	
1465355089878870	-22.227478	-29.023743	-18.605042	
1465355089878870	-22.227478	-29.023743	-18.605042	
1465355089878870	-22.227478	-29.023743	-18.605042	
1465355089878870	-22.227478	-29.023743	-18.605042	
1465355132572962	-21.176147	-27.67334	-19.654846	
1465355151890589	-20.877075	-26.322937	-17.555237	
1465355151890589	-20.877075	-26.322937	-17.555237	
1465355172062708	-21.32721	-27.223206	-17.704773	
1465355192021204	-19.526672	-24.97406	-21.60492	
1465355232060266	-23.426819	-25.723267	-18.756104	
1465355232060266	-23.426819	-25.723267	-18.756104	
1465355252018762	-22.976685	-25.273132	-19.204712	
1465355271916223	-22.976685	-24.97406	-20.256042	
1465355291813684	-24.327087	-24.97406	-19.955444	
1465355311772180	-23.576355	-23.173523	-18.90564	
1465355332035852	-24.02649	-22.123718	-19.204712	
1465355351872278	-23.277283	-22.872925	-21.005249	
1465355371861292	-24.62616	-21.22345	-18.90564	
1465355392033411	-24.926758	-22.723389	-20.405579	
1465355412144495	-25.526428	-23.023987	-19.055176	
1465355432438684	-24.62616	-22.573853	-17.555237	
1465355452458215	-26.126099	-21.524048	-18.30597	
1465355472569299	-25.827026	-22.42279	-19.805908	
1465355492741419	-26.426697	-20.173645	-17.555237	
1465355512852503	-26.426697	-20.173645	-18.30597	
1465355533421350	-28.97644	-19.573975	-17.704773	
1465355553166223	-27.7771	-20.474243	-18.30597	
1465355573307825	-27.326965	-19.273376	-20.405579	
1465355593449426	-27.926636	-17.922974	-20.10498	
1465355613560510	-27.476501	-19.422913	-19.955444	
1465355634007288	-27.926636	-18.223572	-20.10498	
1465355694126917	-28.076172	-15.37323	-18.605042	
1465355735081506	-28.97644	-15.223694	-19.805908	
1465355754582239	-28.37677	-14.472961	-20.405579	
1465355754582239	-28.37677	-14.472961	-20.405579	
1465355754582239	-28.37677	-14.472961	-20.405579	
1465355754582239	-28.37677	-14.472961	-20.405579	
1465355774723840	-29.426575	-12.072754	-19.055176	
1465355794834924	-29.125977	-12.67395	-18.90564	
1465355814976526	-31.376648	-10.723877	-20.405579	
1465355835545374	-29.876709	-10.273743	-18.605042	
1465355855290247	-30.776978	-9.373474	-18.005371	
1465355875401331	-30.776978	-7.723999	-18.756104	
1465355895542932	-29.876709	-4.724121	-18.30597	
1465355915684534	-33.177185	-4.873657	-18.756104	
1465355936528040	-31.677246	-7.1228027	-18.90564	
1465355955967737	-31.677246	-6.072998	-18.90564	
1465355976109339	-30.627441	-5.0231934	-18.90564	
1465355996281458	-31.677246	-6.5231323	-18.30597	
1465356016392542	-31.07605	-5.923462	-20.10498	
1465356037022424	-32.12738	-6.9732666	-19.055176	
1465356056706262	-33.026123	-7.423401	-17.855835	
1465356076817346	-31.376648	-6.6741943	-16.654968	
1465356096989465	-31.976318	-6.8237305	-18.30597	
1465356117131067	-31.376648	-7.2738647	-18.756104	
1465356138096643	-32.276917	-7.1228027	-17.555237	
1465356157414270	-32.72705	-7.423401	-19.204712	
1465356177525354	-32.72705	-5.4733276	-18.90564	
1465356197697473	-33.177185	-6.22406	-17.704773	
1465356217839075	-32.276917	-6.072998	-18.605042	
1465356237858606	-33.026123	-7.423401	-20.555115	
1465356258091760	-32.72705	-7.1228027	-18.90564	
1465356278263880	-32.72705	-7.1228027	-20.555115	
1465356298405481	-30.776978	-7.723999	-21.154785	
1465356318516565	-31.07605	-8.023071	-22.505188	
1465356338841272	-31.677246	-8.174133	-21.60492	
1465356358830286	-30.177307	-9.823608	-20.555115	
1465356378880335	-30.776978	-7.723999	-22.805786	
1465356399082971	-31.376648	-9.373474	-24.154663	
1465356419224573	-31.227112	-8.92334	-22.055054	
1465356439366174	-31.677246	-8.473206	-25.35553	
1465356459507776	-30.026245	-8.622742	-21.755981	
1465356479649378	-31.07605	-11.773682	-23.85559	
1465356499821497	-28.826904	-12.973022	-24.75586	
1465356521366907	-30.177307	-14.624023	-22.654724	
1465356541966272	-29.727173	-15.823364	-22.505188	
1465356561528040	-27.926636	-15.823364	-26.255798	
1465356581547571	-26.576233	-16.873169	-24.905396	
1465356601536585	-26.727295	-17.773438	-26.104736	
1465356621647669	-25.076294	-19.873047	-26.405334	
1465356641636682	-24.02649	-20.173645	-28.205872	
1465356661625696	-22.827148	-19.273376	-26.255798	
1465356681614710	-19.82727	-21.524048	-29.554749	
1465356701634241	-18.927002	-23.773193	-29.70581	
1465356721501184	-17.877197	-22.723389	-30.004883	
1465356741642786	-18.626404	-21.673584	-29.405212	
1465356761631799	-20.126343	-23.173523	-30.905151	
1465356781773401	-18.777466	-24.523926	-31.20575	
1465356801915003	-16.827393	-23.023987	-30.455017	
1465356822056604	-16.976929	-23.173523	-30.905151	
1465356842198206	-18.327332	-24.372864	-30.455017	
1465356862370325	-16.976929	-24.523926	-29.855347	
1465356882511926	-15.626526	-25.273132	-29.554749	
1465356902623010	-14.576721	-25.57373	-27.755737	
1465356922795130	-16.377258	-26.924133	-28.205872	
1465356943333460	-13.825989	-28.874207	-28.656006	
1465356963047815	-13.5269165	-29.77295	-27.45514	
1465356983189417	-12.176514	-28.723145	-28.504944	
1465357003361536	-13.226318	-28.424072	-29.554749	
1465357023472620	-11.726379	-30.973816	-28.955078	
1465357043888880	-12.477112	-30.073547	-29.255676	
1465357063755823	-11.126709	-30.073547	-28.504944	
1465357083897424	-11.126709	-31.123352	-27.156067	
1465357104069544	-10.826111	-31.42395	-26.405334	
1465357124180628	-11.877441	-31.723022	-27.755737	
1465357144993616	-10.826111	-31.123352	-26.405334	
1465357164494348	-10.977173	-31.874084	-26.255798	
1465357184635950	-11.877441	-29.77295	-26.405334	
1465357204777551	-10.076904	-30.073547	-28.805542	
1465357224919153	-10.977173	-29.924011	-30.455017	
1465357245518518	-11.427307	-29.023743	-29.255676	
1465357265171839	-12.776184	-28.874207	-29.405212	
1465357285313440	-11.427307	-27.973938	-29.255676	
1465357305485559	-12.026978	-27.223206	-29.70581	
1465357325596643	-11.877441	-24.97406	-27.755737	
1465357346592737	-12.927246	-26.623535	-31.504822	
1465357365910364	-12.176514	-28.723145	-30.155945	
1465357386021448	-10.676575	-26.773071	-29.405212	
1465357406193567	-11.726379	-29.173279	-29.405212	
1465357426335169	-10.22644	-28.573608	-29.405212	
1465357446354700	-9.62677	-27.223206	-30.004883	
1465357466587854	-13.226318	-27.67334	-27.755737	
1465357486759973	-12.176514	-27.973938	-28.805542	
1465357506871057	-11.126709	-30.374146	-28.504944	
1465357527012659	-10.977173	-29.623413	-28.05481	
1465357547337366	-12.176514	-31.123352	-27.45514	
1465357567326380	-9.776306	-29.322815	-26.855469	
1465357587437464	-10.22644	-30.523682	-25.9552	
1465357607579065	-10.22644	-29.623413	-28.05481	
1465357627751184	-8.876038	-29.924011	-25.9552	
1465357647892786	-9.0271	-29.77295	-27.755737	
1465357668003870	-11.427307	-30.073547	-26.104736	
1465357688145471	-11.877441	-29.77295	-27.156067	
1465357708317590	-11.276245	-28.123474	-28.05481	
1465357728428674	-11.877441	-27.67334	-28.205872	
1465357749028040	-11.877441	-25.273132	-28.504944	
1465357768711878	-11.276245	-24.073792	-31.054688	
1465357788883997	-13.5269165	-24.523926	-31.504822	
1465357808995081	-12.176514	-23.173523	-30.60608	
1465357829136682	-12.176514	-22.872925	-32.255554	
1465357849583460	-13.977051	-20.474243	-32.255554	
1465357869450403	-15.47699	-20.323181	-31.80542	
1465357891117883	-16.526794	-20.024109	-30.004883	
1465357911137415	-17.5766	-19.273376	-28.955078	
1465357931156946	-18.777466	-18.823242	-29.554749	
1465357951329065	-19.076538	-19.12384	-28.504944	
1465357971165491	-18.777466	-20.474243	-28.805542	
1465357991154505	-19.82727	-22.123718	-27.156067	
1465358011143518	-17.726135	-20.474243	-28.504944	
1465358031163049	-17.5766	-21.673584	-28.05481	
1465358051152063	-19.676208	-23.32306	-28.05481	
1465358071171594	-18.327332	-22.42279	-27.305603	
1465358091130090	-19.076538	-21.524048	-27.45514	
1465358111119104	-18.927002	-21.372986	-27.305603	
1465358131291223	-19.526672	-22.872925	-25.054932	
1465358151860071	-19.526672	-22.123718	-25.805664	
1465358171543909	-20.126343	-21.524048	-26.855469	
1465358211857630	-22.227478	-19.12384	-26.104736	
1465358211857630	-22.227478	-19.12384	-26.104736	
1465358231968714	-22.076416	-18.223572	-25.205994	
1465358252415491	-23.876953	-19.273376	-25.205994	
1465358272282434	-21.92688	-19.873047	-27.156067	
1465358292393518	-20.277405	-19.573975	-25.656128	
1465358312565637	-20.877075	-19.873047	-26.855469	
1465358332707239	-20.877075	-18.823242	-27.755737	
1465358353489710	-18.927002	-18.673706	-27.305603	
1465358372990442	-21.026611	-18.223572	-27.305603	
1465358393132044	-19.82727	-18.823242	-25.805664	
1465358413273645	-20.726013	-17.922974	-25.656128	
1465358433415247	-19.377136	-17.173767	-26.55487	
1465358454045130	-20.877075	-18.373108	-27.45514	
1465358473667932	-20.877075	-19.12384	-24.75586	
1465358493840051	-20.277405	-18.972778	-25.205994	
1465358513859583	-19.377136	-19.273376	-25.656128	
1465358534092737	-20.877075	-18.074036	-24.75586	
1465358555119348	-18.927002	-17.173767	-27.005005	
1465358574406458	-19.82727	-17.024231	-24.75586	
1465358594517542	-21.026611	-18.673706	-25.9552	
1465358614659143	-19.82727	-18.074036	-23.706055	
1465358634800745	-21.32721	-18.673706	-24.604797	
1465358655247522	-20.126343	-19.12384	-24.005127	
1465358675083948	-19.676208	-18.972778	-23.554993	
1465358695225549	-20.877075	-19.873047	-24.455261	
1465358715367151	-19.976807	-18.223572	-24.154663	
1465358735508753	-21.626282	-17.024231	-22.055054	
1465358755772424	-20.726013	-18.223572	-23.554993	
1465358775791956	-21.32721	-17.922974	-24.154663	
1465358795872522	-20.726013	-17.623901	-22.505188	
1465358816105676	-20.726013	-16.873169	-21.755981	
1465358836247278	-20.877075	-17.47284	-22.955322	
1465358856358362	-19.82727	-15.37323	-24.75586	
1465358876499964	-20.126343	-13.574219	-24.005127	
1465358896672083	-19.526672	-14.022827	-24.005127	
1465358916783167	-22.377014	-14.472961	-22.505188	
1465358936863733	-20.576477	-13.574219	-22.955322	
1465358957249475	-20.726013	-16.273499	-22.206116	
1465358977207971	-19.82727	-15.074158	-22.654724	
1465358997349573	-19.377136	-14.472961	-22.805786	
1465359017552210	-19.976807	-14.173889	-22.505188	
1465359037663294	-18.626404	-13.423157	-22.805786	
1465359057926965	-20.126343	-14.022827	-21.60492	
1465359077915979	-20.877075	-14.323425	-21.005249	
1465359098088098	-20.126343	-11.923218	-21.005249	
1465359118229700	-21.026611	-13.423157	-20.405579	
1465359138340784	-21.777344	-13.124084	-20.10498	
1465359159031702	-21.92688	-12.973022	-20.555115	
1465359178654505	-21.32721	-12.823486	-19.50531	
1465359198796106	-21.026611	-11.773682	-20.405579	
1465359218907190	-20.877075	-14.022827	-19.654846	
1465359239079309	-19.676208	-12.823486	-19.805908	
1465359261204553	-20.126343	-14.323425	-19.654846	
1465359280949426	-21.626282	-14.323425	-20.256042	
1465359300816370	-20.576477	-12.67395	-17.555237	
1465359320835901	-18.927002	-12.072754	-19.055176	
1465359340946985	-20.726013	-13.124084	-19.055176	
1465359361119104	-20.277405	-13.124084	-19.805908	
1465359380925012	-19.976807	-14.77356	-19.805908	
1465359400914026	-18.476868	-14.022827	-19.654846	
1465359420903040	-19.82727	-12.973022	-18.90564	
1465359440922571	-19.526672	-13.273621	-17.855835	
1465359460911585	-18.476868	-14.624023	-19.204712	
1465359480900598	-18.476868	-14.022827	-22.055054	
1465359500920130	-18.476868	-12.223816	-19.204712	
1465359521061731	-19.82727	-12.973022	-19.654846	
1465359541172815	-18.927002	-14.173889	-21.455383	
1465359561772180	-19.076538	-14.323425	-20.555115	
1465359581486536	-18.927002	-13.124084	-20.405579	
1465359601628137	-19.526672	-12.973022	-19.955444	
1465359621769739	-17.726135	-14.624023	-19.955444	
1465359641880823	-18.777466	-14.624023	-19.204712	
1465359662327600	-17.877197	-14.472961	-20.10498	
1465359682194544	-19.377136	-14.173889	-21.154785	
1465359702336145	-20.126343	-15.37323	-19.204712	
1465359722447229	-19.076538	-15.37323	-20.256042	
1465359742619348	-19.076538	-15.9729	-20.555115	
1465359763401819	-18.626404	-16.574097	-20.405579	
1465359782902551	-19.82727	-15.37323	-21.305847	
1465359803044153	-18.777466	-15.673828	-20.256042	
1465359823185755	-19.377136	-15.823364	-19.055176	
1465359843327356	-18.626404	-16.873169	-21.154785	
1465359863957239	-18.927002	-16.273499	-20.405579	
1465359883610559	-19.676208	-15.522766	-22.206116	
1465359903630090	-18.927002	-16.273499	-20.855713	
1465359923893762	-18.026733	-16.423035	-21.60492	
1465359944004846	-17.877197	-16.574097	-22.206116	
1465359964329553	-19.076538	-15.673828	-22.055054	
1465359984318567	-18.777466	-15.9729	-21.60492	
1465360004460169	-18.026733	-17.773438	-22.055054	
1465360024601770	-17.276001	-17.173767	-22.206116	
1465360044743372	-16.226196	-19.573975	-23.85559	
1465360064884973	-13.226318	-20.773315	-24.455261	
1465360084996057	-12.927246	-21.22345	-24.005127	
1465360105137659	-13.37738	-20.922852	-25.205994	
1465360125309778	-10.527039	-22.573853	-25.805664	
1465360145420862	-9.176636	-23.023987	-23.554993	
1465360165745569	-7.826233	-25.424194	-23.85559	
1465360185734583	-6.477356	-25.123596	-24.604797	
1465360205876184	-6.776428	-27.223206	-25.205994	
1465360225987268	-6.326294	-26.023865	-25.35553	
1465360246159387	-5.7266235	-26.1734	-25.656128	
1465360266300989	-3.326416	-24.073792	-27.305603	
1465360286412073	-4.3762207	-24.822998	-27.305603	
1465360306553674	-3.0273438	-24.073792	-28.656006	
1465360326725794	-2.1270752	-21.524048	-29.855347	
1465360346836878	-2.4261475	-21.524048	-28.805542	
1465360367405725	-3.326416	-21.673584	-29.70581	
1465360387120081	-2.8762817	-21.82312	-30.155945	
1465360407292200	-1.826477	-20.173645	-28.205872	
1465360427403284	-2.7267456	-20.62378	-29.70581	
1465360447575403	-1.9760132	-20.024109	-28.656006	
1465360467991663	-1.3763428	-18.074036	-29.554749	
1465360487858606	-2.2766113	-19.573975	-28.656006	
1465360508000208	-1.6769409	-18.673706	-31.054688	
1465360528111292	-1.2268066	-18.223572	-30.004883	
1465360548283411	-1.9760132	-18.972778	-29.70581	
1465360569065881	0.27313232	-19.12384	-30.905151	
1465360588536096	-0.77667236	-18.823242	-30.155945	
1465360608586145	-1.9760132	-19.273376	-32.106018	
1465360630375696	-1.2268066	-18.972778	-30.755615	
1465360650486780	-1.0772705	-18.373108	-31.20575	
1465360670780969	-1.2268066	-18.223572	-31.355286	
1465360690464807	-1.826477	-18.074036	-30.155945	
1465360710453821	-0.17700195	-18.972778	-31.054688	
1465360730473352	-1.9760132	-19.573975	-32.106018	
1465360750462366	-1.3763428	-20.773315	-30.60608	
1465360770603967	-1.826477	-20.773315	-32.554626	
1465360790440393	-1.0772705	-20.773315	-33.30536	
1465360810429407	-0.02746582	-20.773315	-30.60608	
1465360830418421	-1.2268066	-20.62378	-31.355286	
1465360850437952	0.42266846	-19.273376	-32.106018	
1465360870701624	-0.17700195	-18.673706	-32.106018	
1465360890599085	-0.17700195	-18.972778	-32.40509	
1465360910801721	2.0736694	-20.773315	-33.30536	
1465360930973840	2.0736694	-18.074036	-31.504822	
1465360951084924	4.173279	-19.422913	-33.605957	
1465360971684290	2.5238037	-18.972778	-32.106018	
1465360991368128	4.473877	-17.47284	-33.605957	
1465361011509729	4.322815	-15.823364	-35.105896	
1465361031681848	4.924011	-15.522766	-34.5047	
1465361051792932	3.1234741	-14.323425	-35.40497	
1465361072178674	4.173279	-15.37323	-36.75537	
1465361092106653	3.4225464	-13.574219	-36.00464	
1465361112248255	2.822876	-13.124084	-35.105896	
1465361132359339	1.473999	-13.423157	-36.904907	
1465361152531458	3.7231445	-14.323425	-36.305237	
1465361173252893	4.924011	-12.373352	-35.55603	
1465361192814661	3.1234741	-15.37323	-37.05597	
1465361212925745	3.2730103	-13.423157	-36.904907	
1465361233067346	3.5736084	-15.522766	-35.105896	
1465361253239465	2.6733398	-14.022827	-34.954834	
1465361273808313	1.473999	-16.574097	-34.5047	
1465361293522669	-0.17700195	-17.173767	-35.855103	
1465361313664270	0.27313232	-17.773438	-36.00464	
1465361333805872	0.12359619	-15.522766	-33.454895	
1465361353947473	-2.2766113	-16.273499	-35.55603	
1465361374882532	0.87280273	-17.922974	-35.855103	
1465361394200159	-2.2766113	-16.873169	-33.755493	
1465361414341760	-0.62713623	-16.273499	-36.1557	
1465361434513880	-2.4261475	-16.423035	-36.00464	
1465361454624964	-2.1270752	-15.9729	-34.954834	
1465361475132776	-2.7267456	-15.522766	-36.605835	
1465361494908167	-1.9760132	-14.173889	-36.605835	
1465361515080286	-1.0772705	-14.022827	-37.35504	
1465361535191370	-1.2268066	-13.873291	-37.954712	
1465361555332971	-0.3265381	-12.67395	-37.35504	
1465361575657678	0.42266846	-10.723877	-38.55591	
1465361595646692	1.0238647	-12.223816	-38.105774	
1465361615757776	1.9226074	-11.773682	-39.904785	
1465361635929895	0.42266846	-12.373352	-37.954712	
1465361656040979	1.6235352	-13.574219	-36.75537	
1465361676182581	0.27313232	-15.9729	-34.954834	
1465361696354700	1.6235352	-15.37323	-35.705566	
1465361716496301	1.0238647	-16.723633	-37.05597	
1465361736637903	2.3727417	-17.024231	-36.00464	
1465361756779505	1.9226074	-18.673706	-37.954712	
1465361777317835	2.3727417	-18.373108	-35.705566	
1465361797062708	2.6733398	-17.773438	-35.705566	
1465361817173792	0.42266846	-19.273376	-34.205627	
1465361837345911	0.27313232	-20.173645	-36.75537	
1465361857456995	-0.62713623	-21.372986	-35.855103	
1465361877781702	-2.1270752	-22.123718	-36.75537	
1465361897740198	-1.0772705	-20.474243	-34.355164	
1465361917881799	-0.17700195	-21.673584	-35.105896	
1465361938053919	-1.6769409	-21.372986	-34.5047	
1465361958165003	0.57373047	-22.872925	-33.90503	
1465361978825403	-1.3763428	-21.524048	-33.605957	
1465362000065637	-0.3265381	-22.123718	-33.30536	
1465362020146204	-0.9262085	-20.323181	-33.155823	
1465362040257288	-0.17700195	-21.673584	-34.5047	
1465362060246301	-0.77667236	-19.422913	-35.705566	
1465362080571008	0.12359619	-16.873169	-37.205505	
1465362100224329	0.27313232	-17.024231	-38.705444	
1465362120213342	0.27313232	-14.323425	-38.404846	
1465362140202356	-0.62713623	-11.022949	-38.25531	
1465362160221887	1.0238647	-10.273743	-37.805176	
1465362180394006	-1.6769409	-9.674072	-40.655518	
1465362200199915	-3.6270142	-9.072876	-39.305115	
1465362220188928	-3.17688	-9.223938	-40.50598	
1465362240208460	-4.2266846	-8.92334	-40.805054	
1465362260319544	-4.977417	-8.92334	-38.404846	
1465362280613733	-5.126953	-10.423279	-41.404724	
1465362300602747	-4.3762207	-9.373474	-39.305115	
1465362320713831	-4.2266846	-11.174011	-39.15558	
1465362340885950	-5.2764893	-11.174011	-38.105774	
1465362360997034	-5.7266235	-11.773682	-38.55591	
1465362381687952	-4.977417	-12.67395	-38.705444	
1465362401280237	-7.977295	-12.223816	-39.15558	
1465362421452356	-7.2265625	-12.373352	-38.55591	
1465362441593958	-6.626892	-11.174011	-37.805176	
1465362461705042	-9.477234	-11.6241455	-38.404846	
1465362482151819	-8.876038	-12.373352	-36.904907	
1465362502018762	-10.22644	-12.823486	-36.904907	
1465362522160364	-9.176636	-11.773682	-36.904907	
1465362542301965	-11.126709	-12.223816	-36.75537	
1465362562321497	-13.076782	-14.173889	-35.855103	
1465362583226038	-13.977051	-12.67395	-35.705566	
1465362602696253	-16.526794	-12.823486	-35.855103	
1465362622837854	-15.327454	-11.174011	-34.65576	
1465362643009973	-15.327454	-12.223816	-34.954834	
1465362663121057	-17.726135	-12.973022	-33.90503	
1465362683781458	-16.377258	-10.873413	-34.954834	
1465362703312708	-16.526794	-9.674072	-34.205627	
1465362723549836	-17.276001	-10.723877	-33.155823	
1465362743721955	-16.976929	-10.273743	-33.90503	
1465362763833039	-18.026733	-10.873413	-33.30536	
1465362784157746	-17.276001	-12.823486	-33.454895	
1465362804146760	-18.327332	-13.124084	-35.105896	
1465362824257844	-18.777466	-10.572815	-34.355164	
1465362844338410	-18.327332	-11.4730835	-33.755493	
1465362864541047	-17.5766	-11.4730835	-34.805298	
1465362884682648	-19.076538	-11.174011	-33.90503	
1465362904854768	-18.927002	-12.823486	-32.40509	
1465362924996369	-18.026733	-13.273621	-31.954956	
1465362945107453	-21.026611	-12.072754	-32.106018	
1465362965279572	-18.327332	-13.124084	-35.105896	
1465362985573762	-18.927002	-12.823486	-34.5047	
1465363005532258	-18.626404	-11.773682	-35.105896	
1465363025673859	-17.5766	-13.124084	-34.5047	
1465363045845979	-18.476868	-12.67395	-33.90503	
1465363065957063	-17.276001	-14.472961	-33.454895	
1465363086098664	-16.226196	-13.873291	-33.755493	
1465363106270783	-15.026855	-15.673828	-34.355164	
1465363126412385	-15.47699	-15.223694	-33.454895	
1465363146523469	-15.47699	-15.823364	-35.105896	
1465363166695588	-15.776062	-15.823364	-35.855103	
1465363187264436	-14.576721	-14.022827	-36.305237	
1465363206948273	-15.776062	-13.124084	-35.55603	
1465363227089875	-15.47699	-11.4730835	-35.855103	
1465363247261994	-16.226196	-10.723877	-34.805298	
1465363267373078	-16.526794	-9.373474	-36.904907	
1465363287819855	-16.827393	-7.723999	-33.454895	
1465363307686799	-18.626404	-8.622742	-34.805298	
1465363327797883	-20.576477	-7.1228027	-32.554626	
1465363347970002	-18.927002	-5.923462	-34.805298	
1465363369698518	-21.92688	-7.873535	-33.605957	
1465363390542023	-21.32721	-8.023071	-33.155823	
1465363409890168	-20.726013	-10.423279	-33.755493	
1465363429879182	-20.726013	-8.622742	-33.454895	
1465363449868195	-22.52655	-8.473206	-31.504822	
1465363469887727	-23.876953	-8.622742	-31.355286	
1465363489907258	-24.327087	-8.473206	-30.905151	
1465363509865754	-25.227356	-10.423279	-28.656006	
1465363529885285	-23.876953	-9.973145	-30.004883	
1465363549874299	-23.576355	-9.52301	-29.554749	
1465363569893830	-22.827148	-9.072876	-30.755615	
1465363590035432	-22.227478	-10.572815	-30.905151	
1465363609841340	-22.52655	-10.572815	-31.504822	
1465363629952424	-23.876953	-9.674072	-29.70581	
1465363650063508	-22.827148	-9.973145	-28.656006	
1465363670235627	-24.62616	-10.273743	-29.255676	
1465363690529816	-24.476624	-9.674072	-29.405212	
1465363710518830	-24.476624	-9.973145	-31.054688	
1465363730629914	-26.27716	-8.323669	-31.054688	
1465363750802033	-24.176025	-7.723999	-30.455017	
1465363770913117	-25.076294	-7.423401	-30.155945	
1465363791481965	-26.27716	-8.323669	-30.455017	
1465363811226838	-24.926758	-10.423279	-29.70581	
1465363831337922	-25.376892	-10.873413	-29.554749	
1465363851510041	-24.02649	-9.52301	-29.554749	
1465363871651643	-25.526428	-11.4730835	-28.355408	
1465363892067902	-24.02649	-12.67395	-29.554749	
1465363911934846	-24.926758	-13.873291	-30.455017	
1465363932076447	-23.277283	-14.022827	-29.855347	
1465363952218049	-22.076416	-15.223694	-30.455017	
1465363972359650	-24.327087	-15.9729	-27.755737	
1465363993142121	-22.377014	-16.574097	-29.70581	
1465364012642854	-22.976685	-15.074158	-27.755737	
1465364032753938	-23.12622	-16.873169	-28.05481	
1465364052926057	-25.076294	-16.423035	-28.805542	
1465364073037141	-22.227478	-18.074036	-29.554749	
1465364093697541	-21.92688	-18.823242	-26.855469	
1465364113350861	-22.227478	-18.074036	-28.504944	
1465364133492463	-22.227478	-21.22345	-25.805664	
1465364153603547	-24.176025	-20.024109	-28.05481	
1465364173775666	-23.576355	-19.873047	-27.156067	
1465364194771760	-23.12622	-20.024109	-25.656128	
1465364214028352	-22.976685	-19.12384	-26.855469	
1465364234169953	-23.426819	-18.673706	-27.604675	
1465364254342072	-23.576355	-19.12384	-28.205872	
1465364274453156	-23.426819	-16.574097	-27.005005	
1465364294503205	-23.426819	-15.823364	-27.604675	
1465364314766877	-25.076294	-15.37323	-28.504944	
1465364334908479	-23.277283	-13.273621	-28.805542	
1465364355019563	-26.727295	-10.572815	-28.205872	
1465364375191682	-27.926636	-9.373474	-26.55487	
1465364395485871	-27.476501	-9.223938	-26.104736	
1465364415444367	-27.626038	-9.072876	-26.55487	
1465364435585969	-29.125977	-9.223938	-26.855469	
1465364455727570	-27.7771	-8.473206	-27.755737	
1465364475899689	-28.826904	-8.92334	-28.205872	
1465364496010773	-28.076172	-9.823608	-28.805542	
1465364516152375	-27.476501	-10.873413	-27.156067	
1465364536324494	-26.426697	-10.873413	-28.805542	
1465364556466096	-27.326965	-12.072754	-27.005005	
1465364576577180	-25.827026	-11.022949	-27.305603	
1465364596901887	-27.476501	-10.873413	-26.855469	
1465364616890900	-27.326965	-11.022949	-28.355408	
1465364637032502	-26.876831	-9.973145	-27.604675	
1465364657174104	-26.727295	-9.823608	-27.755737	
1465364677193635	-27.626038	-10.423279	-27.005005	
1465364697579377	-27.626038	-8.622742	-27.305603	
1465364717568391	-25.227356	-8.023071	-28.656006	
1465364737740510	-29.125977	-9.52301	-28.504944	
1465364759438508	-27.7771	-8.174133	-26.405334	
1465364779549592	-29.426575	-7.2738647	-27.005005	
1465364800332063	-28.37677	-6.9732666	-25.656128	
1465364819527619	-30.026245	-7.723999	-27.305603	
1465364839516633	-28.677368	-8.023071	-24.604797	
1465364859505646	-29.125977	-7.423401	-25.35553	
1465364879525178	-31.07605	-7.2738647	-25.205994	
1465364899514191	-30.177307	-7.423401	-23.706055	
1465364919503205	-31.07605	-6.9732666	-24.154663	
1465364939522736	-29.876709	-6.5231323	-25.054932	
1465364959481232	-30.926514	-9.223938	-23.706055	
1465364979470246	-28.526306	-10.873413	-24.75586	
1465364999764436	-28.37677	-11.773682	-25.656128	
1465365019692414	-30.926514	-11.6241455	-25.054932	
1465365039864533	-27.326965	-12.373352	-25.205994	
1465365059975617	-30.47638	-12.072754	-25.656128	
1465365080117219	-29.727173	-12.072754	-24.604797	
1465365100289338	-29.125977	-14.022827	-24.75586	
1465365120430939	-28.526306	-14.624023	-23.405457	
1465365140542023	-28.97644	-13.124084	-24.905396	
1465365160714143	-27.17743	-12.67395	-25.054932	
1465365180825227	-28.076172	-12.67395	-24.005127	
1465365201394074	-29.125977	-14.022827	-24.005127	
1465365221108430	-30.026245	-11.022949	-25.656128	
1465365241280549	-29.876709	-12.973022	-24.455261	
1465365261422150	-29.727173	-12.072754	-24.905396	
1465365281563752	-28.677368	-10.423279	-24.154663	
1465365301949494	-29.57611	-9.823608	-25.054932	
1465365321816438	-30.627441	-10.873413	-24.005127	
1465365341958039	-30.627441	-8.174133	-22.955322	
1465365362130158	-31.826782	-9.973145	-24.905396	
1465365382241242	-28.526306	-8.174133	-23.706055	
1465365403054230	-31.227112	-6.072998	-23.405457	
1465365422554963	-30.026245	-5.622864	-23.554993	
1465365442666047	-31.227112	-5.773926	-22.955322	
1465365462838166	-30.47638	-4.873657	-24.154663	
1465365482979768	-30.627441	-3.6727905	-23.405457	
1465365503579133	-31.826782	-4.573059	-22.505188	
1465365523232453	-31.376648	-3.8238525	-21.755981	
1465365543374055	-31.376648	-5.622864	-22.505188	
1465365563546174	-31.976318	-6.8237305	-23.706055	
1465365583657258	-30.177307	-6.5231323	-23.405457	
1465365604683869	-30.47638	-5.923462	-23.554993	
1465365623940461	-30.926514	-6.072998	-25.054932	
1465365644112580	-29.125977	-8.174133	-24.005127	
1465365664223664	-30.177307	-7.423401	-22.955322	
1465365684395783	-29.426575	-7.2738647	-23.85559	
1465365704415314	-31.677246	-7.873535	-24.455261	
1465365764931672	-33.026123	-4.122925	-21.005249	
1465365764931672	-33.026123	-4.122925	-21.005249	
1465365764931672	-33.026123	-4.122925	-21.005249	
1465365785073273	-33.026123	-3.6727905	-19.955444	
1465365805367463	-33.92639	-2.1728516	-18.455505	
1465365825386994	-35.276794	-2.4734497	-17.4057	
1465365845528596	-34.526062	-1.1230469	-17.704773	
1465365865639680	-34.077454	0.67596436	-16.505432	
1465365885781281	-35.42633	1.1260986	-17.254639	
1465365905922883	-34.22699	1.2771606	-17.704773	
1465365926064484	-33.62732	-0.6729126	-15.455627	
1465365946206086	-35.12726	-0.97351074	-16.80603	
1465365966286652	-36.177063	0.3768921	-17.555237	
1465365986519807	-34.22699	0.5264282	-18.455505	
1465366006783479	-35.12726	0.67596436	-17.254639	
1465366026803010	-34.526062	-0.52337646	-17.4057	
1465366046914094	-33.476257	-0.8239746	-18.756104	
1465366067055695	-33.62732	0.076293945	-17.855835	
1465366087197297	-33.92639	-1.8737793	-19.805908	
1465366107338898	-33.62732	0.67596436	-19.955444	
1465366129006379	-31.227112	-1.7242432	-22.654724	
1465366149209016	-34.077454	-0.22277832	-22.955322	
1465366169198029	-34.077454	-1.7242432	-22.955322	
1465366189187043	-33.32672	-1.7242432	-22.355652	
1465366209664338	-31.677246	-1.2741089	-21.60492	
1465366229165070	-30.776978	-2.1728516	-24.154663	
1465366249184602	-31.677246	-0.22277832	-23.706055	
1465366269143098	-31.826782	-1.1230469	-23.554993	
1465366289132111	-31.07605	-3.5232544	-24.604797	
1465366309151643	-30.47638	-1.1230469	-24.905396	
1465366329140656	-30.627441	-2.3239136	-26.104736	
1465366349038117	-29.727173	-1.1230469	-28.05481	
1465366369179719	-29.426575	-1.423645	-26.255798	
1465366389351838	-28.97644	-1.1230469	-28.355408	
1465366409676545	-27.476501	-0.6729126	-29.855347	
1465366429635041	-27.926636	0.5264282	-28.656006	
1465366449776643	-27.17743	0.076293945	-28.805542	
1465366469887727	-26.126099	-0.22277832	-29.255676	
1465366490059846	-25.526428	0.22583008	-30.004883	
1465366510201447	-25.526428	0.9765625	-30.455017	
1465366530312531	-25.076294	1.4266968	-29.855347	
1465366550454133	-25.526428	2.3269653	-30.004883	
1465366570626252	-25.076294	1.4266968	-31.20575	
1465366590737336	-26.727295	-0.22277832	-29.855347	
1465366611336701	-25.67749	-0.22277832	-30.905151	
1465366631020539	-25.67749	0.3768921	-30.60608	
1465366651192658	-26.126099	-2.6229858	-29.855347	
1465366671303742	-24.926758	-0.07324219	-31.355286	
1465366691445344	-26.126099	-2.0233154	-32.554626	
1465366711861604	-25.227356	-1.8737793	-30.755615	
1465366731728547	-26.426697	-3.3737183	-30.155945	
1465366751870148	-27.7771	-2.0233154	-31.20575	
1465366772042268	-28.076172	-3.3737183	-30.60608	
1465366792153352	-27.326965	-0.8239746	-31.80542	
1465366812966340	-29.426575	-2.1728516	-30.755615	
1465366832467072	-26.126099	-2.0233154	-30.155945	
1465366852608674	-27.17743	-2.6229858	-29.255676	
1465366872719758	-29.727173	-1.8737793	-29.70581	
1465366892891877	-29.125977	-1.7242432	-29.554749	
1465366913491242	-30.926514	-2.0233154	-28.205872	
1465366933144563	-30.627441	-3.3737183	-28.805542	
1465366953286164	-31.07605	-2.1728516	-28.656006	
1465366973458283	-29.125977	-3.07312	-28.205872	
1465366993569367	-31.07605	-1.8737793	-27.305603	
1465367014595979	-29.426575	-3.5232544	-29.405212	
1465367033852570	-28.826904	-2.0233154	-28.805542	
1465367053994172	-27.7771	-2.0233154	-27.45514	
1465367074166291	-28.826904	-2.0233154	-27.45514	
1465367094277375	-29.426575	-3.8238525	-27.305603	
1465367114327424	-28.37677	-2.1728516	-28.656006	
1465367134591096	-28.526306	-5.4733276	-28.205872	
1465367154702180	-29.125977	-5.773926	-30.155945	
1465367174843781	-28.677368	-5.923462	-30.455017	
1465367195015900	-28.677368	-5.3237915	-29.70581	
1465367215310090	-28.526306	-6.8237305	-28.504944	
1465367235268586	-29.125977	-6.072998	-29.554749	
1465367255410188	-28.97644	-6.9732666	-28.355408	
1465367275582307	-28.076172	-8.92334	-28.504944	
1465367295723908	-29.57611	-9.52301	-29.255676	
1465367315865510	-27.17743	-9.223938	-29.255676	
1465367335976594	-27.326965	-8.622742	-28.955078	
1465367356118195	-27.476501	-9.823608	-29.255676	
1465367376290314	-26.426697	-8.473206	-29.855347	
1465367396401398	-26.727295	-9.52301	-28.805542	
1465367417000764	-26.727295	-10.873413	-28.805542	
1465367436715119	-25.827026	-9.072876	-28.05481	
1465367456856721	-25.376892	-9.52301	-29.554749	
1465367476998322	-25.526428	-10.423279	-30.004883	
1465367498665803	-26.27716	-6.9732666	-30.455017	
1465367519204133	-24.62616	-5.4733276	-30.155945	
1465367538857453	-25.827026	-3.5232544	-31.355286	
1465367558846467	-24.02649	-4.724121	-31.20575	
1465367578835480	-25.526428	-4.273987	-31.355286	
1465367598824494	-25.076294	-3.6727905	-31.20575	
1465367618844025	-25.076294	-3.6727905	-30.905151	
1465367638710969	-23.576355	-5.773926	-32.554626	
1465367658761018	-23.576355	-6.072998	-31.954956	
1465367678811066	-23.12622	-5.3237915	-32.40509	
1465367698800080	-23.426819	-7.723999	-33.454895	
1465367718789094	-22.377014	-8.622742	-32.106018	
1465367738808625	-21.32721	-8.323669	-32.106018	
1465367758980744	-23.12622	-9.674072	-32.70569	
1465367779122346	-23.426819	-8.323669	-32.106018	
1465367799233430	-22.827148	-9.373474	-31.355286	
1465367819802277	-24.476624	-10.423279	-31.80542	
1465367839516633	-23.576355	-9.52301	-31.954956	
1465367859658234	-24.176025	-12.072754	-31.355286	
1465367879830354	-23.277283	-11.6241455	-31.954956	
1465367899941438	-24.02649	-10.572815	-30.905151	
1465367920357697	-23.277283	-9.823608	-30.155945	
1465367940255158	-22.52655	-11.6241455	-32.554626	
1465367960366242	-22.227478	-10.873413	-29.855347	
1465367980538361	-22.076416	-10.723877	-30.755615	
1465368000649445	-21.626282	-11.6241455	-31.504822	
1465368021462434	-23.876953	-11.773682	-30.004883	
1465368040932648	-22.076416	-12.373352	-31.054688	
1465368061104768	-20.877075	-12.223816	-31.20575	
1465368081215852	-20.877075	-12.973022	-32.255554	
1465368101387971	-20.576477	-13.273621	-32.255554	
1465368121987336	-22.076416	-14.173889	-28.955078	
1465368141671174	-23.12622	-14.77356	-30.755615	
1465368161782258	-23.876953	-13.124084	-29.70581	
1465368181954377	-23.12622	-14.472961	-30.455017	
1465368202065461	-21.92688	-14.022827	-30.155945	
1465368223092072	-22.976685	-14.624023	-30.905151	
1465368242348664	-22.227478	-13.574219	-29.554749	
1465368262490266	-22.227478	-13.273621	-29.255676	
1465368282662385	-21.777344	-13.423157	-31.054688	
1465368302773469	-21.026611	-13.124084	-30.004883	
1465368322823518	-23.12622	-13.423157	-31.355286	
1465368343087189	-22.52655	-13.574219	-29.255676	
1465368363198273	-23.876953	-12.823486	-30.004883	
1465368383370393	-22.377014	-13.124084	-31.80542	
1465368403511994	-22.076416	-12.823486	-28.955078	
1465368423775666	-22.227478	-14.323425	-29.855347	
1465368443764680	-21.92688	-12.67395	-29.255676	
1465368463936799	-23.876953	-13.124084	-28.656006	
1465368484078400	-24.327087	-11.923218	-29.855347	
1465368504220002	-24.62616	-12.67395	-29.554749	
1465368524331086	-25.526428	-13.423157	-28.955078	
1465368544472688	-25.076294	-11.6241455	-29.255676	
1465368564644807	-24.176025	-12.823486	-28.355408	
1465368584755891	-24.62616	-10.873413	-30.155945	
1465368604928010	-24.176025	-9.973145	-30.455017	
1465368625466340	-25.67749	-8.92334	-30.905151	
1465368645211213	-23.576355	-7.423401	-28.504944	
1465368665322297	-24.926758	-8.323669	-28.955078	
1465368685494416	-25.827026	-7.723999	-29.70581	
1465368705605500	-26.576233	-8.023071	-28.355408	
1465368726021760	-27.326965	-6.9732666	-27.005005	
1465368745919221	-26.426697	-8.473206	-27.755737	
1465368766060822	-26.576233	-6.6741943	-28.05481	
1465368786202424	-28.677368	-6.22406	-27.604675	
1465368806344025	-25.227356	-8.622742	-28.355408	
1465368827126496	-28.076172	-5.773926	-26.405334	
1465368846627229	-25.526428	-8.023071	-25.9552	
1465368868325227	-27.17743	-5.773926	-27.156067	
1465368888497346	-28.677368	-8.323669	-26.255798	
1465368908364289	-27.17743	-7.423401	-26.855469	
1465368928811066	-27.626038	-6.9732666	-27.005005	
1465368948494904	-28.076172	-6.5231323	-25.805664	
1465368968483918	-28.97644	-6.9732666	-25.656128	
1465368988472932	-27.476501	-6.072998	-24.75586	
1465369008492463	-29.426575	-4.873657	-25.656128	
1465369028664582	-30.177307	-7.873535	-24.75586	
1465369048501008	-27.926636	-7.723999	-24.905396	
1465369068459504	-27.626038	-8.023071	-25.205994	
1465369088418000	-29.125977	-8.92334	-25.054932	
1465369108468049	-28.526306	-8.174133	-25.054932	
1465369128792756	-27.926636	-8.622742	-27.604675	
1465369148720734	-28.37677	-6.9732666	-27.604675	
1465369168892854	-27.326965	-7.2738647	-27.005005	
1465369189003938	-28.37677	-9.674072	-25.9552	
1465369209176057	-27.7771	-12.223816	-26.104736	
1465369229866975	-28.37677	-13.873291	-25.205994	
1465369249428742	-26.27716	-13.124084	-26.255798	
1465369269570344	-26.876831	-14.173889	-25.656128	
1465369289742463	-25.227356	-14.472961	-26.55487	
1465369309884064	-24.176025	-15.522766	-27.604675	
1465369330361359	-24.476624	-16.273499	-26.255798	
1465369350136750	-23.277283	-16.723633	-28.805542	
1465369370278352	-23.277283	-14.624023	-27.45514	
1465369390450471	-23.576355	-15.37323	-27.156067	
1465369410561555	-24.476624	-16.273499	-26.55487	
1465369431435578	-24.476624	-14.472961	-27.005005	
1465369450844758	-23.876953	-16.273499	-27.305603	
1465369471016877	-23.576355	-15.37323	-27.45514	
1465369491127961	-24.02649	-16.423035	-26.405334	
1465369511269563	-25.67749	-17.024231	-28.805542	
1465369531990998	-24.476624	-13.423157	-28.355408	
1465369551552766	-25.67749	-14.323425	-25.805664	
1465369571724885	-25.827026	-14.173889	-26.55487	
1465369591866486	-26.126099	-14.624023	-26.855469	
1465369611977570	-24.62616	-15.673828	-27.755737	
1465369632332795	-25.827026	-14.77356	-26.55487	
1465369652260773	-26.126099	-15.37323	-25.054932	
1465369672432893	-25.526428	-14.472961	-24.154663	
1465369692543977	-25.827026	-15.522766	-26.255798	
1465369712716096	-26.27716	-14.77356	-25.656128	
1465369732857697	-27.326965	-13.423157	-25.656128	
1465369752968781	-27.926636	-12.373352	-25.205994	
1465369773110383	-25.67749	-14.022827	-24.005127	
1465369793282502	-27.17743	-13.273621	-24.75586	
1465369813424104	-25.526428	-14.173889	-23.554993	
1465369833687775	-26.576233	-12.373352	-23.25592	
1465369853676789	-27.626038	-13.873291	-23.25592	
1465369873848908	-26.727295	-11.923218	-26.104736	
1465369893990510	-27.7771	-10.873413	-26.104736	
1465369914132111	-28.37677	-11.022949	-24.604797	
1465369934243195	-26.876831	-9.973145	-26.55487	
1465369954384797	-26.876831	-9.973145	-23.85559	
1465369974526398	-27.476501	-8.92334	-24.455261	
1465369994698518	-28.826904	-8.473206	-24.005127	
1465370014809602	-26.876831	-9.973145	-24.905396	
1465370035408967	-29.727173	-8.323669	-24.905396	
1465370055123322	-28.076172	-9.823608	-25.805664	
1465370075264924	-27.926636	-10.723877	-23.85559	
1465370095406525	-28.526306	-10.273743	-24.75586	
1465370115548127	-28.526306	-11.174011	-24.455261	
1465370135964387	-28.076172	-9.52301	-24.005127	
1465370155800813	-28.526306	-9.52301	-24.455261	
1465370175972932	-29.727173	-9.373474	-24.154663	
1465370196114533	-31.07605	-9.674072	-21.755981	
1465370216225617	-29.426575	-9.674072	-22.206116	
1465370238686555	-30.776978	-9.373474	-23.554993	
1465370258034699	-31.07605	-8.023071	-22.206116	
1465370278145783	-30.926514	-9.223938	-23.405457	
1465370298134797	-29.727173	-9.072876	-21.455383	
1465370318154328	-29.727173	-9.674072	-22.805786	
1465370338143342	-29.125977	-8.92334	-22.055054	
1465370358132355	-29.125977	-8.92334	-22.955322	
1465370378151887	-29.57611	-8.174133	-22.055054	
1465370398140900	-29.57611	-9.223938	-24.005127	
1465370418129914	-30.177307	-8.473206	-23.706055	
1465370438271516	-28.677368	-8.023071	-22.505188	
1465370458107941	-29.727173	-8.323669	-22.805786	
1465370478096955	-28.97644	-9.072876	-21.154785	
1465370498238557	-30.627441	-9.223938	-21.005249	
1465370518349641	-30.47638	-10.423279	-20.10498	
1465370538674348	-31.376648	-9.072876	-20.10498	
1465370558632844	-30.177307	-8.473206	-18.605042	
1465370578774445	-31.976318	-9.223938	-17.555237	
1465370598946564	-31.227112	-6.8237305	-17.555237	
1465370619057648	-33.32672	-8.92334	-18.90564	
1465370639748566	-31.677246	-8.92334	-19.654846	
1465370659340852	-31.976318	-8.174133	-17.855835	
1465370679482453	-32.876587	-7.2738647	-17.704773	
1465370699654572	-31.376648	-8.023071	-19.50531	
1465370719765656	-30.177307	-6.8237305	-20.256042	
1465370740303986	-31.07605	-4.873657	-21.755981	
1465370760048859	-30.627441	-4.122925	-20.256042	
1465370780190461	-31.976318	-2.0233154	-21.305847	
1465370800362580	-30.47638	-4.273987	-19.50531	
1465370820473664	-30.177307	-2.0233154	-18.90564	
1465370841286652	-29.426575	-2.1728516	-20.405579	
1465370860787385	-28.526306	-3.07312	-20.256042	
1465370880928986	-28.526306	-2.0233154	-22.055054	
1465370901040070	-30.47638	-1.423645	-21.755981	
1465370921181672	-28.526306	-0.97351074	-22.355652	
1465370941781037	-29.727173	0.22583008	-23.25592	
1465370961495393	-28.526306	1.1260986	-21.60492	
1465370981636994	-27.326965	0.9765625	-21.455383	
1465371001778596	-26.126099	3.5263062	-22.955322	
1465371021889680	-27.17743	3.8269043	-23.405457	
1465371042733186	-27.326965	4.727173	-23.25592	
1465371062172883	-28.076172	6.526184	-22.355652	
1465371082314484	-26.727295	5.4763794	-22.654724	
1465371102486604	-26.876831	5.6259155	-22.505188	
1465371122597688	-25.526428	8.776855	-23.25592	
1465371143258088	-23.876953	10.127258	-24.604797	
1465371162880891	-22.976685	10.276794	-25.054932	
1465371183022492	-20.576477	12.376404	-25.35553	
1465371203194611	-19.976807	11.92627	-24.154663	
1465371223305695	-22.377014	13.276672	-27.005005	
1465371243630402	-21.777344	12.52594	-25.9552	
1465371263619416	-21.32721	12.826538	-24.604797	
1465371283761018	-21.626282	12.376404	-23.706055	
1465371303902619	-23.576355	13.726807	-24.005127	
1465371324013703	-22.076416	12.826538	-25.9552	
1465371344155305	-21.176147	14.025879	-24.455261	
1465371364327424	-20.126343	13.726807	-25.35553	
1465371384469025	-20.726013	14.926147	-23.85559	
1465371404580109	-18.026733	14.776611	-24.455261	
1465371424752229	-20.576477	14.025879	-25.054932	
1465371445046418	-19.976807	14.627075	-23.85559	
1465371465004914	-22.227478	12.677002	-24.75586	
1465371485146516	-21.626282	14.776611	-24.75586	
1465371505318635	-21.176147	12.376404	-25.054932	
1465371525429719	-20.277405	13.575745	-24.905396	
1465371545571320	-19.976807	13.575745	-24.905396	
1465371565743439	-20.126343	12.976074	-24.75586	
1465371585885041	-20.877075	14.025879	-24.455261	
1465371605996125	-20.126343	13.726807	-25.805664	
1465371627694123	-20.277405	12.52594	-26.55487	
1465371648262971	-19.377136	10.127258	-26.255798	
1465371667794221	-20.726013	12.826538	-26.55487	
1465371687813752	-19.82727	12.376404	-27.156067	
1465371707741730	-18.777466	11.627197	-26.104736	
1465371727791779	-18.927002	12.826538	-28.656006	
1465371747780793	-18.026733	13.4262085	-27.755737	
1465371767800324	-18.026733	12.376404	-28.205872	
1465371787758820	-17.726135	12.075806	-29.255676	
1465371807778352	-17.276001	11.92627	-28.955078	
1465371827767365	-17.5766	11.177063	-28.05481	
1465371847939484	-18.626404	11.92627	-29.405212	
1465371867867463	-16.526794	12.52594	-27.604675	
1465371888009064	-16.827393	12.826538	-28.955078	
1465371908150666	-18.026733	12.976074	-28.805542	
1465371928261750	-16.827393	13.876343	-28.355408	
1465371948586457	-16.67633	11.627197	-27.755737	
1465371968575471	-17.5766	11.177063	-28.955078	
1465371988717072	-18.626404	11.92627	-28.355408	
1465372008858674	-18.927002	11.92627	-28.355408	
1465372029000275	-18.026733	12.075806	-28.504944	
1465372049660676	-18.626404	14.176941	-28.355408	
1465372069283479	-17.877197	11.476135	-27.604675	
1465372089394563	-17.726135	11.627197	-29.855347	
1465372109566682	-17.427063	12.677002	-28.805542	
1465372129708283	-17.276001	12.226868	-29.70581	
1465372150216096	-18.626404	12.826538	-30.455017	
1465372169960969	-18.026733	12.376404	-27.755737	
1465372190133088	-16.526794	13.876343	-28.656006	
1465372210274689	-18.327332	13.276672	-29.70581	
1465372230385773	-16.526794	12.226868	-30.755615	
1465372251198762	-16.377258	14.776611	-29.255676	
1465372270668977	-17.726135	13.4262085	-29.255676	
1465372290810578	-19.82727	10.276794	-28.805542	
1465372310982697	-19.526672	11.627197	-29.255676	
1465372331093781	-17.877197	11.476135	-29.70581	
1465372351693146	-19.82727	9.976196	-30.905151	
1465372371376984	-19.82727	9.677124	-30.60608	
1465372391549104	-20.576477	11.026001	-30.155945	
1465372411660188	-17.726135	10.726929	-30.155945	
1465372431832307	-18.927002	9.075928	-29.405212	
1465372452797883	-20.277405	10.127258	-30.455017	
1465372472115510	-20.277405	9.075928	-30.004883	
1465372492226594	-20.877075	9.22699	-29.554749	
1465372512398713	-22.52655	8.326721	-30.905151	
1465372532540314	-21.176147	7.876587	-30.60608	
1465372552987092	-22.827148	6.677246	-28.355408	
1465372572731965	-21.176147	7.2769165	-29.554749	
1465372592965119	-22.076416	8.776855	-28.05481	
1465372613076203	-22.976685	7.2769165	-28.805542	
1465372633217805	-24.327087	6.227112	-29.855347	
1465372653542512	-24.327087	6.227112	-29.255676	
1465372673531525	-21.626282	5.1757812	-29.255676	
1465372693673127	-24.327087	6.227112	-29.554749	
1465372713814729	-22.52655	5.9265137	-29.554749	
1465372733977427	-21.92688	4.876709	-28.805542	
1465372754119029	-19.976807	6.376648	-29.405212	
1465372774260630	-21.176147	6.526184	-29.554749	
1465372794371714	-20.726013	8.476257	-31.355286	
1465372814543833	-19.82727	8.326721	-32.255554	
1465372834654917	-17.877197	6.376648	-34.5047	
1465372855223765	-18.026733	8.326721	-32.255554	
1465372874938120	-18.777466	9.976196	-31.954956	
1465372895079722	-18.476868	8.625793	-30.905151	
1465372915251841	-18.476868	9.677124	-31.954956	
1465372935362925	-18.476868	9.22699	-31.504822	
1465372955809702	-20.726013	9.82666	-31.054688	
1465372975676646	-19.526672	8.625793	-31.504822	
1465372997344126	-20.277405	8.476257	-30.455017	
1465373017485728	-20.576477	7.575989	-30.60608	
1465373037474742	-20.877075	7.876587	-30.905151	
1465373057646861	-18.476868	7.876587	-30.905151	
1465373077452769	-20.126343	7.2769165	-30.60608	
1465373097441783	-20.277405	7.4264526	-31.355286	
1465373117461314	-21.176147	7.575989	-30.905151	
1465373137450327	-21.176147	6.826782	-31.954956	
1465373157439341	-19.076538	6.227112	-31.954956	
1465373177458872	-19.526672	6.227112	-33.00476	
1465373197417368	-20.277405	7.1258545	-30.004883	
1465373217436900	-19.676208	3.9764404	-31.355286	
1465373237517466	-18.626404	5.3268433	-31.355286	
1465373258086314	-19.526672	6.826782	-31.20575	
1465373277800669	-19.976807	6.376648	-30.455017	
1465373297911753	-19.076538	6.227112	-30.905151	
1465373318083872	-19.976807	5.6259155	-32.40509	
1465373338194956	-21.92688	6.826782	-30.905151	
1465373358641734	-18.927002	7.1258545	-31.355286	
1465373378478160	-22.377014	6.376648	-29.405212	
1465373398619761	-20.126343	6.826782	-31.20575	
1465373418791880	-20.576477	7.876587	-28.805542	
1465373438902964	-22.52655	6.826782	-28.205872	
1465373459715952	-21.026611	8.026123	-29.405212	
1465373479216685	-21.777344	7.1258545	-29.405212	
1465373499327769	-21.026611	7.727051	-30.755615	
1465373519499888	-21.92688	6.826782	-30.60608	
1465373539610972	-21.92688	6.227112	-29.855347	
1465373560271372	-22.827148	6.07605	-28.656006	
1465373579924693	-21.92688	5.1757812	-27.755737	
1465373600066294	-23.277283	5.4763794	-28.205872	
1465373620207896	-22.377014	4.2770386	-28.955078	
1465373640349497	-24.476624	4.2770386	-28.05481	
1465373660643687	-23.12622	5.026245	-28.05481	
1465373680602183	-22.976685	4.876709	-29.255676	
1465373700774302	-24.02649	2.7770996	-27.45514	
1465373720854868	-23.426819	4.727173	-28.955078	
1465373741026988	-21.92688	4.4265747	-27.45514	
1465373761199107	-23.876953	4.2770386	-27.005005	
1465373781340708	-25.67749	3.0761719	-28.205872	
1465373801451792	-24.476624	2.9266357	-28.05481	
1465373821623911	-24.327087	2.7770996	-26.405334	
1465373841765513	-25.526428	3.9764404	-26.55487	
1465373862029185	-24.62616	5.4763794	-27.45514	
1465373882018199	-23.426819	5.3268433	-27.005005	
1465373902190318	-23.426819	5.026245	-28.05481	
1465373922331919	-23.876953	6.677246	-27.604675	
1465373942443003	-23.12622	6.07605	-26.255798	
1465373962584605	-24.476624	7.4264526	-27.005005	
1465373982756724	-25.827026	8.026123	-25.9552	
1465374002898326	-22.52655	8.926392	-26.855469	
1465374023039927	-23.876953	9.075928	-25.9552	
1465374043151011	-22.076416	9.526062	-28.355408	
1465374063750376	-20.726013	9.82666	-27.604675	
1465374083464732	-20.576477	9.976196	-27.755737	
1465374103606333	-19.377136	10.426331	-29.405212	
1465374123717417	-21.026611	10.876465	-27.305603	
1465374143889536	-19.526672	11.026001	-29.554749	
1465374164275279	-21.026611	11.177063	-28.656006	
1465374184142222	-19.076538	10.276794	-28.504944	
1465374204283824	-19.82727	8.926392	-29.255676	
1465374224455943	-20.277405	10.876465	-27.604675	
1465374244567027	-19.976807	8.776855	-27.604675	
1465374265380015	-18.927002	8.026123	-28.355408	
1465374284880747	-20.726013	9.526062	-28.656006	
1465374305022349	-19.976807	9.075928	-28.955078	
1465374325163951	-20.877075	11.326599	-26.855469	
1465374345305552	-20.277405	9.82666	-28.05481	
1465374367552867	-19.526672	6.227112	-27.755737	
1465374387175669	-21.176147	9.22699	-26.104736	
1465374407134165	-20.126343	7.575989	-26.104736	
1465374427153697	-21.777344	8.026123	-25.205994	
1465374447142710	-21.92688	7.876587	-25.35553	
1465374467314829	-22.227478	8.926392	-26.405334	
1465374487151255	-20.126343	7.876587	-25.35553	
1465374507140269	-21.626282	9.677124	-26.104736	
1465374527098765	-21.026611	8.476257	-25.9552	
1465374547118296	-20.277405	9.075928	-27.005005	
1465374567107310	-21.026611	9.526062	-25.205994	
1465374587126841	-20.576477	9.677124	-26.405334	
1465374607146372	-19.976807	6.677246	-26.55487	
1465374627287974	-20.277405	8.476257	-27.305603	
1465374647460093	-18.927002	8.776855	-25.205994	
1465374667906870	-19.676208	7.727051	-24.154663	
1465374687682261	-20.126343	7.876587	-25.054932	
1465374707823863	-19.676208	8.776855	-24.905396	
1465374727995982	-18.476868	8.926392	-25.054932	
1465374748107066	-19.526672	9.677124	-23.405457	
1465374768492808	-18.626404	8.026123	-24.604797	
1465374788298716	-19.526672	8.625793	-24.455261	
1465374808531870	-17.5766	7.727051	-24.905396	
1465374828703990	-17.877197	7.4264526	-24.905396	
1465374848815074	-18.026733	7.2769165	-25.805664	
1465374869597544	-19.076538	6.826782	-25.805664	
1465374889098277	-16.827393	10.426331	-25.205994	
1465374909270396	-16.67633	9.677124	-25.805664	
1465374929289927	-15.776062	9.526062	-24.905396	
1465374949523081	-16.07666	11.026001	-26.405334	
1465374970122447	-15.47699	8.476257	-27.305603	
1465374989806285	-15.026855	11.326599	-26.855469	
1465375009978404	-15.026855	10.726929	-27.755737	
1465375030089488	-13.825989	12.226868	-25.205994	
1465375050261607	-14.126587	11.476135	-27.604675	
1465375071227183	-11.877441	12.677002	-27.156067	
1465375090544810	-11.877441	12.677002	-26.855469	
1465375110655894	-11.726379	14.176941	-28.656006	
1465375130828013	-13.977051	13.4262085	-28.504944	
1465375150939097	-9.927368	12.826538	-29.70581	
1465375170958628	-12.176514	14.476013	-28.205872	
1465375191222300	-12.026978	12.52594	-28.955078	
1465375211394419	-12.32605	13.876343	-28.355408	
1465375231505503	-13.076782	12.226868	-28.955078	
1465375251677622	-11.877441	12.677002	-28.805542	
1465375271971812	-11.126709	12.976074	-27.755737	
1465375291930308	-11.126709	14.776611	-28.805542	
1465375312071910	-11.276245	14.627075	-30.455017	
1465375332213511	-10.977173	14.926147	-29.405212	
1465375352355113	-9.62677	14.926147	-28.656006	
1465375372527232	-10.076904	16.426086	-29.554749	
1465375392638316	-10.076904	17.176819	-31.20575	
1465375412779917	-12.026978	16.577148	-28.955078	
1465375432952036	-9.776306	15.376282	-30.155945	
1465375453063120	-11.726379	16.27655	-28.355408	
1465375473631968	-10.676575	18.37616	-28.656006	
1465375493346324	-10.826111	18.226624	-28.805542	
1465375513518443	-10.22644	18.077087	-27.305603	
1465375533660044	-10.22644	18.97583	-29.70581	
1465375553771128	-10.076904	18.226624	-30.905151	
1465375574217906	-12.176514	18.226624	-28.805542	
1465375594054331	-10.826111	18.226624	-31.954956	
1465375614226451	-10.22644	19.425964	-31.355286	
1465375634337535	-10.076904	18.527222	-30.155945	
1465375654509654	-11.726379	18.37616	-30.455017	
1465375675322642	-12.176514	18.527222	-30.155945	
1465375694792857	-12.32605	18.676758	-31.355286	
1465375714934458	-12.927246	18.826294	-31.20575	
1465375736601939	-15.327454	19.876099	-29.554749	
1465375756804576	-14.427185	19.425964	-31.054688	
1465375777129283	-14.126587	20.02716	-28.656006	
1465375796813120	-14.576721	19.276428	-30.905151	
1465375816771617	-15.026855	19.876099	-29.855347	
1465375836760630	-16.226196	19.726562	-29.70581	
1465375856780161	-16.526794	19.425964	-30.004883	
1465375876952281	-15.776062	18.37616	-28.955078	
1465375896758189	-16.67633	19.276428	-30.155945	
1465375916747202	-15.026855	18.527222	-29.554749	
1465375936644663	-13.226318	18.826294	-30.60608	
1465375956633677	-16.976929	17.77649	-29.554749	
1465375976958384	-15.626526	17.475891	-30.155945	
1465375996916880	-15.776062	18.676758	-31.054688	
1465376017027964	-14.576721	19.276428	-29.554749	
1465376037200083	-15.026855	19.577026	-29.554749	
1465376057311167	-15.026855	19.577026	-29.554749	
1465376078032603	-15.176392	18.97583	-30.004883	
1465376097594370	-14.427185	18.37616	-30.455017	
1465376117735972	-13.37738	18.37616	-30.455017	
1465376137908091	-15.327454	19.276428	-28.504944	
1465376158019175	-15.327454	19.276428	-30.905151	
1465376178588023	-15.026855	19.577026	-29.855347	
1465376198332896	-15.327454	18.527222	-30.155945	
1465376218443980	-15.026855	17.475891	-30.155945	
1465376238585581	-16.377258	17.176819	-28.805542	
1465376258757701	-15.327454	17.475891	-29.855347	
1465376279570689	-17.877197	18.37616	-29.405212	
1465376299010386	-18.327332	17.326355	-30.455017	
1465376319151988	-16.827393	18.077087	-30.004883	
1465376339324107	-16.07666	17.77649	-29.855347	
1465376359435191	-16.67633	18.527222	-28.805542	
1465376380065074	-16.976929	17.77649	-29.554749	
1465376399748911	-18.777466	18.226624	-28.504944	
1465376419859995	-18.026733	19.577026	-28.805542	
1465376440001597	-18.626404	19.425964	-28.355408	
1465376460143199	-16.827393	17.025757	-28.355408	
1465376481169810	-17.5766	16.577148	-28.656006	
1465376500456919	-19.377136	15.975952	-28.355408	
1465376520598521	-19.82727	17.475891	-28.805542	
1465376540709605	-18.476868	17.176819	-27.755737	
1465376560881724	-18.927002	17.326355	-26.255798	
1465376580901255	-18.327332	18.077087	-27.604675	
1465376601134410	-20.126343	17.176819	-27.755737	
1465376621276011	-20.576477	15.826416	-27.45514	
1465376641448130	-21.32721	16.577148	-27.604675	
1465376661589732	-20.277405	15.226746	-26.55487	
1465376681883921	-20.277405	14.176941	-27.305603	
1465376701842417	-21.777344	15.67688	-28.05481	
1465376722014536	-21.777344	15.67688	-26.255798	
1465376742125620	-23.576355	15.376282	-26.405334	
1465376762297740	-22.227478	14.776611	-26.405334	
1465376782439341	-21.32721	15.67688	-27.005005	
1465376802550425	-22.827148	14.627075	-26.255798	
1465376822692027	-22.976685	14.476013	-25.35553	
1465376842864146	-24.327087	14.476013	-26.104736	
1465376863005747	-23.876953	14.627075	-26.55487	
1465376883574595	-22.076416	13.575745	-25.656128	
1465376903288951	-23.576355	13.726807	-26.405334	
1465376923400035	-24.176025	14.926147	-27.305603	
1465376943572154	-24.176025	14.627075	-25.9552	
1465376963713755	-24.62616	15.077209	-23.706055	
1465376984130015	-21.026611	15.226746	-27.005005	
1465377003996958	-20.726013	15.226746	-25.205994	
1465377024138560	-20.277405	16.577148	-25.9552	
1465377044249644	-20.726013	18.077087	-24.905396	
1465377064421763	-19.976807	18.077087	-25.9552	
1465377085234751	-18.476868	17.475891	-26.405334	
1465377106261363	-18.777466	19.577026	-25.054932	
1465377126463999	-18.777466	18.826294	-27.45514	
1465377146422495	-17.5766	18.676758	-25.656128	
1465377166442027	-19.076538	18.226624	-26.104736	
1465377186766734	-18.026733	17.176819	-26.855469	
1465377206420054	-17.877197	18.37616	-27.305603	
1465377226317515	-19.676208	17.025757	-28.656006	
1465377246306529	-18.026733	17.77649	-27.45514	
1465377266295542	-19.676208	16.577148	-27.005005	
1465377286467661	-18.777466	17.475891	-26.104736	
1465377306304087	-17.877197	17.626953	-27.005005	
1465377326293101	-18.026733	17.77649	-27.755737	
1465377346373667	-20.126343	17.77649	-26.405334	
1465377366545786	-17.877197	17.326355	-27.604675	
1465377386809458	-17.877197	17.326355	-27.604675	
1465377406798472	-16.67633	18.226624	-26.104736	
1465377426940074	-18.026733	18.527222	-27.45514	
1465377447112193	-15.626526	17.176819	-27.755737	
1465377467223277	-19.076538	17.475891	-27.45514	
1465377487883677	-18.327332	16.27655	-25.9552	
1465377507536997	-18.927002	18.676758	-26.255798	
1465377527678599	-18.927002	18.37616	-25.9552	
1465377547820201	-17.726135	20.925903	-26.405334	
1465377567961802	-17.5766	18.077087	-27.604675	
1465377588408579	-17.877197	18.97583	-26.255798	
1465377608214488	-18.777466	18.527222	-27.156067	
1465377628386607	-18.626404	18.37616	-25.9552	
1465377648528208	-18.777466	17.176819	-25.35553	
1465377668669810	-19.076538	17.475891	-24.75586	
1465377689513316	-19.377136	17.326355	-27.005005	
1465377708953013	-17.5766	15.67688	-25.9552	
1465377729064097	-19.82727	16.426086	-26.855469	
1465377749236216	-18.626404	16.577148	-27.005005	
1465377769347300	-19.676208	14.627075	-27.305603	
1465377790038218	-19.676208	15.975952	-27.005005	
1465377809630503	-20.877075	15.376282	-26.855469	
1465377829772105	-20.877075	14.476013	-26.104736	
1465377849944224	-21.176147	14.476013	-26.405334	
1465377870055308	-19.676208	15.226746	-26.255798	
1465377890380015	-21.92688	14.476013	-27.45514	
1465377910338511	-21.92688	14.776611	-25.805664	
1465377930480113	-23.277283	12.677002	-26.104736	
1465377950621714	-21.026611	12.52594	-25.9552	
1465377970763316	-20.576477	14.776611	-26.855469	
1465377990935435	-22.377014	13.876343	-27.005005	
1465378011077036	-20.576477	15.826416	-27.156067	
1465378031188120	-21.176147	15.826416	-26.405334	
1465378051329722	-20.576477	15.826416	-25.805664	
1465378071501841	-19.82727	15.077209	-28.205872	
1465378091796031	-19.526672	16.127014	-27.156067	
1465378111754527	-20.277405	16.577148	-27.005005	
1465378131896128	-19.377136	16.577148	-27.305603	
1465378152068247	-18.777466	17.176819	-25.35553	
1465378172209849	-19.377136	18.077087	-27.305603	
1465378192320933	-18.327332	17.025757	-25.656128	
1465378212462535	-19.526672	16.127014	-25.805664	
1465378232604136	-18.626404	16.577148	-27.604675	
1465378252776255	-18.626404	16.577148	-27.604675	
1465378272887339	-17.877197	17.626953	-27.005005	
1465378293486704	-18.777466	16.87622	-26.855469	
1465378313201060	-19.076538	16.87622	-26.104736	
1465378333342661	-20.576477	16.127014	-26.855469	
1465378353453745	-19.676208	17.025757	-26.255798	
1465378373625865	-18.327332	17.326355	-27.604675	
1465378394011607	-18.026733	17.475891	-27.45514	
1465378413878550	-18.476868	16.426086	-27.755737	
1465378434020152	-18.476868	16.426086	-27.45514	
1465378454192271	-18.327332	17.326355	-26.55487	
1465378475920786	-17.726135	17.176819	-26.855469	
1465378496550669	-18.327332	17.326355	-27.305603	
1465378515959849	-17.877197	17.626953	-26.55487	
1465378536101451	-16.976929	19.876099	-26.104736	
1465378556090464	-20.576477	18.226624	-25.805664	
1465378576079478	-19.377136	18.37616	-25.9552	
1465378596068492	-18.026733	18.527222	-26.405334	
1465378616088023	-18.927002	18.676758	-25.656128	
1465378636077036	-20.277405	18.37616	-25.205994	
1465378656066050	-17.5766	18.97583	-27.005005	
1465378676055064	-18.626404	17.626953	-25.205994	
1465378696257701	-19.82727	16.87622	-25.35553	
1465378716063609	-19.377136	16.27655	-26.55487	
1465378736144175	-20.726013	16.27655	-26.55487	
1465378756316294	-20.126343	16.127014	-27.156067	
1465378776427378	-19.82727	15.826416	-26.405334	
1465378796752085	-18.626404	14.627075	-27.005005	
1465378816710581	-20.877075	14.776611	-26.104736	
1465378836852183	-20.277405	14.926147	-25.656128	
1465378857024302	-19.676208	13.876343	-27.604675	
1465378877135386	-21.626282	13.4262085	-26.405334	
1465378897826304	-21.176147	14.776611	-26.104736	
1465378917418589	-19.976807	13.276672	-27.005005	
1465378937560191	-20.277405	14.926147	-27.305603	
1465378957732310	-20.126343	13.4262085	-27.156067	
1465378977843394	-21.92688	12.976074	-28.205872	
1465378998381724	-22.227478	13.4262085	-27.45514	
1465379018126597	-22.227478	14.025879	-26.855469	
1465379038268199	-22.827148	12.826538	-26.255798	
1465379058440318	-21.626282	14.776611	-26.855469	
1465379078551402	-19.076538	16.127014	-26.855469	
1465379099486460	-19.82727	15.376282	-26.405334	
1465379118834605	-19.976807	16.27655	-27.604675	
1465379138976206	-18.927002	16.27655	-28.355408	
1465379159148326	-16.526794	15.975952	-28.05481	
1465379179259410	-16.67633	18.826294	-28.205872	
1465379200041880	-17.877197	17.326355	-28.656006	
1465379219573130	-18.026733	17.475891	-27.45514	
1465379239714732	-17.877197	17.326355	-28.05481	
1465379259856333	-17.276001	16.27655	-27.305603	
1465379279967417	-17.726135	17.176819	-27.45514	
1465379300292124	-18.026733	15.376282	-27.755737	
1465379320281138	-16.67633	17.176819	-27.45514	
1465379340422740	-17.726135	15.376282	-28.205872	
1465379360564341	-17.276001	17.025757	-27.604675	
1465379380705943	-17.276001	17.626953	-28.355408	
1465379400817027	-16.67633	16.87622	-28.805542	
1465379420958628	-17.5766	18.37616	-28.955078	
1465379441130747	-17.427063	16.87622	-28.205872	
1465379461241831	-16.827393	18.077087	-26.55487	
1465379481383433	-17.726135	17.475891	-27.45514	
1465379501708140	-19.076538	16.87622	-26.405334	
1465379521666636	-19.377136	18.37616	-25.9552	
1465379541808238	-19.377136	18.676758	-26.55487	
1465379561949839	-20.576477	18.226624	-24.455261	
1465379582091441	-20.576477	17.475891	-25.054932	
1465379602233042	-21.176147	18.826294	-24.005127	
1465379622374644	-21.176147	18.226624	-24.75586	
1465379642516245	-21.176147	17.77649	-22.955322	
1465379662688365	-22.227478	17.475891	-24.75586	
1465379682799449	-21.026611	17.025757	-24.154663	
1465379703307261	-19.82727	17.77649	-24.75586	
1465379723082652	-19.976807	18.676758	-22.505188	
1465379743224253	-21.026611	16.27655	-24.905396	
1465379763396372	-21.176147	17.176819	-25.35553	
1465379783507456	-21.626282	16.87622	-25.805664	
1465379803893199	-22.227478	16.127014	-24.455261	
1465379823790660	-22.377014	17.025757	-23.85559	
1465379843932261	-21.176147	16.127014	-25.054932	
1465379865630259	-21.777344	17.326355	-24.154663	
1465379885771861	-23.277283	16.87622	-23.405457	
1465379906645884	-22.076416	15.226746	-22.805786	
1465379925749888	-22.377014	15.975952	-25.205994	
1465379945738902	-23.876953	16.27655	-24.154663	
1465379965727915	-23.277283	14.025879	-23.405457	
1465379985747447	-23.277283	13.4262085	-23.706055	
1465380005736460	-23.576355	14.776611	-23.405457	
1465380025725474	-23.12622	15.975952	-23.25592	
1465380045745005	-24.62616	15.376282	-22.355652	
1465380065703501	-22.52655	18.226624	-24.005127	
1465380085723033	-23.576355	16.426086	-22.955322	
1465380105956187	-21.92688	16.87622	-23.405457	
1465380125914683	-22.827148	15.67688	-22.206116	
1465380146086802	-21.777344	15.975952	-22.505188	
1465380166197886	-22.976685	16.87622	-22.654724	
1465380186339488	-19.976807	17.626953	-23.25592	
1465380206511607	-21.176147	18.527222	-25.35553	
1465380226653208	-21.92688	17.475891	-23.706055	
1465380246764292	-19.676208	19.425964	-22.805786	
1465380266936411	-21.32721	19.726562	-23.85559	
1465380287047495	-20.126343	18.527222	-24.75586	
1465380307646861	-18.927002	18.37616	-23.85559	
1465380327361216	-19.82727	18.527222	-24.455261	
1465380347502818	-20.576477	17.176819	-25.054932	
1465380367644419	-21.32721	18.37616	-24.154663	
1465380387786021	-20.576477	18.226624	-24.75586	
1465380408202281	-21.026611	17.626953	-25.205994	
1465380428038706	-22.377014	15.975952	-25.656128	
1465380448180308	-21.026611	16.27655	-24.905396	
1465380468352427	-20.277405	17.626953	-24.604797	
1465380488463511	-20.126343	16.87622	-24.75586	
1465380509276499	-21.92688	17.77649	-24.005127	
1465380528777232	-21.176147	17.475891	-22.654724	
1465380548888316	-20.126343	18.527222	-23.405457	
1465380569060435	-21.626282	18.527222	-22.654724	
1465380589171519	-21.176147	18.826294	-21.305847	
1465380609831919	-22.377014	17.626953	-22.505188	
1465380629485240	-22.076416	17.025757	-21.455383	
1465380649626841	-23.12622	17.025757	-22.505188	
1465380669768443	-23.426819	17.326355	-23.85559	
1465380689910044	-22.377014	15.975952	-21.455383	
1465380710204234	-23.576355	16.87622	-21.305847	
1465380730162730	-23.12622	17.025757	-22.206116	
1465380750365367	-23.876953	15.226746	-22.805786	
1465380770445933	-23.876953	17.025757	-24.154663	
1465380790587535	-22.377014	15.67688	-24.604797	
1465380810759654	-23.12622	15.67688	-22.505188	
1465380830870738	-22.827148	15.975952	-23.554993	
1465380851012339	-23.426819	14.627075	-23.554993	
1465380871184458	-24.02649	15.826416	-21.60492	
1465380891326060	-24.327087	16.87622	-22.055054	
1465380911589732	-24.62616	15.826416	-23.706055	
1465380931578745	-24.62616	15.077209	-22.355652	
1465380951750865	-25.076294	14.025879	-22.955322	
1465380971892466	-25.526428	13.876343	-23.554993	
1465380992003550	-24.62616	14.025879	-22.355652	
1465381012145152	-22.976685	14.476013	-22.955322	
1465381032286753	-24.476624	13.575745	-22.805786	
1465381052428355	-24.926758	14.926147	-21.755981	
1465381072569956	-25.076294	15.376282	-23.405457	
1465381092711558	-23.576355	15.077209	-22.055054	
1465381113249888	-24.62616	15.077209	-21.305847	
1465381133025279	-24.476624	15.226746	-22.206116	
1465381153136363	-21.92688	17.475891	-22.355652	
1465381173277964	-21.777344	16.577148	-23.554993	
1465381193419566	-21.92688	17.77649	-22.654724	
1465381213835826	-21.026611	15.975952	-24.604797	
1465381235228648	-21.176147	18.226624	-22.955322	
1465381255431285	-21.026611	18.676758	-22.805786	
1465381275420298	-20.726013	17.626953	-23.554993	
1465381295409312	-20.277405	18.077087	-23.554993	
1465381315581431	-19.976807	17.326355	-24.905396	
1465381335387339	-19.377136	19.726562	-24.154663	
1465381355376353	-18.626404	18.97583	-24.905396	
1465381375395884	-20.576477	18.226624	-23.405457	
1465381395384898	-19.976807	19.726562	-24.154663	
1465381415373911	-20.726013	20.475769	-23.25592	
1465381435362925	-19.076538	20.176697	-23.706055	
1465381455382456	-18.777466	20.925903	-22.955322	
1465381475432505	-19.526672	19.876099	-23.405457	
1465381495574107	-19.076538	18.527222	-23.706055	
1465381516142954	-18.626404	18.97583	-24.154663	
1465381535857310	-19.976807	18.676758	-22.505188	
1465381555968394	-19.377136	19.726562	-24.905396	
1465381576140513	-20.726013	18.97583	-23.554993	
1465381596251597	-19.676208	20.776367	-22.805786	
1465381616698374	-20.877075	19.276428	-22.355652	
1465381636565318	-21.026611	18.676758	-19.805908	
1465381656706919	-20.576477	18.527222	-22.654724	
1465381676848521	-19.82727	19.876099	-22.055054	
1465381696990122	-19.676208	18.676758	-23.25592	
1465381717650523	-20.126343	20.626831	-23.405457	
1465381737242808	-19.676208	19.726562	-23.25592	
1465381757414927	-19.976807	19.425964	-23.85559	
1465381777526011	-20.277405	19.425964	-23.25592	
1465381797698130	-20.877075	19.276428	-23.405457	
1465381818205943	-18.927002	20.02716	-25.205994	
1465381837950816	-21.32721	19.425964	-24.604797	
1465381858122935	-17.877197	18.676758	-24.604797	
1465381878234019	-19.377136	17.626953	-24.154663	
1465381898406138	-20.126343	19.276428	-24.75586	
1465381919280161	-19.976807	19.425964	-24.154663	
1465381938658824	-19.676208	18.37616	-23.554993	
1465381958800425	-21.92688	17.176819	-24.455261	
1465381978972544	-20.576477	16.87622	-25.054932	
1465381999083628	-19.526672	17.77649	-24.005127	
1465382019835581	-21.026611	17.626953	-25.9552	
1465382039366831	-20.877075	17.77649	-27.156067	
1465382059538951	-20.126343	18.826294	-24.455261	
1465382079650035	-20.877075	18.826294	-23.405457	
1465382120116343	-19.526672	19.876099	-25.35553	
1465382120116343	-19.526672	19.876099	-25.35553	
1465382140105357	-18.927002	18.077087	-24.905396	
1465382160216441	-19.82727	19.577026	-24.455261	
1465382180388560	-19.976807	19.726562	-24.604797	
1465382200499644	-17.5766	18.37616	-25.9552	
1465382220641245	-17.877197	20.475769	-25.656128	
1465382240813365	-19.076538	20.626831	-25.35553	
1465382260954966	-17.427063	20.626831	-26.104736	
1465382281066050	-17.5766	20.475769	-24.905396	
1465382301238169	-16.226196	21.076965	-25.205994	
1465382321532359	-17.427063	20.176697	-26.104736	
1465382341490855	-18.626404	19.425964	-26.55487	
1465382361632456	-16.976929	20.176697	-26.104736	
1465382381774058	-17.276001	19.425964	-25.656128	
1465382401915660	-18.777466	20.626831	-27.156067	
1465382422057261	-17.726135	19.577026	-27.45514	
1465382442229380	-17.5766	19.425964	-26.255798	
1465382462370982	-17.877197	19.726562	-25.656128	
1465382482512583	-17.276001	18.37616	-25.9552	
1465382502654185	-17.276001	20.475769	-24.905396	
1465382523192515	-17.427063	21.676636	-25.054932	
1465382542937388	-17.5766	20.776367	-26.255798	
1465382562956919	-19.377136	20.02716	-26.255798	
1465382583220591	-18.327332	20.776367	-27.005005	
1465382604857554	-20.726013	18.97583	-23.554993	
1465382625395884	-21.32721	21.076965	-23.25592	
1465382644957652	-21.626282	20.176697	-23.405457	
1465382665068736	-21.777344	19.726562	-21.755981	
1465382685057749	-22.52655	20.176697	-22.955322	
1465382705046763	-23.277283	19.276428	-22.355652	
1465382725240317	-22.377014	19.726562	-21.455383	
1465382745015707	-22.227478	19.276428	-22.355652	
1465382765035239	-24.176025	19.425964	-20.855713	
1465382785024252	-24.926758	18.676758	-20.405579	
1465382805013266	-25.076294	17.77649	-22.055054	
1465382825002280	-25.227356	18.077087	-20.405579	
1465382845052328	-24.02649	18.826294	-22.055054	
1465382865193930	-25.376892	16.127014	-21.60492	
1465382885335532	-25.227356	17.326355	-21.455383	
1465382905477133	-25.227356	17.626953	-20.855713	
1465382926045981	-25.227356	15.67688	-20.405579	
1465382945760336	-25.67749	15.826416	-20.555115	
1465382965901938	-27.7771	14.476013	-22.355652	
1465382986013022	-25.67749	14.476013	-21.005249	
1465383006185141	-26.727295	14.476013	-21.005249	
1465383026601401	-27.476501	13.726807	-21.305847	
1465383046437827	-26.126099	14.025879	-21.005249	
1465383066609946	-27.326965	12.826538	-22.805786	
1465383086751547	-25.827026	13.575745	-21.455383	
1465383106862631	-26.876831	13.276672	-21.755981	
1465383127675619	-28.677368	14.176941	-20.10498	
1465383147145834	-26.27716	13.575745	-21.755981	
1465383167287436	-27.326965	13.876343	-21.455383	
1465383187459555	-25.526428	13.575745	-22.805786	
1465383207570639	-25.827026	13.575745	-23.554993	
1465383228231039	-23.876953	15.226746	-23.25592	
1465383247884360	-24.62616	15.826416	-24.005127	
1465383268025961	-22.377014	15.226746	-24.604797	
1465383288167563	-22.976685	17.176819	-24.75586	
1465383308309164	-21.626282	17.176819	-24.75586	
1465383328603354	-20.576477	18.826294	-25.054932	
1465383348561850	-20.126343	18.226624	-24.75586	
1465383368733969	-21.626282	17.176819	-24.75586	
1465383388845053	-21.92688	17.77649	-24.75586	
1465383408986655	-19.676208	17.326355	-25.9552	
1465383429158774	-22.227478	18.527222	-24.005127	
1465383449300375	-20.877075	17.176819	-23.706055	
1465383469411459	-22.976685	16.426086	-25.054932	
1465383489583578	-22.52655	15.376282	-23.706055	
1465383509725180	-21.92688	17.475891	-25.054932	
1465383529988852	-21.92688	17.176819	-24.455261	
1465383549977866	-21.92688	17.77649	-24.005127	
1465383570119467	-21.176147	16.87622	-24.75586	
1465383590291586	-21.626282	17.77649	-24.005127	
1465383610433188	-21.176147	19.577026	-24.75586	
1465383630574789	-21.92688	17.475891	-24.455261	
1465383650685873	-20.726013	17.025757	-24.604797	
1465383670827475	-20.726013	18.97583	-23.85559	
1465383690999594	-22.377014	19.726562	-23.85559	
1465383711019125	-21.626282	18.226624	-22.055054	
1465383731679526	-19.377136	18.37616	-24.154663	
1465383751393881	-19.976807	18.077087	-22.505188	
1465383771535483	-21.777344	17.626953	-22.805786	
1465383791707602	-21.92688	17.475891	-26.855469	
1465383811818686	-21.777344	18.37616	-25.656128	
1465383832234946	-22.52655	18.826294	-25.054932	
1465383852132407	-21.626282	15.826416	-24.455261	
1465383872243491	-20.726013	18.37616	-25.656128	
1465383892415610	-21.026611	17.326355	-23.554993	
1465383912526694	-21.92688	17.77649	-26.104736	
1465383933370200	-21.626282	16.426086	-24.75586	
1465383952809897	-20.277405	16.27655	-25.656128	
1465383974507895	-20.726013	16.577148	-24.604797	
1465384014730063	-22.976685	15.376282	-26.405334	
1465384014730063	-22.976685	15.376282	-26.405334	
1465384035054770	-20.726013	17.326355	-24.905396	
1465384054708090	-20.726013	15.975952	-25.205994	
1465384074697104	-21.176147	16.426086	-24.75586	
1465384094686118	-21.626282	16.127014	-25.805664	
1465384114675131	-19.526672	15.376282	-26.104736	
1465384134725180	-21.777344	13.575745	-25.656128	
1465384154683676	-21.176147	16.426086	-27.45514	
1465384174672690	-22.52655	14.476013	-27.45514	
1465384194661703	-21.626282	13.726807	-26.405334	
1465384214681235	-22.976685	14.776611	-27.45514	
1465384235005942	-22.227478	14.476013	-26.405334	
1465384254964438	-21.176147	13.4262085	-26.405334	
1465384275106039	-20.277405	14.926147	-25.9552	
1465384295247641	-21.026611	13.575745	-27.005005	
1465384315389243	-18.327332	16.577148	-27.305603	
1465384336080160	-19.976807	15.67688	-28.05481	
1465384355641928	-16.226196	14.627075	-28.656006	
1465384375783530	-16.526794	18.077087	-27.604675	
1465384395955649	-16.976929	18.226624	-27.45514	
1465384416066733	-15.776062	19.425964	-26.55487	
1465384436635580	-17.877197	17.025757	-28.05481	
1465384456380453	-18.026733	17.176819	-28.504944	
1465384476491537	-17.726135	18.226624	-27.45514	
1465384496663657	-18.626404	17.326355	-27.604675	
1465384516805258	-18.026733	17.77649	-27.755737	
1465384537709799	-18.026733	17.77649	-27.45514	
1465384557057944	-17.877197	18.077087	-28.656006	
1465384577199545	-17.427063	17.475891	-27.755737	
1465384597371664	-18.626404	18.37616	-25.9552	
1465384617482748	-18.777466	18.226624	-26.405334	
1465384637929526	-18.327332	18.37616	-26.55487	
1465384657765952	-16.976929	17.77649	-26.855469	
1465384677938071	-18.026733	18.226624	-27.45514	
1465384698049155	-18.626404	18.37616	-27.005005	
1465384718190756	-18.626404	17.626953	-27.604675	
1465384738454428	-18.026733	18.226624	-26.405334	
1465384758473959	-17.427063	17.475891	-25.35553	
1465384778615561	-18.927002	17.326355	-25.205994	
1465384798757162	-18.476868	16.87622	-25.054932	
1465384818898764	-21.176147	17.475891	-25.35553	
1465384839070883	-20.877075	19.276428	-25.35553	
1465384859181967	-19.82727	17.176819	-26.104736	
1465384879323569	-19.976807	17.025757	-26.55487	
1465384899465170	-20.277405	18.077087	-25.9552	
1465384919606772	-21.176147	17.475891	-25.35553	
1465384939931479	-20.726013	16.27655	-26.255798	
1465384959920493	-22.076416	18.676758	-25.205994	
1465384980062094	-20.877075	16.87622	-25.054932	
1465385000173178	-21.92688	17.475891	-25.35553	
1465385020314780	-22.076416	17.326355	-27.305603	
1465385040608969	-20.877075	18.226624	-26.104736	
1465385060628500	-22.377014	17.025757	-25.656128	
1465385080770102	-21.92688	16.87622	-26.855469	
1465385100911703	-21.777344	17.326355	-25.656128	
1465385121053305	-21.176147	16.87622	-27.45514	
1465385141713705	-22.076416	15.226746	-28.355408	
1465385161305991	-21.026611	17.025757	-26.55487	
1465385181447592	-22.227478	14.776611	-25.805664	
1465385201619711	-24.176025	13.575745	-27.305603	
1465385221730795	-23.12622	13.575745	-28.355408	
1465385242269125	-23.576355	14.025879	-27.755737	
1465385262044516	-22.076416	14.176941	-26.255798	
1465385282155600	-23.12622	13.276672	-26.255798	
1465385302327719	-22.227478	15.077209	-26.104736	
1465385322438803	-23.426819	14.627075	-27.005005	
1465385344899741	-22.976685	15.077209	-26.104736	
1465385364247885	-23.876953	13.876343	-26.55487	
1465385384358969	-22.227478	16.426086	-27.156067	
1465385404378500	-21.777344	13.876343	-26.255798	
1465385424336996	-22.076416	15.975952	-27.604675	
1465385444356528	-20.126343	16.426086	-26.855469	
1465385464376059	-20.726013	17.025757	-27.604675	
1465385484334555	-19.076538	18.226624	-27.156067	
1465385504384604	-18.476868	17.77649	-26.855469	
1465385524343100	-18.927002	18.37616	-29.405212	
1465385544362631	-19.377136	17.626953	-27.305603	
1465385564321127	-20.277405	18.676758	-27.305603	
1465385584340659	-20.277405	17.326355	-26.55487	
1465385604451743	-21.32721	16.27655	-27.305603	
1465385624562827	-20.877075	17.176819	-26.104736	
1465385644887534	-21.777344	16.577148	-25.205994	
1465385664846030	-22.076416	18.077087	-26.55487	
1465385684987631	-20.726013	18.676758	-26.55487	
1465385705159750	-22.377014	18.676758	-24.905396	
1465385725301352	-22.076416	18.077087	-25.656128	
1465385745870200	-22.377014	17.025757	-24.604797	
1465385765554037	-22.227478	18.826294	-25.35553	
1465385785695639	-21.92688	20.176697	-24.005127	
1465385805837241	-23.426819	18.97583	-24.154663	
1465385825978842	-22.076416	18.37616	-22.505188	
1465385846334067	-24.176025	18.077087	-23.25592	
1465385866262045	-23.277283	17.77649	-22.654724	
1465385886434164	-25.227356	17.626953	-22.505188	
1465385906575766	-23.576355	16.127014	-22.355652	
1465385926717368	-25.227356	15.975952	-23.554993	
1465385947438803	-24.02649	16.87622	-22.355652	
1465385967000571	-25.227356	17.626953	-21.455383	
1465385987111655	-24.327087	16.87622	-21.005249	
1465386007283774	-24.176025	17.326355	-21.455383	
1465386027425375	-24.476624	16.27655	-21.154785	
1465386047902670	-25.227356	15.975952	-24.604797	
1465386067678061	-24.926758	17.025757	-23.25592	
1465386087819662	-23.12622	15.226746	-22.805786	
1465386107991782	-26.576233	16.27655	-22.805786	
1465386128133383	-25.076294	15.826416	-24.005127	
1465386148885336	-25.526428	16.27655	-23.25592	
1465386168386069	-24.176025	14.926147	-22.805786	
1465386188527670	-24.476624	16.27655	-22.505188	
1465386208699789	-24.62616	15.376282	-22.955322	
1465386228810873	-24.176025	15.67688	-24.154663	
1465386249471274	-26.27716	14.176941	-22.805786	
1465386269094077	-25.526428	13.876343	-23.25592	
1465386289235678	-23.426819	13.876343	-23.554993	
1465386309407797	-25.526428	16.577148	-24.905396	
1465386329518881	-22.827148	14.627075	-22.505188	
1465386349843588	-24.327087	14.476013	-25.35553	
1465386369832602	-24.176025	14.627075	-23.554993	
1465386389943686	-23.12622	14.627075	-25.656128	
1465386410115805	-21.92688	15.376282	-23.706055	
1465386430226889	-21.92688	16.87622	-23.405457	
1465386450368491	-20.576477	16.426086	-25.054932	
1465386470540610	-21.626282	16.127014	-24.75586	
1465386490682211	-22.076416	15.226746	-24.604797	
1465386510823813	-21.92688	16.87622	-25.054932	
1465386530965414	-21.626282	15.376282	-24.005127	
1465386551259604	-23.277283	14.776611	-25.054932	
1465386571218100	-22.976685	14.476013	-25.805664	
1465386591390219	-21.92688	14.476013	-24.455261	
1465386611501303	-21.32721	15.226746	-23.25592	
1465386631642905	-22.377014	15.226746	-24.905396	
1465386651815024	-22.827148	16.27655	-24.154663	
1465386671956625	-21.92688	14.476013	-24.455261	
1465386692067709	-22.827148	15.975952	-24.154663	
1465386713826743	-20.277405	17.025757	-24.154663	
1465386733876791	-20.277405	17.326355	-23.85559	
1465386754476157	-22.076416	15.226746	-24.154663	
1465386774007407	-21.176147	15.826416	-25.054932	
1465386793996420	-22.377014	15.975952	-24.154663	
1465386813924399	-19.976807	16.27655	-24.905396	
1465386833882895	-21.026611	16.27655	-23.554993	
1465386853963461	-21.626282	15.826416	-22.955322	
1465386873982993	-21.777344	15.226746	-22.805786	
1465386893972006	-23.876953	13.876343	-22.505188	
1465386913961020	-22.377014	14.627075	-23.554993	
1465386933980551	-23.277283	15.376282	-22.654724	
1465386954122153	-24.327087	14.476013	-22.955322	
1465386974050131	-23.576355	13.726807	-23.706055	
1465386994222250	-24.62616	13.726807	-22.654724	
1465387014363852	-23.876953	13.575745	-22.505188	
1465387034474936	-24.02649	14.476013	-21.60492	
1465387054799643	-23.876953	14.926147	-21.755981	
1465387074788657	-23.876953	14.176941	-21.755981	
1465387094930258	-23.426819	15.226746	-23.554993	
1465387115041342	-23.426819	13.276672	-23.554993	
1465387135213461	-24.327087	14.025879	-22.055054	
1465387155873862	-24.02649	14.025879	-22.055054	
1465387175466147	-22.827148	12.52594	-22.505188	
1465387195607748	-24.62616	12.677002	-23.405457	
1465387215779868	-24.176025	12.826538	-22.505188	
1465387235890952	-22.976685	12.376404	-22.055054	
1465387256429282	-24.62616	11.627197	-22.654724	
1465387276204672	-25.376892	11.627197	-22.955322	
1465387296315756	-23.576355	11.627197	-22.654724	
1465387316487875	-23.876953	11.476135	-23.85559	
1465387336598959	-24.62616	10.726929	-22.654724	
1465387357503500	-24.62616	12.075806	-22.654724	
1465387376912680	-25.227356	11.177063	-22.505188	
1465387397023764	-24.476624	11.92627	-22.505188	
1465387417195883	-23.277283	10.276794	-23.405457	
1465387437337485	-23.426819	12.226868	-24.154663	
1465387457967368	-23.576355	14.476013	-23.405457	
1465387477620688	-21.626282	13.726807	-24.455261	
1465387497731772	-20.877075	13.4262085	-24.005127	
1465387517903891	-22.076416	14.926147	-22.206116	
1465387538045493	-22.827148	16.27655	-23.25592	
1465387558339682	-20.126343	15.376282	-22.955322	
1465387578328696	-21.026611	16.27655	-23.554993	
1465387598439780	-20.877075	15.376282	-22.955322	
1465387618611899	-20.576477	14.025879	-22.654724	
1465387638753500	-21.176147	16.87622	-24.75586	
1465387658864584	-19.976807	14.627075	-24.905396	
1465387679006186	-18.777466	15.077209	-24.005127	
1465387699178305	-19.676208	14.926147	-23.554993	
1465387719289389	-18.476868	16.127014	-24.75586	
1465387739430991	-18.476868	16.426086	-23.706055	
1465387759755698	-19.377136	16.577148	-23.25592	
1465387779744711	-19.82727	16.426086	-23.405457	
1465387799886313	-17.5766	15.226746	-24.905396	
1465387820027914	-16.976929	17.77649	-23.706055	
1465387840138998	-18.327332	18.077087	-23.85559	
1465387860280600	-18.327332	17.025757	-24.604797	
1465387880452719	-18.476868	17.475891	-24.005127	
1465387900594321	-18.327332	15.226746	-24.154663	
1465387920735922	-18.026733	15.376282	-24.005127	
1465387940877524	-19.676208	17.025757	-24.604797	
1465387961415854	-19.526672	15.077209	-25.054932	
1465387981160727	-18.626404	15.226746	-24.905396	
1465388001271811	-18.626404	16.577148	-25.9552	
1465388021443930	-19.82727	14.776611	-23.405457	
1465388041555014	-21.176147	14.476013	-22.355652	
1465388061971274	-20.277405	15.226746	-23.554993	
1465388081777182	-20.726013	14.926147	-22.505188	
1465388103414145	-22.377014	15.67688	-21.455383	
1465388123677817	-20.877075	14.476013	-21.60492	
1465388143666830	-20.126343	15.826416	-23.405457	
1465388163838950	-21.32721	14.176941	-24.154663	
1465388183644858	-20.277405	17.025757	-23.554993	
1465388203664389	-21.026611	16.577148	-22.206116	
1465388223653403	-22.377014	14.926147	-23.85559	
1465388243642416	-22.227478	15.826416	-22.955322	
1465388263631430	-21.026611	15.67688	-23.25592	
1465388283650961	-21.777344	14.627075	-24.604797	
1465388303639975	-20.726013	14.926147	-24.604797	
1465388323598471	-18.927002	15.67688	-24.604797	
1465388343709555	-21.026611	16.27655	-24.905396	
1465388364278403	-20.277405	15.975952	-25.9552	
1465388383992758	-19.976807	13.876343	-25.9552	
1465388404134360	-19.976807	14.926147	-24.905396	
1465388424245444	-20.126343	14.025879	-25.35553	
1465388444387045	-19.976807	15.226746	-25.205994	
1465388464833823	-20.726013	15.975952	-25.656128	
1465388484700766	-17.276001	14.926147	-25.656128	
1465388504842368	-16.526794	16.27655	-27.604675	
1465388524953452	-16.67633	17.77649	-25.805664	
1465388545125571	-16.226196	18.077087	-25.9552	
1465388565908041	-16.377258	17.475891	-27.45514	
1465388585378256	-14.427185	17.326355	-26.55487	
1465388625691977	-16.07666	18.527222	-25.054932	
1465388625691977	-16.07666	18.527222	-25.054932	
1465388645803061	-16.07666	17.475891	-26.405334	
1465388666463461	-18.626404	15.975952	-25.9552	
1465388686116782	-18.026733	15.376282	-26.104736	
1465388706258383	-18.026733	15.077209	-25.35553	
1465388726399985	-17.726135	16.426086	-25.805664	
1465388746541586	-18.476868	15.376282	-24.75586	
1465388767537680	-19.676208	17.025757	-27.005005	
1465388786824789	-19.676208	17.025757	-22.805786	
1465388806935873	-19.82727	18.826294	-23.706055	
1465388827107993	-19.676208	17.326355	-25.205994	
1465388847219077	-18.476868	18.527222	-24.005127	
1465388867269125	-17.427063	18.527222	-23.706055	
1465388887502280	-20.277405	18.077087	-25.656128	
1465388907674399	-19.82727	19.276428	-22.955322	
1465388927785483	-20.277405	17.626953	-23.25592	
1465388947927084	-18.777466	17.77649	-22.955322	
1465388968251791	-17.726135	18.826294	-22.955322	
1465388988240805	-19.377136	18.37616	-22.805786	
1465389008382407	-19.076538	17.475891	-22.955322	
1465389028493491	-19.976807	16.577148	-23.85559	
1465389048635092	-18.927002	18.077087	-23.85559	
1465389068776694	-19.377136	16.577148	-24.154663	
1465389088948813	-21.626282	18.527222	-24.005127	
1465389109059897	-19.976807	17.326355	-23.25592	
1465389129232016	-20.576477	16.87622	-22.654724	
1465389149373618	-19.82727	16.127014	-22.355652	
1465389169911948	-21.176147	16.127014	-21.005249	
1465389189626303	-22.377014	16.577148	-22.505188	
1465389209767905	-23.12622	15.67688	-23.554993	
1465389229848471	-22.827148	15.67688	-22.805786	
1465389250051108	-20.576477	14.476013	-23.405457	
1465389270467368	-23.277283	16.127014	-22.355652	
1465389290364828	-21.92688	13.726807	-21.005249	
1465389310475912	-23.12622	14.926147	-22.206116	
1465389330648032	-22.976685	16.426086	-22.955322	
1465389350759116	-24.476624	15.226746	-23.554993	
1465389371511069	-23.426819	14.926147	-22.206116	
1465389391042319	-23.12622	15.975952	-22.805786	
1465389411214438	-22.52655	14.776611	-22.355652	
1465389431325522	-24.62616	15.376282	-22.355652	
1465389451497641	-23.576355	12.976074	-22.654724	
1465389473714438	-22.827148	14.627075	-23.85559	
1465389493337241	-22.227478	14.776611	-21.005249	
1465389513326254	-21.92688	12.976074	-24.005127	
1465389533315268	-22.076416	16.27655	-23.554993	
1465389553304282	-21.026611	16.27655	-24.154663	
1465389573476401	-21.777344	16.27655	-23.554993	
1465389593312827	-18.476868	15.376282	-24.455261	
1465389613301840	-18.476868	16.426086	-25.35553	
1465389633290854	-18.626404	18.97583	-25.656128	
1465389653279868	-18.927002	18.97583	-25.205994	
1465389673268881	-17.877197	17.626953	-23.85559	
1465389693288412	-18.777466	17.475891	-24.005127	
1465389713338461	-18.626404	17.626953	-23.25592	
1465389733480063	-18.327332	18.37616	-24.154663	
1465389753591147	-17.5766	17.025757	-22.805786	
1465389774190512	-19.526672	17.475891	-23.405457	
1465389793904868	-18.927002	15.975952	-25.205994	
1465389814015952	-19.676208	17.626953	-25.656128	
1465389834188071	-18.026733	16.426086	-24.75586	
1465389854299155	-18.626404	17.025757	-24.154663	
1465389874745932	-18.626404	17.326355	-25.656128	
1465389894612875	-18.476868	16.426086	-24.75586	
1465389914754477	-17.276001	16.577148	-24.604797	
1465389934865561	-18.777466	17.475891	-22.654724	
1465389955037680	-17.877197	18.676758	-23.554993	
1465389975820151	-17.5766	18.37616	-24.604797	
1465389995320883	-17.5766	18.676758	-22.805786	
1465390015431967	-17.726135	18.527222	-23.706055	
1465390035573569	-18.327332	20.776367	-23.25592	
1465390055745688	-18.476868	18.527222	-25.35553	
1465390076375571	-19.82727	17.475891	-24.75586	
1465390096028891	-18.026733	18.826294	-24.75586	
1465390116170493	-17.427063	18.226624	-23.405457	
1465390136312094	-18.026733	17.475891	-24.005127	
1465390156453696	-17.877197	17.626953	-25.656128	
1465390176747885	-19.076538	17.77649	-24.005127	
1465390196736899	-19.377136	18.37616	-22.206116	
1465390216878500	-19.676208	15.226746	-23.85559	
1465390237020102	-19.676208	17.025757	-23.25592	
1465390257161703	-20.277405	15.67688	-24.154663	
1465390277272787	-19.976807	14.926147	-24.905396	
1465390297414389	-19.676208	15.67688	-23.85559	
1465390317555991	-20.877075	16.127014	-23.706055	
1465390337728110	-21.32721	15.975952	-23.554993	
1465390357839194	-21.026611	13.876343	-24.905396	
1465390378163901	-21.92688	12.677002	-22.955322	
1465390398122397	-20.277405	15.67688	-23.85559	
1465390418294516	-23.12622	14.176941	-24.604797	
1465390438436118	-21.32721	14.627075	-24.604797	
1465390458577719	-22.076416	13.276672	-24.905396	
1465390478688803	-20.726013	13.876343	-24.604797	
1465390498830405	-21.026611	12.52594	-25.205994	
1465390519002524	-21.32721	13.276672	-25.205994	
1465390539144125	-20.576477	13.726807	-25.805664	
1465390559255209	-21.026611	13.276672	-26.55487	
1465390579854575	-18.626404	13.876343	-26.255798	
1465390599568930	-19.526672	13.726807	-27.45514	
1465390619710532	-19.076538	14.476013	-27.156067	
1465390639821616	-18.927002	14.627075	-27.005005	
1465390659963217	-17.877197	15.67688	-28.05481	
1465390680379477	-16.827393	15.975952	-27.005005	
1465390700246420	-18.626404	15.226746	-25.205994	
1465390720388022	-18.026733	15.826416	-26.104736	
1465390740529623	-18.327332	15.67688	-25.9552	
1465390760701743	-20.277405	16.27655	-26.255798	
1465390781362143	-20.576477	14.025879	-25.805664	
1465390800954428	-21.626282	15.376282	-26.855469	
1465390821096030	-19.076538	15.376282	-25.805664	
1465390842671957	-21.026611	14.176941	-27.005005	
1465390862844077	-19.676208	14.176941	-24.154663	
1465390883412924	-21.176147	14.476013	-25.35553	
1465390902974692	-22.976685	14.776611	-23.405457	
1465390922963705	-19.377136	14.926147	-26.255798	
1465390942952719	-20.726013	15.67688	-25.656128	
1465390962941733	-19.676208	14.176941	-24.905396	
1465390983113852	-20.726013	14.627075	-25.9552	
1465391002889243	-20.277405	15.226746	-24.905396	
1465391022939291	-20.576477	15.826416	-25.805664	
1465391042958823	-18.626404	16.27655	-24.604797	
1465391062947836	-20.576477	15.376282	-25.805664	
1465391082967368	-20.576477	15.826416	-25.35553	
1465391103078452	-21.176147	15.376282	-27.156067	
1465391123250571	-18.327332	15.226746	-27.005005	
1465391143361655	-18.777466	15.376282	-26.104736	
1465391163503256	-19.976807	15.226746	-27.305603	
1465391183797446	-19.526672	14.776611	-27.45514	
1465391203786459	-20.726013	15.67688	-25.656128	
1465391223928061	-21.026611	14.926147	-25.656128	
1465391244069662	-20.277405	13.876343	-24.154663	
1465391264211264	-19.377136	14.176941	-24.604797	
1465391284352866	-21.92688	13.726807	-25.805664	
1465391304494467	-23.12622	13.575745	-24.905396	
1465391324636069	-21.777344	14.926147	-24.905396	
1465391344808188	-23.426819	14.176941	-24.154663	
1465391364919272	-23.277283	15.077209	-24.75586	
1465391385488119	-22.52655	15.077209	-23.706055	
1465391405232993	-24.327087	14.776611	-24.005127	
1465391425374594	-24.926758	12.826538	-23.554993	
1465391445485678	-23.576355	14.476013	-24.005127	
1465391465657797	-24.176025	13.575745	-22.805786	
1465391486043539	-24.476624	14.627075	-23.85559	
1465391505941000	-25.076294	16.127014	-22.355652	
1465391526082602	-24.176025	15.67688	-22.505188	
1465391546224203	-23.426819	15.975952	-23.25592	
1465391566365805	-24.327087	17.475891	-21.60492	
1465391587117758	-25.076294	15.077209	-22.055054	
1465391606618491	-22.827148	16.577148	-24.905396	
1465391626760092	-24.02649	17.176819	-22.955322	
1465391646932211	-21.176147	17.475891	-23.405457	
1465391667043295	-19.526672	18.226624	-24.455261	
1465391687673178	-19.976807	18.676758	-25.656128	
1465391707357016	-20.277405	18.97583	-24.604797	
1465391727468100	-19.676208	20.475769	-25.205994	
1465391747609702	-19.076538	19.876099	-22.955322	
1465391767781821	-20.877075	19.276428	-24.005127	
1465391788747397	-18.026733	19.276428	-26.104736	
1465391808034506	-19.377136	19.425964	-25.9552	
1465391828176108	-19.076538	17.176819	-26.855469	
1465391848348227	-18.777466	18.826294	-26.405334	
1465391868459311	-20.126343	18.527222	-25.35553	
1465391888509360	-18.626404	18.37616	-24.905396	
1465391908773032	-19.676208	19.726562	-25.9552	
1465391928914633	-18.777466	20.626831	-27.156067	
1465391949025717	-19.526672	19.876099	-29.255676	
1465391969167319	-17.877197	20.475769	-26.255798	
1465391989492026	-17.276001	19.425964	-25.9552	
1465392009481039	-16.67633	19.876099	-25.805664	
1465392029592123	-17.726135	19.577026	-26.405334	
1465392049764243	-17.276001	21.076965	-27.305603	
1465392069905844	-17.877197	20.02716	-28.05481	
1465392090016928	-16.526794	20.02716	-26.55487	
1465392110158530	-17.276001	20.02716	-28.05481	
1465392130330649	-17.276001	21.076965	-26.55487	
1465392150472250	-18.626404	21.826172	-25.656128	
1465392170583334	-18.476868	18.527222	-26.104736	
1465392191182700	-17.276001	20.776367	-27.604675	
1465392212453452	-18.026733	20.626831	-28.205872	
1465392232625571	-19.676208	18.37616	-27.005005	
1465392252614584	-18.927002	20.776367	-25.9552	
1465392272603598	-18.927002	18.97583	-28.05481	
1465392292958823	-19.377136	18.676758	-27.005005	
1465392312581625	-20.726013	18.37616	-27.604675	
1465392332601157	-20.126343	16.87622	-26.855469	
1465392352590170	-21.777344	18.077087	-28.05481	
1465392372609702	-19.676208	18.37616	-28.355408	
1465392392781821	-20.277405	18.077087	-28.656006	
1465392412587729	-22.377014	17.025757	-28.05481	
1465392432576743	-21.92688	16.87622	-27.156067	
1465392452596274	-20.877075	17.77649	-26.855469	
1465392472707358	-22.227478	16.87622	-27.755737	
1465392493062582	-21.626282	15.376282	-26.405334	
1465392513082114	-21.92688	17.77649	-27.755737	
1465392533132162	-22.52655	16.426086	-28.504944	
1465392553334799	-21.026611	16.577148	-27.305603	
1465392573415366	-24.176025	17.326355	-26.55487	
1465392594045248	-23.426819	16.27655	-27.604675	
1465392613729086	-21.92688	16.87622	-27.45514	
1465392633870688	-22.827148	17.025757	-28.656006	
1465392654012289	-21.777344	19.425964	-25.9552	
1465392674153891	-21.626282	17.475891	-26.104736	
1465392694539633	-21.176147	18.826294	-26.855469	
1465392714437094	-19.82727	18.826294	-28.504944	
1465392734571167	-18.327332	18.97583	-27.005005	
1465392754712768	-18.626404	20.02716	-28.05481	
1465392774854370	-20.277405	20.02716	-27.604675	
1465392795606323	-19.377136	21.076965	-26.55487	
1465392815107055	-20.576477	19.577026	-27.156067	
1465392835279174	-21.026611	19.726562	-27.305603	
1465392855420776	-19.676208	18.077087	-28.955078	
1465392875562378	-17.877197	18.37616	-26.55487	
1465392896161743	-19.377136	16.27655	-28.355408	
1465392915845581	-21.026611	18.37616	-27.005005	
1465392935956665	-21.626282	16.87622	-27.156067	
1465392956128784	-20.877075	17.475891	-26.104736	
1465392976239868	-21.777344	19.726562	-27.005005	
1465392997235962	-21.626282	18.527222	-27.156067	
1465393016523071	-19.976807	18.676758	-26.55487	
1465393036695190	-20.277405	18.077087	-26.255798	
1465393056806274	-20.726013	18.077087	-27.005005	
1465393076947876	-19.526672	16.127014	-26.855469	
1465393096997924	-19.82727	18.527222	-26.405334	
1465393117261596	-21.626282	17.475891	-27.156067	
1465393137403198	-20.877075	18.527222	-26.405334	
1465393157514282	-21.32721	18.37616	-26.255798	
1465393177655883	-19.82727	18.527222	-25.35553	
1465393197980590	-20.726013	17.626953	-25.9552	
1465393217969604	-20.726013	18.676758	-23.554993	
1465393238080688	-23.576355	18.527222	-26.104736	
1465393258252807	-21.626282	16.87622	-25.35553	
1465393278394409	-21.32721	17.626953	-25.205994	
1465393298505493	-21.626282	18.527222	-26.104736	
1465393318647094	-21.176147	17.176819	-24.455261	
1465393338788696	-21.176147	16.426086	-25.35553	
1465393358930298	-22.377014	17.025757	-25.9552	
1465393379071899	-23.426819	16.577148	-24.604797	
1465393399671264	-21.777344	14.176941	-25.656128	
1465393419385620	-21.176147	15.077209	-25.35553	
1465393439527221	-21.176147	15.376282	-26.104736	
1465393459668823	-21.32721	14.176941	-25.205994	
1465393479810424	-21.32721	15.975952	-25.656128	
1465393500196167	-22.377014	14.627075	-25.205994	
1465393520063110	-21.626282	14.776611	-25.805664	
1465393540235229	-23.576355	13.726807	-26.405334	
1465393560376831	-23.876953	14.926147	-25.205994	
1465393582074829	-22.076416	14.176941	-25.9552	
1465393602948852	-21.626282	13.726807	-24.005127	
1465393622235962	-21.176147	14.476013	-26.104736	
1465393642224975	-22.377014	14.176941	-25.9552	
1465393662244506	-21.176147	14.025879	-25.054932	
1465393682233520	-22.227478	16.87622	-25.35553	
1465393702253051	-21.777344	14.176941	-26.255798	
1465393722211548	-19.976807	15.975952	-26.255798	
1465393742231079	-19.976807	17.326355	-25.9552	
1465393762250610	-18.777466	15.077209	-28.205872	
1465393782239624	-19.526672	18.226624	-27.45514	
1465393802411743	-18.327332	17.025757	-27.305603	
1465393822217651	-17.427063	17.77649	-26.855469	
1465393842359253	-16.827393	18.077087	-26.55487	
1465393862500854	-19.526672	17.475891	-27.45514	
1465393882642456	-19.377136	15.975952	-28.05481	
1465393902936645	-17.877197	16.27655	-28.656006	
1465393922925659	-19.526672	17.176819	-27.755737	
1465393943036743	-18.476868	15.077209	-27.755737	
1465393963208862	-18.927002	16.577148	-25.9552	
1465393983319946	-18.327332	17.626953	-26.55487	
1465394004041381	-18.476868	17.77649	-26.104736	
1465394023603149	-18.026733	17.77649	-27.45514	
1465394043775268	-18.626404	18.676758	-26.55487	
1465394063886352	-16.976929	18.826294	-26.104736	
1465394084058471	-17.427063	18.826294	-27.156067	
1465394104566284	-16.07666	19.577026	-26.405334	
1465394124341674	-16.827393	20.02716	-27.305603	
1465394144452758	-15.327454	17.475891	-28.205872	
1465394164624878	-14.726257	18.37616	-27.604675	
1465394184735962	-15.626526	20.626831	-26.855469	
1465394205671020	-16.827393	18.077087	-26.255798	
1465394225049682	-15.776062	19.726562	-28.05481	
1465394245191284	-17.726135	19.276428	-26.405334	
1465394265332885	-17.427063	19.276428	-26.104736	
1465394285474487	-16.226196	20.02716	-29.405212	
1465394305921264	-15.626526	20.176697	-26.855469	
1465394325757690	-18.327332	18.37616	-26.55487	
1465394345899292	-16.827393	20.02716	-27.005005	
1465394366040893	-16.67633	19.577026	-26.104736	
1465394386182495	-18.327332	18.676758	-25.205994	
1465394406476684	-18.476868	20.176697	-26.405334	
1465394426435180	-17.276001	20.475769	-26.55487	
1465394446607299	-17.877197	18.97583	-25.205994	
1465394466718383	-17.726135	20.626831	-27.45514	
1465394486859985	-17.427063	20.925903	-25.35553	
1465394507032104	-17.276001	21.076965	-25.9552	
1465394527143188	-17.427063	21.226501	-27.156067	
1465394547254272	-17.5766	21.826172	-28.05481	
1465394567456909	-17.276001	19.425964	-26.55487	
1465394587567993	-17.726135	21.226501	-25.805664	
1465394608136840	-15.626526	20.176697	-26.104736	
1465394627851196	-16.976929	21.676636	-27.156067	
1465394648023315	-17.276001	20.02716	-27.305603	
1465394668164917	-16.07666	20.925903	-27.156067	
1465394688276001	-16.526794	19.425964	-28.05481	
1465394708692260	-16.07666	19.577026	-27.45514	
1465394728559204	-16.976929	18.527222	-26.855469	
1465394748700805	-16.377258	20.176697	-28.205872	
1465394768872924	-16.827393	21.826172	-28.656006	
1465394788984008	-16.377258	18.826294	-26.405334	
1465394809796997	-16.827393	19.726562	-27.305603	
1465394829267212	-16.226196	21.076965	-28.05481	
1465394849439331	-16.526794	20.776367	-27.604675	
1465394869550415	-16.07666	20.176697	-27.156067	
1465394889722534	-17.726135	20.626831	-27.45514	
1465394910352417	-16.67633	21.676636	-27.156067	
1465394930005737	-19.076538	22.276306	-27.156067	
1465394950116821	-18.026733	19.577026	-25.35553	
1465394971845337	-19.526672	19.577026	-26.855469	
1465394991925903	-19.976807	19.726562	-27.604675	
1465395012098022	-18.327332	20.02716	-27.005005	
1465395031903930	-21.026611	19.726562	-25.9552	
1465395051892944	-19.377136	19.726562	-25.205994	
1465395071881958	-21.626282	19.276428	-25.805664	
1465395091870971	-22.52655	18.527222	-26.405334	
1465395111890503	-21.176147	18.226624	-25.805664	
1465395131879516	-21.626282	17.77649	-25.805664	
1465395151868530	-21.626282	18.826294	-27.45514	
1465395171888061	-21.32721	18.37616	-24.905396	
1465395191877075	-22.076416	20.02716	-25.656128	
1465395212445923	-20.576477	17.77649	-26.104736	
1465395232129760	-21.626282	17.475891	-25.35553	
1465395252271362	-19.377136	19.726562	-26.55487	
1465395272382446	-21.92688	18.826294	-24.75586	
1465395292554565	-21.626282	19.876099	-24.005127	
1465395312970825	-20.126343	18.226624	-24.75586	
1465395332807251	-21.626282	17.475891	-26.104736	
1465395352948852	-21.026611	18.37616	-23.85559	
1465395373120971	-21.626282	17.475891	-22.654724	
1465395393232055	-22.827148	18.37616	-24.905396	
1465395414075561	-23.576355	17.176819	-22.654724	
1465395433545776	-24.02649	17.176819	-24.005127	
1465395453687378	-23.876953	17.025757	-23.25592	
1465395473828979	-22.227478	15.077209	-23.706055	
1465395493970581	-22.976685	16.87622	-22.355652	
1465395514600464	-22.52655	15.826416	-23.405457	
1465395534223266	-25.076294	17.176819	-21.60492	
1465395554395385	-24.476624	17.025757	-22.505188	
1465395574536987	-24.476624	15.67688	-24.604797	
1465395594648071	-24.02649	15.376282	-23.405457	
1465395614972778	-23.426819	16.27655	-24.154663	
1465395634931274	-24.327087	15.826416	-22.055054	
1465395655072876	-25.227356	13.876343	-23.554993	
1465395675244995	-25.67749	15.077209	-22.355652	
1465395695356079	-24.327087	15.077209	-22.654724	
1465395715497680	-23.876953	15.226746	-23.85559	
1465395735639282	-23.876953	14.926147	-21.455383	
1465395755780883	-25.076294	14.776611	-24.455261	
1465395775922485	-24.62616	15.376282	-22.955322	
1465395796094604	-23.576355	14.776611	-23.405457	
1465395816358276	-21.626282	14.776611	-24.005127	
1465395836377807	-23.277283	15.376282	-24.75586	
1465395856488891	-22.076416	15.67688	-22.505188	
1465395876630493	-22.976685	15.077209	-24.75586	
1465395896772094	-21.026611	15.975952	-25.656128	
1465395916944214	-22.076416	15.67688	-27.005005	
1465395937085815	-21.32721	15.226746	-26.55487	
1465395957227417	-20.126343	14.476013	-25.054932	
1465395977338501	-20.126343	16.426086	-25.35553	
1465395997510620	-19.676208	17.025757	-23.554993	
1465396017774292	-19.076538	16.87622	-25.805664	
1465396037793823	-20.877075	18.226624	-24.005127	
1465396057904907	-19.526672	15.826416	-24.75586	
1465396078077026	-20.126343	16.87622	-26.855469	
1465396098188110	-19.82727	15.376282	-26.104736	
1465396118512817	-19.526672	14.476013	-25.35553	
1465396138501831	-19.526672	15.077209	-26.405334	
1465396158643432	-19.676208	15.226746	-27.005005	
1465396178754516	-20.877075	14.025879	-24.75586	
1465396198926635	-20.277405	15.975952	-26.255798	
1465396219526001	-19.976807	14.926147	-25.9552	
1465396239179321	-19.82727	15.376282	-26.104736	
1465396259320923	-19.526672	16.127014	-26.405334	
1465396279462524	-20.877075	14.476013	-25.35553	
1465396299634643	-18.026733	16.87622	-25.054932	
1465396320020385	-19.82727	16.127014	-25.805664	
1465396341321655	-18.777466	16.87622	-24.75586	
1465396361463256	-18.927002	17.626953	-24.905396	
1465396381452270	-20.576477	19.577026	-25.054932	
1465396401441284	-19.526672	15.826416	-25.054932	
1465396421582885	-21.026611	18.97583	-25.205994	
1465396441449829	-19.976807	15.226746	-23.85559	
1465396461469360	-19.526672	16.127014	-24.455261	
1465396481427856	-21.026611	15.975952	-23.554993	
1465396501447387	-21.026611	15.975952	-25.205994	
1465396521436401	-20.877075	15.077209	-23.405457	
1465396541455932	-20.576477	16.127014	-23.405457	
1465396561444946	-20.726013	14.926147	-26.255798	
1465396581617065	-20.726013	14.926147	-23.85559	
1465396601758667	-20.576477	14.025879	-24.75586	
1465396622327514	-22.227478	14.476013	-25.054932	
1465396642041870	-20.877075	14.025879	-24.75586	
1465396662152954	-19.976807	14.627075	-24.905396	
1465396682325073	-21.026611	12.226868	-25.9552	
1465396702436157	-22.377014	11.476135	-27.005005	
1465396722882934	-19.82727	11.326599	-26.104736	
1465396742749878	-20.726013	11.92627	-26.55487	
1465396762860962	-21.026611	11.177063	-28.05481	
1465396783033081	-21.026611	11.476135	-27.604675	
1465396803144165	-19.976807	11.177063	-27.305603	
1465396823957153	-21.32721	10.426331	-27.005005	
1465396843427368	-19.82727	12.976074	-27.755737	
1465396863599487	-19.076538	11.326599	-28.205872	
1465396883710571	-19.076538	11.627197	-26.855469	
1465396903882690	-19.82727	12.376404	-28.805542	
1465396924512573	-17.276001	12.226868	-27.604675	
1465396944165893	-17.276001	12.826538	-28.05481	
1465396964307495	-17.427063	13.726807	-28.805542	
1465396984449096	-16.07666	14.776611	-28.504944	
1465397004590698	-16.07666	13.726807	-28.205872	
1465397024823852	-16.226196	13.575745	-29.70581	
1465397044843383	-15.47699	14.926147	-28.355408	
1465397065015503	-15.47699	14.926147	-28.955078	
1465397085126587	-15.47699	14.176941	-28.955078	
1465397105298706	-16.526794	13.876343	-30.004883	
1465397125440307	-16.67633	12.075806	-27.755737	
1465397145551391	-14.276123	11.627197	-28.205872	
1465397165692993	-16.226196	13.575745	-28.656006	
1465397185834594	-16.07666	13.4262085	-28.504944	
1465397206006714	-16.377258	13.4262085	-27.45514	
1465397226575561	-16.827393	13.276672	-29.405212	
1465397246289917	-17.276001	13.276672	-28.355408	
1465397266431518	-16.827393	12.226868	-28.355408	
1465397286573120	-16.827393	10.876465	-28.05481	
1465397306714721	-18.476868	12.075806	-26.855469	
1465397327130981	-17.427063	11.326599	-28.205872	
1465397346997924	-18.476868	12.976074	-28.504944	
1465397367109008	-16.976929	12.376404	-26.405334	
1465397387281128	-17.427063	12.075806	-27.755737	
1465397407392212	-17.5766	12.826538	-27.305603	
1465397428205200	-18.626404	12.52594	-27.005005	
1465397447705932	-18.626404	10.876465	-27.005005	
1465397467817016	-17.5766	11.92627	-26.255798	
1465397487989135	-18.777466	10.726929	-26.855469	
1465397508100219	-18.476868	10.726929	-26.104736	
1465397528760620	-18.927002	11.177063	-27.305603	
1465397548413940	-18.476868	12.677002	-25.35553	
1465397568525024	-19.676208	12.226868	-25.656128	
1465397588697143	-18.777466	12.075806	-27.156067	
1465397608808227	-18.327332	12.226868	-27.305603	
1465397629132934	-16.976929	11.326599	-28.205872	
1465397649121948	-18.927002	11.92627	-26.55487	
1465397669233032	-18.476868	11.326599	-26.405334	
1465397689405151	-17.726135	10.726929	-28.805542	
1465397711042114	-17.726135	11.026001	-27.156067	
1465397731214233	-17.5766	12.226868	-28.355408	
1465397751203247	-18.626404	12.226868	-26.255798	
1465397771222778	-18.777466	12.376404	-27.45514	
1465397791211792	-18.026733	11.627197	-27.45514	
1465397811200805	-17.877197	11.92627	-27.005005	
1465397831647583	-18.927002	11.177063	-28.05481	
1465397851178833	-18.476868	10.276794	-28.205872	
1465397871198364	-16.377258	12.376404	-28.805542	
1465397891187378	-18.777466	10.276794	-27.45514	
1465397911176391	-18.026733	11.627197	-29.554749	
1465397931165405	-18.927002	10.127258	-28.656006	
1465397951215454	-18.777466	12.677002	-27.755737	
1465397971387573	-18.327332	12.226868	-28.656006	
1465397991529174	-16.67633	12.376404	-29.255676	
1465398011579223	-16.526794	11.476135	-28.656006	
1465398031964965	-16.976929	12.075806	-29.554749	
1465398051953979	-15.026855	13.726807	-28.805542	
1465398072095581	-16.827393	14.926147	-28.656006	
1465398092237182	-16.976929	14.025879	-29.855347	
1465398112378784	-16.377258	14.476013	-29.255676	
1465398132489868	-18.026733	14.776611	-30.155945	
1465398152631469	-16.377258	14.476013	-28.504944	
1465398172803589	-18.026733	15.077209	-30.60608	
1465398192945190	-16.827393	12.826538	-28.355408	
1465398213086792	-14.576721	14.025879	-29.255676	
1465398233625122	-16.526794	13.575745	-30.755615	
1465398253339477	-14.427185	15.226746	-29.405212	
1465398273481079	-15.176392	15.67688	-30.755615	
1465398293592163	-14.276123	16.426086	-29.855347	
1465398313764282	-14.276123	16.426086	-30.155945	
1465398334180542	-14.276123	17.475891	-29.554749	
1465398354078003	-12.776184	17.326355	-30.004883	
1465398374189087	-14.276123	15.826416	-28.504944	
1465398394361206	-15.626526	16.87622	-30.60608	
1465398414472290	-15.327454	17.176819	-30.155945	
1465398435254760	-15.327454	16.87622	-28.504944	
1465398454755493	-15.626526	18.226624	-27.45514	
1465398474927612	-16.07666	17.176819	-29.855347	
1465398495069214	-16.526794	17.025757	-30.004883	
1465398515180298	-18.626404	17.626953	-30.755615	
1465398535810180	-15.47699	15.975952	-29.70581	
1465398555463501	-17.427063	16.87622	-28.504944	
1465398575605102	-16.526794	17.326355	-28.955078	
1465398595777221	-16.827393	17.326355	-28.355408	
1465398615888305	-17.5766	17.025757	-28.656006	
1465398636853881	-19.526672	17.176819	-29.554749	
1465398656171508	-17.877197	15.975952	-28.05481	
1465398676343628	-17.877197	17.025757	-30.004883	
1465398696454712	-18.327332	15.975952	-29.405212	
1465398716626831	-18.026733	17.475891	-30.60608	
1465398737104126	-18.026733	14.776611	-30.905151	
1465398756910034	-18.927002	15.67688	-29.70581	
1465398777051635	-16.67633	16.426086	-29.255676	
1465398797162719	-16.526794	17.626953	-30.004883	
1465398817334839	-19.676208	16.27655	-31.054688	
1465398837629028	-16.976929	16.87622	-30.905151	
1465398857587524	-17.276001	17.025757	-31.054688	
1465398877729126	-18.026733	15.826416	-29.554749	
1465398897870727	-17.726135	15.826416	-29.855347	
1465398918012329	-17.276001	15.67688	-30.455017	
1465398938184448	-18.026733	17.176819	-29.554749	
1465398958326049	-18.626404	16.577148	-29.405212	
1465398978437133	-21.176147	18.527222	-30.155945	
1465398998609253	-18.327332	17.626953	-28.955078	
1465399018720337	-17.726135	15.826416	-30.155945	
1465399039319702	-18.777466	17.77649	-30.155945	
1465399059034057	-17.726135	18.226624	-30.905151	
1465399080701538	-17.427063	18.527222	-29.554749	
1465399100873657	-18.476868	17.77649	-30.60608	
1465399120862671	-15.626526	17.475891	-29.855347	
1465399141523071	-16.67633	18.226624	-30.905151	
1465399160871215	-16.07666	18.226624	-30.905151	
1465399180860229	-16.377258	17.77649	-31.20575	
1465399200849243	-15.026855	18.826294	-29.855347	
1465399220868774	-14.726257	18.676758	-30.455017	
1465399241040893	-16.226196	17.626953	-31.355286	
1465399260816284	-17.276001	20.475769	-31.355286	
1465399280835815	-12.927246	18.826294	-31.954956	
1465399300855346	-15.47699	19.726562	-31.355286	
1465399320844360	-13.825989	18.97583	-29.405212	
1465399341016479	-13.825989	20.02716	-31.054688	
1465399361158081	-15.776062	18.97583	-31.355286	
1465399381269165	-15.327454	18.527222	-30.60608	
1465399401410766	-13.825989	19.425964	-32.106018	
1465399421582885	-14.276123	18.226624	-31.504822	
1465399441907592	-15.026855	18.826294	-28.504944	
1465399461866089	-14.576721	19.577026	-30.155945	
1465399481977173	-15.176392	21.076965	-30.455017	
1465399502118774	-13.977051	21.226501	-29.554749	
1465399522290893	-14.576721	21.977234	-28.504944	
1465399542432495	-15.626526	21.226501	-28.205872	
1465399562543579	-16.526794	19.425964	-28.05481	
1465399582685180	-16.976929	21.226501	-28.205872	
1465399602857299	-16.377258	21.676636	-27.45514	
1465399622968383	-16.827393	21.076965	-27.604675	
1465399643567749	-18.626404	21.826172	-27.604675	
1465399663251587	-18.327332	22.12677	-28.955078	
1465399683423706	-17.726135	21.676636	-26.405334	
1465399703534790	-16.377258	21.226501	-28.504944	
1465399723706909	-17.427063	21.676636	-27.755737	
1465399744092651	-16.827393	20.776367	-26.55487	
1465399763959594	-18.476868	20.176697	-27.755737	
1465399784131714	-17.427063	19.276428	-25.805664	
1465399804273315	-17.726135	20.925903	-28.205872	
1465399824414917	-17.427063	20.176697	-26.104736	
1465399845166870	-20.726013	20.475769	-27.005005	
1465399864698120	-17.276001	20.02716	-27.604675	
1465399884839721	-16.827393	20.475769	-26.55487	
1465399904981323	-19.526672	20.176697	-25.805664	
1465399925122924	-18.927002	18.97583	-28.355408	
1465399945722290	-19.82727	20.626831	-27.755737	
1465399965375610	-19.82727	18.527222	-27.156067	
1465399985547729	-19.377136	19.425964	-28.656006	
1465400005689331	-18.927002	18.676758	-27.604675	
1465400025800415	-20.277405	20.02716	-26.55487	
1465400046827026	-20.277405	20.776367	-25.9552	
1465400066114135	-18.927002	21.376038	-27.005005	
1465400086225219	-19.076538	19.276428	-26.104736	
1465400106397339	-20.126343	20.176697	-26.104736	
1465400126508423	-18.777466	22.276306	-26.405334	
1465400146558471	-16.976929	21.226501	-28.205872	
1465400166761108	-18.327332	21.076965	-28.355408	
1465400186933227	-16.976929	23.027039	-27.45514	
1465400207105346	-17.726135	21.977234	-25.805664	
1465400227216430	-17.5766	21.826172	-27.305603	
1465400247541137	-17.427063	23.027039	-28.205872	
1465400267530151	-16.67633	22.276306	-27.755737	
1465400287671753	-16.526794	23.176575	-27.305603	
1465400307782837	-15.776062	20.776367	-28.955078	
1465400327924438	-16.226196	20.776367	-26.55487	
1465400348096557	-17.427063	22.276306	-27.755737	
1465400368207641	-17.276001	22.12677	-28.355408	
1465400388349243	-16.976929	20.925903	-27.755737	
1465400408551880	-17.726135	21.977234	-27.156067	
1465400428662964	-18.026733	19.876099	-29.554749	
1465400449231811	-17.276001	20.475769	-28.656006	
1465400470533081	-15.776062	21.376038	-27.305603	
1465400490400024	-16.526794	20.02716	-28.955078	
1465400510511108	-17.877197	21.826172	-27.305603	
1465400530408569	-18.026733	21.676636	-28.504944	
1465400550702758	-17.427063	21.977234	-25.805664	
1465400570386596	-16.976929	21.676636	-25.35553	
1465400590375610	-16.827393	20.776367	-25.205994	
1465400610395141	-18.026733	21.226501	-25.805664	
1465400630384155	-18.476868	23.32611	-25.805664	
1465400650525756	-18.026733	23.32611	-24.75586	
1465400670362182	-18.626404	20.776367	-27.005005	
1465400690473266	-17.5766	21.076965	-25.656128	
1465400710645385	-19.076538	21.676636	-23.706055	
1465400730756469	-20.277405	21.376038	-23.554993	
1465400751050659	-19.377136	20.776367	-23.554993	
1465400771039673	-19.526672	22.276306	-22.955322	
1465400791211792	-19.976807	23.176575	-24.905396	
1465400811353393	-19.82727	21.977234	-24.005127	
1465400831494995	-20.726013	21.376038	-25.9552	
1465400852155395	-19.526672	20.626831	-25.35553	
1465400871778198	-21.176147	20.925903	-26.855469	
1465400891919799	-20.726013	21.076965	-23.85559	
1465400912030883	-21.92688	19.276428	-24.75586	
1465400932203003	-20.877075	20.176697	-24.455261	
1465400952680298	-22.227478	19.876099	-23.706055	
1465400972455688	-22.227478	17.77649	-24.75586	
1465400992627807	-21.32721	19.726562	-25.205994	
1465401012769409	-22.227478	19.577026	-24.005127	
1465401032880493	-21.32721	20.475769	-25.205994	
1465401053785034	-21.32721	19.425964	-23.554993	
1465401073194214	-22.377014	19.425964	-25.205994	
1465401093335815	-22.227478	19.276428	-24.455261	
1465401113446899	-22.52655	21.977234	-24.75586	
1465401133619018	-21.176147	19.876099	-23.706055	
1465401154340454	-21.176147	19.577026	-23.405457	
1465401173902221	-21.176147	20.925903	-24.75586	
1465401194043823	-19.82727	20.925903	-24.005127	
1465401214185424	-21.176147	21.977234	-26.104736	
1465401234327026	-21.92688	21.226501	-24.75586	
1465401254590698	-21.626282	20.626831	-25.805664	
1465401274579712	-20.726013	20.776367	-26.255798	
1465401294751831	-19.976807	21.376038	-26.55487	
1465401314832397	-19.526672	19.876099	-24.005127	
1465401335035034	-20.726013	19.726562	-26.55487	
1465401355176635	-18.476868	21.676636	-27.45514	
1465401375287719	-20.877075	21.977234	-26.104736	
1465401395429321	-21.176147	18.226624	-26.405334	
1465401415601440	-20.726013	20.02716	-24.604797	
1465401435712524	-20.576477	19.876099	-26.104736	
1465401456037231	-19.676208	18.077087	-25.656128	
1465401476026245	-21.026611	18.97583	-25.656128	
1465401496167846	-19.377136	19.425964	-23.85559	
1465401516309448	-18.777466	19.276428	-24.455261	
1465401536420532	-19.976807	20.02716	-25.9552	
1465401556562133	-18.626404	20.475769	-25.9552	
1465401576703735	-21.176147	20.626831	-25.054932	
1465401596875854	-20.877075	21.226501	-24.005127	
1465401617017456	-20.576477	21.226501	-24.75586	
1465401637128540	-19.82727	18.527222	-25.054932	
1465401657727905	-21.92688	20.626831	-23.706055	
1465401677411743	-22.227478	19.577026	-21.305847	
1465401697583862	-21.176147	19.577026	-24.005127	
1465401717694946	-22.377014	18.676758	-22.805786	
1465401737836548	-22.227478	19.276428	-23.706055	
1465401758283325	-22.227478	20.925903	-22.955322	
1465401778119751	-22.976685	22.276306	-22.955322	
1465401798291870	-22.227478	19.276428	-22.654724	
1465401819989868	-22.976685	20.176697	-22.654724	
1465401840100952	-24.176025	20.02716	-22.505188	
1465401860974975	-22.827148	17.326355	-23.25592	
1465401880201049	-22.52655	18.226624	-23.706055	
1465401900129028	-21.176147	19.577026	-24.005127	
1465401920179077	-22.076416	18.37616	-22.505188	
1465401940168090	-22.227478	18.527222	-22.355652	
1465401960157104	-24.02649	17.475891	-22.955322	
1465401980146118	-22.227478	17.475891	-23.405457	
1465402000135131	-22.377014	17.326355	-23.85559	
1465402020093628	-22.827148	18.37616	-23.25592	
1465402040143676	-22.52655	17.176819	-24.005127	
1465402060315796	-22.076416	16.577148	-23.85559	
1465402080274292	-22.976685	15.826416	-24.005127	
1465402100385376	-23.576355	16.426086	-24.455261	
1465402120526977	-24.02649	16.426086	-24.005127	
1465402140699096	-24.176025	15.67688	-25.205994	
1465402160993286	-23.426819	16.577148	-23.554993	
1465402180951782	-22.076416	17.626953	-22.505188	
1465402201123901	-22.076416	17.025757	-21.154785	
1465402221265503	-21.777344	15.226746	-25.656128	
1465402241376587	-19.676208	17.025757	-24.905396	
1465402262067505	-21.176147	17.475891	-24.75586	
1465402281659790	-21.176147	18.826294	-22.055054	
1465402301831909	-20.726013	18.077087	-23.85559	
1465402321973510	-20.277405	17.326355	-24.154663	
1465402342084594	-20.576477	18.826294	-22.654724	
1465402362622924	-20.126343	18.527222	-22.955322	
1465402382367798	-21.32721	18.37616	-22.505188	
1465402402539917	-19.676208	18.97583	-23.554993	
1465402422681518	-19.377136	18.077087	-23.25592	
1465402442792602	-19.377136	18.077087	-22.505188	
1465402463727661	-18.777466	18.226624	-24.455261	
1465402483106323	-19.82727	19.276428	-23.706055	
1465402503247924	-18.327332	18.97583	-23.554993	
1465402523389526	-18.626404	18.676758	-24.154663	
1465402543531128	-18.777466	19.577026	-24.75586	
1465402563977905	-17.5766	18.37616	-22.505188	
1465402583814331	-19.82727	20.176697	-22.355652	
1465402603955932	-18.026733	19.577026	-24.005127	
1465402624067016	-19.526672	18.527222	-23.706055	
1465402644208618	-19.676208	20.02716	-21.755981	
1465402664533325	-19.676208	20.475769	-21.154785	
1465402684522339	-18.777466	19.276428	-21.60492	
1465402704633423	-18.626404	20.475769	-22.505188	
1465402724798257	-19.976807	20.776367	-21.154785	
1465402744939859	-18.927002	20.02716	-21.455383	
1465402765111978	-18.777466	19.577026	-22.355652	
1465402785253579	-18.476868	19.276428	-21.005249	
1465402805364663	-17.877197	19.425964	-23.554993	
1465402825536782	-18.026733	20.176697	-21.305847	
1465402845647866	-18.927002	19.425964	-20.405579	
