# OpenSignals Text File Format
# {"internal sensors":{"sensor":["xRot","yRot","zRot","scalarRot"],"device name":"internal sensors","column":["nSeq","xRot","yRot","zRot","scalarRot"],"sync interval":2,"time":"19:01:34","comments":"","keywords":"","device connection":"UNKNOWNinternal sensors","channels":[0,1,2,3],"date":"2020-07-28","mode":0,"digital IO":[],"firmware version":0,"device":"android","position":0,"sampling rate":100,"label":["xRot","yRot","zRot","scalarRot"],"resolution":[1,1,1,1],"special":[{},{},{},{}],"sleeve color":["UNKNOWN","UNKNOWN","UNKNOWN","UNKNOWN"]}}
# EndOfHeader
1465354465799108	0.049258843	-0.3058781	-0.8511692	0.4237017	
1465354465799108	0.049258843	-0.3058781	-0.8511692	0.4237017	
1465354485813928	0.05325051	-0.27706796	-0.8615331	0.42208818	
1465354485813928	0.05325051	-0.27706796	-0.8615331	0.42208818	
1465354525791956	0.0294496	-0.2136056	-0.8938844	0.39303437	
1465354545780969	0.03149042	-0.19992559	-0.90005803	0.38591918	
1465354565769983	0.046219647	-0.1970046	-0.8995893	0.3870298	
1465354585758997	0.06305862	-0.19896874	-0.8957883	0.39242628	
1465354625767542	0.07941516	-0.19322732	-0.8932285	0.39811972	
1465354645726038	0.080963105	-0.18521322	-0.89516705	0.3972618	
1465354685734583	0.081016846	-0.17652957	-0.8966064	0.39795798	
1465354715733362	0.07977093	-0.18317741	-0.8937132	0.40169567	
1465354755741907	0.082206786	-0.19253603	-0.8878061	0.4098442	
1465354785710169	0.08487668	-0.200997	-0.88158214	0.41857982	
1465354815708948	0.08342859	-0.20756586	-0.8769569	0.42532656	
1465354855686975	0.081172876	-0.21802862	-0.87150055	0.43169585	
1465354895665003	0.08384239	-0.23102652	-0.86496854	0.4375233	
1465354925694299	0.08263544	-0.23723933	-0.8634749	0.43737856	
1465354955662561	0.07989946	-0.24096885	-0.8641355	0.43453413	
1465355005650354	0.064581364	-0.24685927	-0.86739707	0.42721432	
1465355055638147	0.06330925	-0.22978812	-0.87783825	0.41543874	
1465355075627161	0.06658121	-0.23012438	-0.8786849	0.41294378	
1465355075627161	0.06658121	-0.23012438	-0.8786849	0.41294378	
1465355075627161	0.06658121	-0.23012438	-0.8786849	0.41294378	
1465355075627161	0.06658121	-0.23012438	-0.8786849	0.41294378	
1465355075627161	0.06658121	-0.23012438	-0.8786849	0.41294378	
1465355075627161	0.06658121	-0.23012438	-0.8786849	0.41294378	
1465355075627161	0.06658121	-0.23012438	-0.8786849	0.41294378	
1465355075627161	0.06658121	-0.23012438	-0.8786849	0.41294378	
1465355075627161	0.06658121	-0.23012438	-0.8786849	0.41294378	
1465355075627161	0.06658121	-0.23012438	-0.8786849	0.41294378	
1465355075627161	0.06658121	-0.23012438	-0.8786849	0.41294378	
1465355075627161	0.06658121	-0.23012438	-0.8786849	0.41294378	
1465355075627161	0.06658121	-0.23012438	-0.8786849	0.41294378	
1465355075627161	0.06658121	-0.23012438	-0.8786849	0.41294378	
1465355075627161	0.06658121	-0.23012438	-0.8786849	0.41294378	
1465355075627161	0.06658121	-0.23012438	-0.8786849	0.41294378	
1465355075627161	0.06658121	-0.23012438	-0.8786849	0.41294378	
1465355075627161	0.06658121	-0.23012438	-0.8786849	0.41294378	
1465355075627161	0.06658121	-0.23012438	-0.8786849	0.41294378	
1465355075627161	0.06658121	-0.23012438	-0.8786849	0.41294378	
1465355075627161	0.06658121	-0.23012438	-0.8786849	0.41294378	
1465355075627161	0.06658121	-0.23012438	-0.8786849	0.41294378	
1465355075627161	0.06658121	-0.23012438	-0.8786849	0.41294378	
1465355075627161	0.06658121	-0.23012438	-0.8786849	0.41294378	
1465355075627161	0.06658121	-0.23012438	-0.8786849	0.41294378	
1465355075627161	0.06658121	-0.23012438	-0.8786849	0.41294378	
1465355075627161	0.06658121	-0.23012438	-0.8786849	0.41294378	
1465355075627161	0.06658121	-0.23012438	-0.8786849	0.41294378	
1465355075627161	0.06658121	-0.23012438	-0.8786849	0.41294378	
1465355075627161	0.06658121	-0.23012438	-0.8786849	0.41294378	
1465355075627161	0.06658121	-0.23012438	-0.8786849	0.41294378	
1465355075627161	0.06658121	-0.23012438	-0.8786849	0.41294378	
1465355075627161	0.06658121	-0.23012438	-0.8786849	0.41294378	
1465355075627161	0.06658121	-0.23012438	-0.8786849	0.41294378	
1465355075627161	0.06658121	-0.23012438	-0.8786849	0.41294378	
1465355075627161	0.06658121	-0.23012438	-0.8786849	0.41294378	
1465355075627161	0.06658121	-0.23012438	-0.8786849	0.41294378	
1465355075627161	0.06658121	-0.23012438	-0.8786849	0.41294378	
1465355075627161	0.06658121	-0.23012438	-0.8786849	0.41294378	
1465355075627161	0.06658121	-0.23012438	-0.8786849	0.41294378	
1465355075627161	0.06658121	-0.23012438	-0.8786849	0.41294378	
1465355075627161	0.06658121	-0.23012438	-0.8786849	0.41294378	
1465355095616174	0.07145947	-0.23538427	-0.87674576	0.4132852	
1465355125614954	0.07584292	-0.23598191	-0.8747812	0.41631508	
1465355145603967	0.08013515	-0.2338755	-0.87280416	0.42082483	
1465355145603967	0.08013515	-0.2338755	-0.87280416	0.42082483	
1465355145603967	0.08013515	-0.2338755	-0.87280416	0.42082483	
1465355145603967	0.08013515	-0.2338755	-0.87280416	0.42082483	
1465355145603967	0.08013515	-0.2338755	-0.87280416	0.42082483	
1465355165592981	0.08184542	-0.23051487	-0.87122506	0.425595	
1465355175602747	0.08105817	-0.22870438	-0.87060076	0.4279932	
1465355175602747	0.08105817	-0.22870438	-0.87060076	0.4279932	
1465355205571008	0.07211292	-0.22286545	-0.86914176	0.43557245	
1465355215580774	0.06807073	-0.22178935	-0.86842006	0.43820366	
1465355215580774	0.06807073	-0.22178935	-0.86842006	0.43820366	
1465355215580774	0.06807073	-0.22178935	-0.86842006	0.43820366	
1465355225590540	0.06426543	-0.22151293	-0.86721987	0.4412841	
1465355235569788	0.060445312	-0.2221138	-0.8657487	0.44439957	
1465355245549036	0.05655689	-0.22342367	-0.863984	0.4476772	
1465355255558801	0.052653514	-0.22494535	-0.8622516	0.45072094	
1465355265538049	0.049085736	-0.22596708	-0.8606892	0.45358965	
1465355275547815	0.045994274	-0.22606249	-0.85951227	0.4560909	
1465355285527063	0.043938667	-0.22510372	-0.858561	0.45855293	
1465355295536829	0.043256816	-0.2232437	-0.8577677	0.46100506	
1465355305516077	0.04390669	-0.22078356	-0.85689616	0.4637411	
1465355315495325	0.04525302	-0.21816233	-0.8558878	0.4667049	
1465355325505090	0.045715217	-0.2164653	-0.8542619	0.47041422	
1465355335514856	0.043516826	-0.21830912	-0.8514437	0.47485894	
1465355345494104	0.040578652	-0.22282395	-0.8480091	0.4791486	
1465355355503870	0.03908193	-0.2285049	-0.84464204	0.4825329	
1465355365483118	0.039025635	-0.23543055	-0.84116334	0.48527688	
1465355395481897	0.059058607	-0.2577828	-0.82747024	0.49533132	
1465355435490442	0.069064535	-0.2626786	-0.8189837	0.5054659	
1465355435490442	0.069064535	-0.2626786	-0.8189837	0.5054659	
1465355435490442	0.069064535	-0.2626786	-0.8189837	0.5054659	
1465355435490442	0.069064535	-0.2626786	-0.8189837	0.5054659	
1465355435490442	0.069064535	-0.2626786	-0.8189837	0.5054659	
1465355435490442	0.069064535	-0.2626786	-0.8189837	0.5054659	
1465355445469690	0.070851795	-0.26226074	-0.81654286	0.5093693	
1465355455479456	0.07112687	-0.26204738	-0.8141401	0.5132719	
1465355465458704	0.06994795	-0.26247638	-0.8114601	0.51744175	
1465355475468469	0.06738829	-0.2637745	-0.808825	0.5212331	
1465355485478235	0.064153954	-0.26568452	-0.8060465	0.524962	
1465355495457483	0.06081553	-0.26774833	-0.8035568	0.52811813	
1465355505467249	0.058468565	-0.26931742	-0.8009978	0.5314622	
1465355515446497	0.05785271	-0.27033913	-0.7983226	0.5350241	
1465355525456262	0.059528366	-0.27080375	-0.7948208	0.5397977	
1465355535435510	0.062962316	-0.27010968	-0.79096013	0.5453976	
1465355545445276	0.067655854	-0.26703334	-0.78712064	0.55186677	
1465355555455042	0.07212764	-0.26203915	-0.7839271	0.55820376	
1465355565464807	0.0749073	-0.25776762	-0.7805804	0.56448114	
1465355575444055	0.07588139	-0.2557972	-0.7771678	0.56992984	
1465355585453821	0.07632481	-0.25599414	-0.7734607	0.5748044	
1465355595433069	0.07689657	-0.257772	-0.7701952	0.57830775	
1465355605442835	0.07832588	-0.26018625	-0.7672864	0.5808956	
1465355615452600	0.080436304	-0.26300955	-0.76418173	0.5834229	
1465355635441614	0.08551858	-0.26729918	-0.7571825	0.58984095	
1465355675419641	0.087781675	-0.2637738	-0.7466726	0.604316	
1465355715428186	0.0687903	-0.2478354	-0.74431616	0.6163108	
1465355715428186	0.0687903	-0.2478354	-0.74431616	0.6163108	
1465355735417200	0.05802421	-0.24287936	-0.7411837	0.62312883	
1465355735417200	0.05802421	-0.24287936	-0.7411837	0.62312883	
1465355735417200	0.05802421	-0.24287936	-0.7411837	0.62312883	
1465355735417200	0.05802421	-0.24287936	-0.7411837	0.62312883	
1465355735417200	0.05802421	-0.24287936	-0.7411837	0.62312883	
1465355735417200	0.05802421	-0.24287936	-0.7411837	0.62312883	
1465355745426965	0.0534069	-0.24123734	-0.7386297	0.6271989	
1465355745426965	0.0534069	-0.24123734	-0.7386297	0.6271989	
1465355745426965	0.0534069	-0.24123734	-0.7386297	0.6271989	
1465355755406214	0.04880288	-0.24024804	-0.7357069	0.6313751	
1465355765415979	0.044138063	-0.23996225	-0.73237807	0.6356826	
1465355775395227	0.03952633	-0.24019581	-0.72934276	0.6393769	
1465355785374475	0.035023097	-0.24067277	-0.7265716	0.642607	
1465355795384241	0.030250404	-0.24131985	-0.72416764	0.6453146	
1465355805394006	0.025319766	-0.24199542	-0.7218597	0.6478547	
1465355815373255	0.02066904	-0.24206346	-0.72006875	0.6499839	
1465355825383020	0.01629103	-0.24143825	-0.71823007	0.65237087	
1465355835362268	0.011555318	-0.24057108	-0.7164685	0.6547251	
1465355845372034	0.006383443	-0.239494	-0.7144751	0.65736383	
1465355855351282	0.001178427	-0.23800364	-0.7125971	0.6599684	
1465355865361047	-0.003363697	-0.2356825	-0.7106445	0.66289276	
1465355875370813	-0.0075301095	-0.23319411	-0.7084077	0.6661249	
1465355885350061	-0.011138034	-0.2312791	-0.7051176	0.6702202	
1465355895359827	-0.013920614	-0.23002441	-0.7022923	0.67355806	
1465355905339075	-0.015172255	-0.22956122	-0.6997645	0.67631435	
1465355915348840	-0.015287195	-0.22995812	-0.69872576	0.67725027	
1465355925358606	-0.014268948	-0.23144223	-0.69839436	0.6771087	
1465355935337854	-0.012390314	-0.23362054	-0.6983848	0.6764071	
1465355945347620	-0.010022259	-0.23615989	-0.6977492	0.6762205	
1465355965336633	-0.005920955	-0.24074733	-0.6953272	0.6771453	
1465355965336633	-0.005920955	-0.24074733	-0.6953272	0.6771453	
1465355975346399	-0.004715942	-0.24251927	-0.69420207	0.6776766	
1465355985325647	-0.0039521162	-0.24389116	-0.6932553	0.6781582	
1465355995335413	-0.0033228723	-0.24460986	-0.69328594	0.67787135	
1465356005314661	-0.0024550809	-0.24520528	-0.69373393	0.67720133	
1465356015324426	-0.0019698027	-0.24657378	-0.6950181	0.6753868	
1465356025334192	-0.0016574116	-0.24880992	-0.69621587	0.6733308	
1465356035343958	-0.0013915823	-0.25135386	-0.69749653	0.6710573	
1465356045323206	-9.473897E-4	-0.25331992	-0.6983239	0.6694564	
1465356055332971	-6.1833573E-4	-0.2540846	-0.6991696	0.6682833	
1465356065342737	-3.8218318E-4	-0.25361526	-0.6994621	0.6681556	
1465356075352503	-6.469579E-4	-0.25218207	-0.699744	0.6684027	
1465356085331751	-0.001208497	-0.25029778	-0.6996273	0.6692318	
1465356095310999	-0.002281189	-0.24852164	-0.69982857	0.66968036	
1465356125309778	-0.0066076955	-0.24656497	-0.70043224	0.6697438	
1465356125309778	-0.0066076955	-0.24656497	-0.70043224	0.6697438	
1465356125309778	-0.0066076955	-0.24656497	-0.70043224	0.6697438	
1465356135319544	-0.007567205	-0.24684486	-0.7007891	0.66925704	
1465356145329309	-0.007814464	-0.24708253	-0.7007365	0.6692216	
1465356155308557	-0.007412951	-0.24696392	-0.7006855	0.66932327	
1465356165287805	-0.006107882	-0.2463523	-0.7000887	0.67018586	
1465356175297571	-0.0044576027	-0.24520127	-0.69998974	0.6707241	
1465356185307337	-0.0024827758	-0.24351877	-0.7000043	0.6713319	
1465356195286585	-7.454503E-4	-0.24134228	-0.7009666	0.67111784	
1465356205296350	7.4083E-4	-0.23879799	-0.7022657	0.6706697	
1465356215275598	0.0016195661	-0.23595443	-0.70463276	0.6691902	
1465356225285364	0.002050618	-0.23281579	-0.7075602	0.6671965	
1465356235295130	0.0018490071	-0.22954945	-0.7113946	0.6642449	
1465356255284143	0.0010362427	-0.22294289	-0.71908116	0.65819275	
1465356255284143	0.0010362427	-0.22294289	-0.71908116	0.65819275	
1465356265263391	0.0015335999	-0.21912313	-0.7220638	0.6562062	
1465356285282922	0.0046019396	-0.21211691	-0.72644764	0.6536506	
1465356285282922	0.0046019396	-0.21211691	-0.72644764	0.6536506	
1465356295262171	0.00800672	-0.20903195	-0.72769165	0.6532277	
1465356305271936	0.011265676	-0.20706463	-0.7280992	0.653352	
1465356315281702	0.013072795	-0.20618929	-0.7285218	0.65312403	
1465356325260950	0.014737102	-0.2051236	-0.728578	0.6533615	
1465356335270715	0.016271383	-0.20387806	-0.7288395	0.65342325	
1465356355259729	0.01921239	-0.20078062	-0.72924066	0.6538548	
1465356355259729	0.01921239	-0.20078062	-0.72924066	0.6538548	
1465356365269495	0.02085395	-0.19928992	-0.729289	0.6542066	
1465356375248743	0.022663632	-0.19844142	-0.7298271	0.65380406	
1465356385258508	0.025057612	-0.19830702	-0.7303439	0.6531801	
1465356395237756	0.028257167	-0.19876671	-0.7313272	0.65180814	
1465356405247522	0.032436706	-0.19982272	-0.7322466	0.65025663	
1465356415226770	0.037441835	-0.2014701	-0.7335479	0.64800876	
1465356425206018	0.043860834	-0.2034651	-0.73436844	0.6460504	
1465356435215784	0.05123888	-0.20614114	-0.735349	0.64353883	
1465356455204797	0.067193925	-0.21398538	-0.73557514	0.6392374	
1465356455204797	0.067193925	-0.21398538	-0.73557514	0.6392374	
1465356465214563	0.07538593	-0.21819566	-0.7350854	0.6374614	
1465356475224329	0.083335295	-0.22203273	-0.7348469	0.63541853	
1465356485203577	0.09102125	-0.22513177	-0.7344235	0.6337609	
1465356495182825	0.098036155	-0.22720286	-0.7346152	0.63175017	
1465356505192590	0.10469664	-0.22774255	-0.73523873	0.62975866	
1465356515202356	0.11151899	-0.22639105	-0.736131	0.62803006	
1465356525181604	0.11858888	-0.22338341	-0.73764277	0.6260349	
1465356535191370	0.1260008	-0.2194197	-0.7391421	0.6242177	
1465356545201135	0.1336376	-0.21537764	-0.7408242	0.6220393	
1465356555180383	0.14155918	-0.21192273	-0.74206126	0.61999583	
1465356575169397	0.15743503	-0.20817521	-0.7443232	0.6147034	
1465356575169397	0.15743503	-0.20817521	-0.7443232	0.6147034	
1465356585179163	0.16570666	-0.20704764	-0.7452652	0.6117617	
1465356615177942	0.19562493	-0.19741903	-0.7465741	0.6044698	
1465356615177942	0.19562493	-0.19741903	-0.7465741	0.6044698	
1465356615177942	0.19562493	-0.19741903	-0.7465741	0.6044698	
1465356625187708	0.20750092	-0.19139372	-0.74660045	0.6024115	
1465356635197473	0.2194952	-0.18465105	-0.7459899	0.60101986	
1465356645207239	0.23060988	-0.177952	-0.7454223	0.5995813	
1465356655186487	0.24046965	-0.17151877	-0.7446418	0.59855187	
1465356675206018	0.2556963	-0.16090736	-0.7442407	0.59567946	
1465356675206018	0.2556963	-0.16090736	-0.7442407	0.59567946	
1465356695164514	0.26493776	-0.15460557	-0.74520075	0.5920988	
1465356695164514	0.26493776	-0.15460557	-0.74520075	0.5920988	
1465356705143762	0.26744753	-0.15302402	-0.74608296	0.5902675	
1465356715153528	0.26897642	-0.15185751	-0.74700004	0.5887121	
1465356725132776	0.26973677	-0.15070276	-0.74824345	0.58707964	
1465356735142542	0.2704219	-0.14890316	-0.7492795	0.5859011	
1465356745152307	0.27119285	-0.14662032	-0.7504937	0.58456486	
1465356755131555	0.27219117	-0.14387172	-0.75140256	0.5836155	
1465356765141321	0.27328274	-0.14127623	-0.75239	0.5824661	
1465356775120569	0.27437344	-0.13912463	-0.7530585	0.58160675	
1465356785130335	0.27533382	-0.13783184	-0.75369465	0.5806359	
1465356805119348	0.27748147	-0.13743402	-0.75445586	0.57871604	
1465356805119348	0.27748147	-0.13743402	-0.75445586	0.57871604	
1465356825138880	0.28082895	-0.139057	-0.7548223	0.57623047	
1465356825138880	0.28082895	-0.139057	-0.7548223	0.57623047	
1465356845127893	0.2862405	-0.14214261	-0.75494087	0.57264835	
1465356845127893	0.2862405	-0.14214261	-0.75494087	0.57264835	
1465356855137659	0.28989768	-0.14397183	-0.75481963	0.57050747	
1465356865147424	0.29405844	-0.14605631	-0.7546533	0.568063	
1465356875126672	0.29862317	-0.14820331	-0.75426114	0.56564134	
1465356895115686	0.3084728	-0.15224446	-0.7535901	0.56015	
1465356895115686	0.3084728	-0.15224446	-0.7535901	0.56015	
1465356905094934	0.3136109	-0.15380739	-0.7533834	0.55713993	
1465356915104700	0.3189245	-0.15497422	-0.75309616	0.55418074	
1465356925114465	0.3243266	-0.15573812	-0.75275517	0.55128723	
1465356935093714	0.32953393	-0.15589781	-0.7521608	0.54896027	
1465356945103479	0.33423105	-0.15528412	-0.7514044	0.54732794	
1465356955113245	0.3383218	-0.1539898	-0.7506228	0.5462517	
1465356965123010	0.34184173	-0.15229595	-0.7499085	0.5455157	
1465356975102258	0.34496912	-0.15037778	-0.74938035	0.54480445	
1465356985081506	0.34765953	-0.14862278	-0.7493632	0.5435981	
1465356995091272	0.34977514	-0.1472618	-0.7497198	0.54211766	
1465357015080286	0.35221508	-0.14666681	-0.7517924	0.5378119	
1465357015080286	0.35221508	-0.14666681	-0.7517924	0.5378119	
1465357025090051	0.35293785	-0.14754887	-0.7529181	0.53551704	
1465357035069299	0.3539034	-0.14912476	-0.75360197	0.53347754	
1465357045079065	0.3551407	-0.15137345	-0.75401795	0.53143024	
1465357055058313	0.3565984	-0.15377113	-0.7541042	0.5296403	
1465357065068079	0.3579478	-0.15585409	-0.75431097	0.5278237	
1465357075047327	0.3589454	-0.15721317	-0.7548302	0.5259977	
1465357095066858	0.35892218	-0.15737239	-0.75713724	0.52263945	
1465357095066858	0.35892218	-0.15737239	-0.75713724	0.52263945	
1465357105076624	0.35743305	-0.1559381	-0.758935	0.5214812	
1465357115055872	0.35482627	-0.15366839	-0.7611497	0.52070665	
1465357125065637	0.3511757	-0.15080848	-0.7638178	0.5201104	
1465357145054651	0.34187335	-0.1433299	-0.7700028	0.5193023	
1465357145054651	0.34187335	-0.1433299	-0.7700028	0.5193023	
1465357155064417	0.33646116	-0.13839552	-0.7734655	0.51902956	
1465357175053430	0.3251408	-0.12559153	-0.78026235	0.5193274	
1465357175053430	0.3251408	-0.12559153	-0.78026235	0.5193274	
1465357185063196	0.31929627	-0.11901994	-0.7834936	0.51963633	
1465357195042444	0.31307283	-0.113697	-0.78665626	0.51983684	
1465357205052210	0.30647016	-0.11006596	-0.7895026	0.5202376	
1465357215031458	0.2997082	-0.10830389	-0.79219246	0.52045786	
1465357225010706	0.2929566	-0.10772544	-0.7945201	0.5208738	
1465357245030237	0.27975774	-0.107499845	-0.7987233	0.5217475	
1465357245030237	0.27975774	-0.107499845	-0.7987233	0.5217475	
1465357255009485	0.2734892	-0.10698408	-0.80062467	0.5222626	
1465357265019251	0.2678779	-0.10581822	-0.8021172	0.5231175	
1465357274998499	0.26341546	-0.10415431	-0.80337435	0.523788	
1465357285008264	0.26038748	-0.10188381	-0.80396575	0.5248401	
1465357295018030	0.25870982	-0.09945912	-0.8042313	0.5257272	
1465357304997278	0.25830042	-0.09705217	-0.80391175	0.5268659	
1465357315007044	0.2589076	-0.095036596	-0.8033553	0.52778333	
1465357325016809	0.26034582	-0.093532056	-0.8023968	0.5288017	
1465357335026575	0.26239368	-0.092749834	-0.8013683	0.52948636	
1465357345005823	0.2649554	-0.092582956	-0.8002158	0.52998275	
1465357354985071	0.26787165	-0.09311373	-0.79935503	0.52972275	
1465357374943567	0.2747569	-0.09503883	-0.79743624	0.5287455	
1465357374943567	0.2747569	-0.09503883	-0.79743624	0.5287455	
1465357384953333	0.27854633	-0.09624182	-0.79640615	0.5280972	
1465357404972864	0.2859725	-0.09977354	-0.79455864	0.5262523	
1465357404972864	0.2859725	-0.09977354	-0.79455864	0.5262523	
1465357414982630	0.28936243	-0.10228063	-0.79367685	0.5252477	
1465357424961878	0.29242316	-0.10520063	-0.79257333	0.5246418	
1465357444950891	0.2972287	-0.11244428	-0.7905097	0.52355117	
1465357444950891	0.2972287	-0.11244428	-0.7905097	0.52355117	
1465357454960657	0.29902977	-0.11650677	-0.78961354	0.5229893	
1465357474949671	0.30191997	-0.12442873	-0.78777575	0.52227503	
1465357474949671	0.30191997	-0.12442873	-0.78777575	0.52227503	
1465357484959436	0.30311838	-0.12802541	-0.7868597	0.5220925	
1465357504948450	0.3056276	-0.13369426	-0.78517604	0.52174336	
1465357504948450	0.3056276	-0.13369426	-0.78517604	0.52174336	
1465357514958215	0.30721554	-0.13540109	-0.7843619	0.5215952	
1465357524937464	0.30914629	-0.13618393	-0.7833682	0.521744	
1465357534947229	0.3113844	-0.13623525	-0.78239983	0.52185273	
1465357544956995	0.31397656	-0.13554692	-0.78102803	0.52253324	
1465357554936243	0.31676278	-0.13457774	-0.7795336	0.5233331	
1465357564946008	0.31981337	-0.13333361	-0.7775882	0.52468866	
1465357574925256	0.32290202	-0.13221823	-0.77556086	0.5260779	
1465357584935022	0.3259499	-0.13104394	-0.7730726	0.5281504	
1465357594914270	0.32857496	-0.13007517	-0.7706657	0.53027666	
1465357604924036	0.33046725	-0.12926286	-0.7684233	0.53254867	
1465357624913049	0.33082876	-0.12847017	-0.76590466	0.5361323	
1465357624913049	0.33082876	-0.12847017	-0.76590466	0.5361323	
1465357634922815	0.32929036	-0.12808244	-0.7656264	0.5375677	
1465357644932581	0.32679862	-0.12724511	-0.7656782	0.53921074	
1465357654911829	0.32339573	-0.1259609	-0.7662919	0.5406901	
1465357674900842	0.31437886	-0.120772384	-0.7677256	0.54513973	
1465357674900842	0.31437886	-0.120772384	-0.7677256	0.54513973	
1465357684910608	0.30853114	-0.11736408	-0.7685519	0.5480531	
1465357694889856	0.3017129	-0.11410453	-0.7698228	0.55074704	
1465357704899622	0.29423806	-0.11080308	-0.77122265	0.55350006	
1465357714878870	0.28637138	-0.10756072	-0.77305746	0.5557016	
1465357724888635	0.27845708	-0.10397758	-0.77461284	0.5582341	
1465357734898401	0.27069762	-0.100161724	-0.77588737	0.5609717	
1465357744877649	0.26353747	-0.09579491	-0.7762232	0.5646671	
1465357754887415	0.25718638	-0.09095048	-0.7757379	0.5690465	
1465357764866663	0.25167036	-0.08585182	-0.77434677	0.57417643	
1465357784886194	0.24199274	-0.07734927	-0.77021915	0.5849949	
1465357784886194	0.24199274	-0.07734927	-0.77021915	0.5849949	
1465357794895960	0.23740396	-0.07511835	-0.76810867	0.58992004	
1465357804905725	0.23286186	-0.07444516	-0.76586837	0.5947091	
1465357814884973	0.22822374	-0.07558212	-0.76411307	0.5986088	
1465357824864221	0.22342958	-0.07828983	-0.7622598	0.6024201	
1465357834843469	0.21838865	-0.08263652	-0.7606556	0.60570675	
1465357844853235	0.2132649	-0.08824054	-0.7589601	0.6088606	
1465357854863001	0.20829704	-0.094678566	-0.75740904	0.61153895	
1465357864872766	0.20380007	-0.10131366	-0.7557035	0.61409545	
1465357874852014	0.19998349	-0.10772356	-0.7540047	0.6163434	
1465357884861780	0.19699328	-0.11362097	-0.7525147	0.61806595	
1465357894841028	0.19505192	-0.118583225	-0.7509188	0.6196884	
1465357914830042	0.19436097	-0.12614843	-0.7478986	0.6220596	
1465357914830042	0.19436097	-0.12614843	-0.7478986	0.6220596	
1465357924809290	0.19530007	-0.12940419	-0.7463883	0.62291	
1465357934819055	0.19689901	-0.13275057	-0.74483883	0.62355685	
1465357944828821	0.19915007	-0.13628045	-0.74331796	0.6238952	
1465357954808069	0.2021254	-0.13990557	-0.74164355	0.62412864	
1465357964817835	0.20577693	-0.14357905	-0.74001014	0.62404	
1465357984806848	0.21453221	-0.15012419	-0.7367132	0.62345195	
1465357984806848	0.21453221	-0.15012419	-0.7367132	0.62345195	
1465357994786096	0.21930149	-0.15272656	-0.73507434	0.62309486	
1465358004795862	0.22414334	-0.15494616	-0.73361295	0.62254596	
1465358014805628	0.22884075	-0.1568281	-0.7322452	0.6219757	
1465358024784876	0.23310721	-0.15851614	-0.73107374	0.62134117	
1465358034794641	0.23667978	-0.16008459	-0.72984487	0.6210331	
1465358044804407	0.2390818	-0.16179088	-0.7288243	0.6208693	
1465358054783655	0.24006818	-0.16366372	-0.72777	0.6212345	
1465358064793421	0.23941214	-0.16590989	-0.72703356	0.62175393	
1465358074772669	0.237225	-0.16841999	-0.7264654	0.62258095	
1465358084782434	0.2337529	-0.17104128	-0.72628456	0.62339	
1465358094761682	0.22946288	-0.1734271	-0.72641593	0.62417126	
1465358104771448	0.22468194	-0.17545249	-0.7268721	0.6248131	
1465358124790979	0.214671	-0.1784422	-0.72811264	0.6260405	
1465358124790979	0.214671	-0.1784422	-0.72811264	0.6260405	
1465358134770227	0.20959328	-0.17956641	-0.72830135	0.627219	
1465358144779993	0.20414518	-0.18080883	-0.7284183	0.62852186	
1465358154759241	0.19829114	-0.18205112	-0.72820973	0.63027656	
1465358164769006	0.19198993	-0.18317991	-0.7281615	0.63195395	
1465358184758020	0.1790157	-0.18398318	-0.7282028	0.63547164	
1465358194767786	0.17288935	-0.18346865	-0.72830206	0.63720065	
1465358194767786	0.17288935	-0.18346865	-0.72830206	0.63720065	
1465358204777551	0.16732989	-0.18243624	-0.72859555	0.6386441	
1465358214756799	0.1626585	-0.18092743	-0.72883445	0.6400061	
1465358224766565	0.15905191	-0.17896278	-0.7291529	0.64110124	
1465358234745813	0.15677282	-0.17643484	-0.7292115	0.64229554	
1465358244755579	0.15573163	-0.17326985	-0.72929317	0.6433169	
1465358254765344	0.15605626	-0.16910674	-0.72897583	0.6447042	
1465358264744592	0.15747467	-0.164121	-0.7288082	0.6458364	
1465358274754358	0.15974702	-0.15825549	-0.72853535	0.6470489	
1465358284733606	0.16244471	-0.15161164	-0.72902554	0.64741594	
1465358294743372	0.16511582	-0.1445237	-0.7296492	0.64765865	
1465358304753137	0.1666667	-0.13845319	-0.7310879	0.6469648	
1465358314762903	0.16655582	-0.1343063	-0.7325525	0.64621025	
1465358334721399	0.161313	-0.13292113	-0.7364554	0.64338446	
1465358334721399	0.161313	-0.13292113	-0.7364554	0.64338446	
1465358344731165	0.15767102	-0.13425897	-0.73860306	0.64154494	
1465358354710413	0.154394	-0.1357267	-0.74025756	0.64012456	
1465358364720178	0.15172751	-0.1370784	-0.741905	0.638565	
1465358374729944	0.15006334	-0.13789696	-0.74307764	0.6374175	
1465358384739710	0.14944345	-0.13816649	-0.74442595	0.6359298	
1465358394718958	0.1497002	-0.13787593	-0.74531823	0.63488644	
1465358404728723	0.1502239	-0.13738343	-0.7464509	0.6335374	
1465358414738489	0.15079527	-0.13676485	-0.74731123	0.63252044	
1465358424717737	0.15095778	-0.13630928	-0.7482914	0.63142025	
1465358434696985	0.15062726	-0.13594422	-0.7490434	0.63068575	
1465358444706751	0.14976217	-0.13575347	-0.7499192	0.62989163	
1465358454685999	0.14858806	-0.13564166	-0.75049853	0.6295037	
1465358464695764	0.14711787	-0.13575593	-0.7513826	0.62876934	
1465358484684778	0.14428107	-0.13616692	-0.7527032	0.62775743	
1465358484684778	0.14428107	-0.13616692	-0.7527032	0.62775743	
1465358494694544	0.1431007	-0.13639171	-0.75320685	0.62737465	
1465358504673792	0.14205813	-0.13663918	-0.75408393	0.62650347	
1465358514683557	0.1412107	-0.13677748	-0.7545434	0.62611157	
1465358534703089	0.13924567	-0.13735428	-0.7554509	0.6253306	
1465358534703089	0.13924567	-0.13735428	-0.7554509	0.6253306	
1465358544682337	0.13835962	-0.13778912	-0.7557305	0.6250937	
1465358554661585	0.13782279	-0.13822494	-0.75566256	0.62519825	
1465358564671350	0.13756087	-0.13863237	-0.7556372	0.62519634	
1465358574650598	0.13749847	-0.13888858	-0.75529927	0.6255614	
1465358584629846	0.13734293	-0.13919573	-0.7551512	0.62570614	
1465358594639612	0.13710685	-0.1394344	-0.7546411	0.6263198	
1465358604649378	0.13669413	-0.13961041	-0.7544675	0.62658	
1465358614628626	0.13632925	-0.13964689	-0.75404805	0.62715596	
1465358634648157	0.13520935	-0.14089942	-0.75392383	0.62726766	
1465358634648157	0.13520935	-0.14089942	-0.75392383	0.62726766	
1465358644627405	0.13403149	-0.14273426	-0.754179	0.6267986	
1465358654637171	0.13280793	-0.14502415	-0.753458	0.6274002	
1465358664616419	0.13153158	-0.1476509	-0.75293505	0.6276842	
1465358674626184	0.13057965	-0.1501151	-0.75171614	0.6287585	
1465358694615198	0.12947929	-0.1543343	-0.7488139	0.631422	
1465358694615198	0.12947929	-0.1543343	-0.7488139	0.631422	
1465358704624964	0.12928441	-0.15592515	-0.74712825	0.63306576	
1465358714604212	0.12932445	-0.15695477	-0.74502426	0.6352789	
1465358724613977	0.12916175	-0.15763196	-0.7432147	0.63726074	
1465358744602991	0.12720999	-0.1581833	-0.7397686	0.64151233	
1465358744602991	0.12720999	-0.1581833	-0.7397686	0.64151233	
1465358754612756	0.12533602	-0.15796478	-0.7380658	0.643892	
1465358764592005	0.12305002	-0.15732753	-0.7368244	0.6459076	
1465358774601770	0.12085609	-0.1558363	-0.7353601	0.64834744	
1465358784581018	0.11884279	-0.15319686	-0.7345634	0.65024894	
1465358794590784	0.117050506	-0.14901601	-0.7335778	0.6526538	
1465358804600549	0.11483861	-0.1436964	-0.7333172	0.65452987	
1465358824589563	0.10820831	-0.13215451	-0.7329107	0.65853477	
1465358824589563	0.10820831	-0.13215451	-0.7329107	0.65853477	
1465358834599329	0.1035967	-0.12772883	-0.7327132	0.6603669	
1465358844609094	0.09843744	-0.12501857	-0.7331604	0.66117793	
1465358854588342	0.09357227	-0.12388403	-0.7333916	0.6618412	
1465358874577356	0.086842716	-0.12541425	-0.73429555	0.66146785	
1465358874577356	0.086842716	-0.12541425	-0.73429555	0.66146785	
1465358884587122	0.08565094	-0.1274797	-0.73477685	0.6606934	
1465358894596887	0.08596813	-0.12997346	-0.73459953	0.6603635	
1465358904576135	0.08720819	-0.13279209	-0.73455316	0.6596913	
1465358914585901	0.08908015	-0.1355008	-0.7338579	0.65966415	
1465358924565149	0.09107606	-0.13777553	-0.7333872	0.659444	
1465358934574915	0.093163565	-0.13917917	-0.7326744	0.65964985	
1465358944584680	0.095056355	-0.13957316	-0.7327254	0.6592398	
1465358954594446	0.09681058	-0.13866977	-0.73255575	0.6593637	
1465358964573694	0.09786704	-0.13685656	-0.73316234	0.6589122	
1465358974552942	0.09805976	-0.13446102	-0.73362565	0.65886104	
1465358984562708	0.09709259	-0.1320075	-0.7346589	0.658349	
1465358994572473	0.095083736	-0.12995616	-0.735351	0.6582776	
1465359004582239	0.09191772	-0.1289447	-0.7363146	0.65784895	
1465359014561487	0.08809822	-0.1289722	-0.7366049	0.65804106	
1465359024540735	0.08390746	-0.13000114	-0.7367966	0.6581717	
1465359034550501	0.07984051	-0.13179803	-0.7361882	0.6590006	
1465359044560266	0.07607399	-0.1342522	-0.7357119	0.6594825	
1465359054539514	0.07295725	-0.13704243	-0.73469365	0.6603952	
1465359064549280	0.07033228	-0.14009771	-0.7341866	0.6606028	
1465359074528528	0.068359114	-0.14306	-0.7333475	0.6611069	
1465359084538294	0.066700734	-0.14587155	-0.7329065	0.6611509	
1465359094548059	0.065258205	-0.14833272	-0.732274	0.66144806	
1465359114537073	0.06199411	-0.1518134	-0.7316199	0.6616961	
1465359114537073	0.06199411	-0.1518134	-0.7316199	0.6616961	
1465359124516321	0.059924126	-0.15295295	-0.73156476	0.66168535	
1465359134526087	0.05771761	-0.15386184	-0.731215	0.6620573	
1465359144535852	0.05537839	-0.15477331	-0.73136055	0.66188383	
1465359164524866	0.051265825	-0.15706751	-0.73183215	0.661153	
1465359164524866	0.051265825	-0.15706751	-0.73183215	0.661153	
1465359174504114	0.049837217	-0.15864839	-0.73226017	0.66041046	
1465359194493128	0.04889143	-0.16245082	-0.73424447	0.65734655	
1465359194493128	0.04889143	-0.16245082	-0.73424447	0.65734655	
1465359204502893	0.049435727	-0.16415066	-0.73588794	0.65504164	
1465359214512659	0.050615687	-0.165433	-0.7370982	0.6532658	
1465359224491907	0.05175385	-0.16653155	-0.7386267	0.6511677	
1465359244511438	0.05217936	-0.1692852	-0.74099433	0.6477247	
1465359244511438	0.05217936	-0.1692852	-0.74099433	0.6477247	
1465359254490686	0.05088969	-0.17131242	-0.7426502	0.6453936	
1465359264500452	0.04718388	-0.17604898	-0.7456277	0.6409522	
1465359274510217	0.04718388	-0.17604898	-0.7456277	0.6409522	
1465359284489465	0.04572058	-0.17799465	-0.7469922	0.63892895	
1465359294468714	0.04458085	-0.17943047	-0.74861825	0.6367008	
1465359304447962	0.04391146	-0.180135	-0.7498974	0.63504094	
1465359314457727	0.04374949	-0.17967604	-0.75138915	0.63341683	
1465359324467493	0.044194486	-0.17783752	-0.7528241	0.63219976	
1465359334477258	0.04492599	-0.17489775	-0.7547912	0.63062084	
1465359344456506	0.045609407	-0.1714109	-0.7568622	0.629045	
1465359354466272	0.045464255	-0.16822255	-0.7595229	0.62670493	
1465359364445520	0.04434446	-0.16605102	-0.7621865	0.62412524	
1465359374455286	0.042080462	-0.1655086	-0.76521474	0.6207113	
1465359384465051	0.03930554	-0.16656673	-0.76759815	0.61765987	
1465359394444299	0.036671072	-0.16863091	-0.7699022	0.61438537	
1465359404454065	0.035068262	-0.17093064	-0.77151847	0.61181056	
1465359424443079	0.036089882	-0.17377517	-0.77433234	0.6073789	
1465359424443079	0.036089882	-0.17377517	-0.77433234	0.6073789	
1465359434452844	0.03828892	-0.17388164	-0.7758127	0.6053212	
1465359454441858	0.042865515	-0.172791	-0.77882075	0.60145164	
1465359454441858	0.042865515	-0.172791	-0.77882075	0.60145164	
1465359464451624	0.04400179	-0.17221218	-0.7803566	0.5995418	
1465359474430872	0.04405042	-0.17161986	-0.7822433	0.597245	
1465359484440637	0.043516975	-0.17090523	-0.78413683	0.59500176	
1465359494419885	0.042725597	-0.17013548	-0.7861173	0.5926618	
1465359504429651	0.04196691	-0.16944292	-0.78791505	0.59052324	
1465359514439417	0.041343078	-0.16905828	-0.78954023	0.58850336	
1465359524418665	0.04090132	-0.16912827	-0.7908397	0.58676684	
1465359534428430	0.040645182	-0.16966766	-0.7920403	0.5850069	
1465359554417444	0.041208908	-0.17175905	-0.79383814	0.5819121	
1465359554417444	0.041208908	-0.17175905	-0.79383814	0.5819121	
1465359564427210	0.042158827	-0.1732862	-0.7945455	0.580424	
1465359574406458	0.043504577	-0.175078	-0.7952512	0.57881826	
1465359584416223	0.045211848	-0.17692398	-0.7958966	0.5772369	
1465359594425989	0.04718084	-0.17853959	-0.796447	0.5758209	
1465359604405237	0.04922339	-0.17973216	-0.796916	0.57462883	
1465359614384485	0.051077124	-0.18041447	-0.79740846	0.57356906	
1465359624394251	0.052655816	-0.18049017	-0.79769605	0.57300234	
1465359634404016	0.053859014	-0.1800095	-0.79810065	0.57247806	
1465359644383264	0.05458406	-0.17930098	-0.7984968	0.57207924	
1465359654393030	0.054484867	-0.17878503	-0.79911363	0.5713884	
1465359664372278	0.05346541	-0.1786779	-0.79981995	0.57052934	
1465359674382044	0.051830195	-0.1790042	-0.80067056	0.5693836	
1465359684391809	0.050147377	-0.17969537	-0.80154437	0.56808573	
1465359694371057	0.04887558	-0.1806496	-0.80237657	0.5667175	
1465359704380823	0.048373334	-0.18183383	-0.8028369	0.5657291	
1465359714360071	0.04864679	-0.18339512	-0.80305177	0.56489605	
1465359724369837	0.049693596	-0.18548498	-0.8028256	0.5644439	
1465359734349085	0.051252134	-0.18814677	-0.8024449	0.5639648	
1465359754368616	0.05552845	-0.19511797	-0.8010542	0.56316763	
1465359754368616	0.05552845	-0.19511797	-0.8010542	0.56316763	
1465359764347864	0.05802167	-0.19943379	-0.80001974	0.5628748	
1465359774357630	0.060666084	-0.20405643	-0.7988161	0.5626486	
1465359784367395	0.063318	-0.20864777	-0.7975739	0.56243473	
1465359794346643	0.0659572	-0.21282211	-0.79626894	0.5624163	
1465359814335657	0.07122411	-0.21848309	-0.7936156	0.563353	
1465359814335657	0.07122411	-0.21848309	-0.7936156	0.563353	
1465359824345422	0.07377253	-0.21933912	-0.79253983	0.5642061	
1465359834355188	0.07595819	-0.21889916	-0.79184556	0.5650612	
1465359844334436	0.077553116	-0.21745229	-0.79151195	0.56587	
1465359864323450	0.079237856	-0.21265116	-0.7919317	0.5668731	
1465359864323450	0.079237856	-0.21265116	-0.7919317	0.5668731	
1465359874333215	0.07984701	-0.20979391	-0.792409	0.5671851	
1465359884312464	0.080477834	-0.20708172	-0.7930572	0.5671867	
1465359894322229	0.08148291	-0.20461032	-0.7936219	0.5671503	
1465359904331995	0.08307565	-0.20242275	-0.79410404	0.5670293	
1465359914311243	0.085274674	-0.2004552	-0.7946179	0.56668186	
1465359924290491	0.08798357	-0.19847059	-0.795246	0.5660849	
1465359934300256	0.09104705	-0.19632664	-0.796129	0.56510615	
1465359944310022	0.09425701	-0.19404912	-0.79731274	0.5636958	
1465359964329553	0.1009714	-0.18954514	-0.8005951	0.5593969	
1465359964329553	0.1009714	-0.18954514	-0.8005951	0.5593969	
1465359974308801	0.10487946	-0.18758273	-0.8026197	0.5564303	
1465359984288049	0.109515086	-0.18583627	-0.80493176	0.5527714	
1465359994297815	0.11515411	-0.18412894	-0.807358	0.54864293	
1465360014286829	0.12949272	-0.18022949	-0.8121329	0.5396194	
1465360014286829	0.12949272	-0.18022949	-0.8121329	0.5396194	
1465360024296594	0.1382336	-0.17789759	-0.81448793	0.53465253	
1465360034306360	0.14796156	-0.17534286	-0.8167327	0.529443	
1465360044316126	0.15866524	-0.17271325	-0.8187984	0.5239891	
1465360054295374	0.17029862	-0.17035913	-0.82060933	0.5182436	
1465360064305139	0.18277426	-0.16870691	-0.8219524	0.51237273	
1465360084294153	0.20865504	-0.16859952	-0.82343876	0.49998584	
1465360084294153	0.20865504	-0.16859952	-0.82343876	0.49998584	
1465360094273401	0.22119178	-0.16964138	-0.8236459	0.49386585	
1465360114262415	0.24399439	-0.17119488	-0.8242648	0.4814006	
1465360114262415	0.24399439	-0.17119488	-0.8242648	0.4814006	
1465360124272180	0.2539967	-0.17102034	-0.82448983	0.47587204	
1465360134281946	0.26294664	-0.17012663	-0.8243822	0.4714976	
1465360144261194	0.27079242	-0.16859826	-0.82420236	0.4679066	
1465360164250208	0.28295788	-0.16367862	-0.8241144	0.4625793	
1465360164250208	0.28295788	-0.16367862	-0.8241144	0.4625793	
1465360174259973	0.2868317	-0.16031092	-0.82470983	0.46030608	
1465360184269739	0.28899705	-0.15634052	-0.82610273	0.4578129	
1465360194248987	0.28946775	-0.15171583	-0.82824653	0.4551905	
1465360214268518	0.28683877	-0.14027503	-0.8340409	0.44991356	
1465360214268518	0.28683877	-0.14027503	-0.8340409	0.44991356	
1465360224247766	0.28489012	-0.13356371	-0.836916	0.44785035	
1465360234257532	0.28318432	-0.1262536	-0.83927625	0.44663414	
1465360244236780	0.28177196	-0.11854903	-0.841023	0.44635296	
1465360264225794	0.2784794	-0.10143417	-0.84315765	0.44860396	
1465360264225794	0.2784794	-0.10143417	-0.84315765	0.44860396	
1465360274235559	0.277119	-0.09310588	-0.84351784	0.4505708	
1465360284214807	0.27546784	-0.08576637	-0.84387136	0.4523746	
1465360294224573	0.27365547	-0.07928852	-0.8443562	0.4537496	
1465360304203821	0.27191484	-0.07357055	-0.84491974	0.45470908	
1465360314213587	0.27011755	-0.06858083	-0.84549594	0.45548856	
1465360324223352	0.26811734	-0.06429085	-0.846105	0.4561646	
1465360334233118	0.26587558	-0.060441375	-0.84661436	0.45705706	
1465360344212366	0.26346382	-0.056941755	-0.8470088	0.45817086	
1465360364201380	0.25964388	-0.05111135	-0.84735423	0.46039495	
1465360364201380	0.25964388	-0.05111135	-0.84735423	0.46039495	
1465360374211145	0.25836903	-0.049084675	-0.8475616	0.46095064	
1465360384220911	0.2574223	-0.047712587	-0.84781927	0.46115044	
1465360394200159	0.25660813	-0.0471079	-0.8482933	0.46079457	
1465360414219690	0.25519365	-0.047110498	-0.84963053	0.45911303	
1465360414219690	0.25519365	-0.047110498	-0.84963053	0.45911303	
1465360424198938	0.25486466	-0.046760276	-0.8503361	0.45802408	
1465360444187952	0.256471	-0.04317165	-0.85109526	0.45606548	
1465360444187952	0.256471	-0.04317165	-0.85109526	0.45606548	
1465360454197717	0.25885394	-0.039832536	-0.85079855	0.45557642	
1465360464207483	0.26208627	-0.03615503	-0.850152	0.45524186	
1465360474186731	0.2657506	-0.032708466	-0.8491815	0.45518965	
1465360484165979	0.269526	-0.029881375	-0.8479732	0.45541662	
1465360494175745	0.2731614	-0.027819054	-0.84650373	0.45611444	
1465360504154993	0.2764074	-0.02676022	-0.8450701	0.45688	
1465360514164758	0.27916434	-0.02654606	-0.8434872	0.4581397	
1465360524144006	0.28142408	-0.027174342	-0.8419921	0.45946854	
1465360534153772	0.28333127	-0.028259592	-0.84036374	0.4612088	
1465360544163538	0.28508028	-0.029514631	-0.8387495	0.46298745	
1465360554173303	0.28689587	-0.030419303	-0.8369527	0.46505442	
1465360564152551	0.2888788	-0.030789642	-0.83511865	0.46709517	
1465360574162317	0.2910733	-0.030454563	-0.8331002	0.4693537	
1465360584141565	0.29338884	-0.029643955	-0.8311541	0.47140965	
1465360594151331	0.2957518	-0.02838132	-0.8290113	0.47377804	
1465360604161096	0.29793653	-0.027136708	-0.8271092	0.47580224	
1465360614170862	0.2998024	-0.02606202	-0.82533634	0.47776484	
1465360624150110	0.30120623	-0.025397744	-0.8236646	0.47979823	
1465360634129358	0.30210054	-0.025510488	-0.8224465	0.48131716	
1465360644108606	0.30256844	-0.026235096	-0.8214195	0.4827361	
1465360664097620	0.30282852	-0.029446112	-0.8204807	0.48398265	
1465360664097620	0.30282852	-0.029446112	-0.8204807	0.48398265	
1465360674107385	0.3030182	-0.031467624	-0.8203684	0.48392704	
1465360694096399	0.30435535	-0.035083596	-0.81981957	0.4837694	
1465360694096399	0.30435535	-0.035083596	-0.81981957	0.4837694	
1465360714115930	0.30748418	-0.03771672	-0.81865764	0.48356038	
1465360714115930	0.30748418	-0.03771672	-0.81865764	0.48356038	
1465360724095178	0.30963126	-0.038503047	-0.8177017	0.48374578	
1465360734104944	0.31195542	-0.039202046	-0.816871	0.4835998	
1465360744084192	0.31427398	-0.03969456	-0.81589484	0.48370636	
1465360764073206	0.31829548	-0.040516213	-0.81403714	0.48413834	
1465360764073206	0.31829548	-0.040516213	-0.81403714	0.48413834	
1465360774082971	0.31988966	-0.040913768	-0.81331134	0.484274	
1465360784062219	0.32132292	-0.040965375	-0.8123925	0.48486274	
1465360794071985	0.32264465	-0.040952865	-0.8117385	0.48508134	
1465360804081751	0.32389623	-0.04064216	-0.8109956	0.4855158	
1465360814060999	0.32514018	-0.040200606	-0.8103574	0.4857866	
1465360824070764	0.3264633	-0.039447367	-0.809521	0.4863552	
1465360834050012	0.3278381	-0.03861676	-0.80888104	0.48656183	
1465360844059778	0.3293696	-0.03732651	-0.80797017	0.48714128	
1465360854069544	0.3310905	-0.035843935	-0.8072999	0.48719728	
1465360874058557	0.33541816	-0.031069782	-0.80545986	0.48761028	
1465360874058557	0.33541816	-0.031069782	-0.80545986	0.48761028	
1465360884068323	0.33806843	-0.02754721	-0.8042181	0.48804107	
1465360894047571	0.3409744	-0.023502044	-0.80313236	0.488019	
1465360904057337	0.34405988	-0.018521542	-0.801678	0.48845896	
1465360914067102	0.34706208	-0.012914589	-0.8002404	0.4888726	
1465360924046350	0.3497301	-0.006464605	-0.798399	0.49010828	
1465360934025598	0.3518553	2.9365777E-4	-0.79671884	0.4913622	
1465360944035364	0.35326394	0.007341655	-0.7948972	0.4932435	
1465360964024378	0.3536883	0.020526674	-0.7925379	0.49635357	
1465360964024378	0.3536883	0.020526674	-0.7925379	0.49635357	
1465360974034143	0.35280195	0.026621703	-0.7921577	0.49730092	
1465360984013391	0.35129127	0.032507285	-0.79203874	0.49820912	
1465360994023157	0.34943885	0.037979428	-0.79245305	0.49846584	
1465361004032922	0.34746072	0.043546226	-0.79262275	0.49912322	
1465361014012171	0.3454404	0.0488235	-0.7929586	0.4995036	
1465361024021936	0.34316754	0.05411394	-0.79276454	0.50083137	
1465361044010950	0.3378302	0.06281963	-0.7913635	0.5056366	
1465361044010950	0.3378302	0.06281963	-0.7913635	0.5056366	
1465361054020715	0.33509183	0.06558431	-0.790208	0.5089042	
1465361064030481	0.33261687	0.06740599	-0.7884893	0.5129397	
1465361074009729	0.3307068	0.0681065	-0.78682053	0.51663136	
1465361084019495	0.32933044	0.06820505	-0.78480864	0.5205429	
1465361094029260	0.3285748	0.06746146	-0.7831698	0.52357674	
1465361104008508	0.3283635	0.066445105	-0.7813553	0.5265418	
1465361114018274	0.328732	0.06496702	-0.7799756	0.52853817	
1465361123997522	0.32955775	0.06365258	-0.7783482	0.5305791	
1465361134007288	0.33084866	0.062079083	-0.7772321	0.53159726	
1465361144017053	0.33237675	0.06054832	-0.77601796	0.53259337	
1465361153996301	0.33408228	0.058643475	-0.7752172	0.5329055	
1465361164006067	0.33580667	0.056701787	-0.7741694	0.5335546	
1465361173985315	0.3375194	0.054251622	-0.7736061	0.5335457	
1465361183995081	0.3390309	0.051689588	-0.7728287	0.5339682	
1465361194004846	0.34029454	0.0486488	-0.77239573	0.5340765	
1465361203984094	0.34118116	0.045505587	-0.77158856	0.53495395	
1465361223973108	0.34182844	0.0373126	-0.7708812	0.5361934	
1465361223973108	0.34182844	0.0373126	-0.7708812	0.5361934	
1465361233982874	0.341531	0.032335836	-0.77078766	0.53684014	
1465361243992639	0.34086528	0.02724245	-0.7703964	0.538106	
1465361254002405	0.33998448	0.02162543	-0.7705067	0.53876	
1465361263981653	0.33889896	0.01598965	-0.770407	0.5397822	
1465361273960901	0.33760014	0.010141061	-0.7705605	0.5405181	
1465361283970667	0.33608106	0.0047013215	-0.7703162	0.541886	
1465361293980432	0.33441687	-4.5612248E-4	-0.77026904	0.54300165	
1465361303959680	0.3326981	-0.0047340994	-0.76971626	0.5448178	
1465361313969446	0.33102548	-0.008443097	-0.76926833	0.546422	
1465361323948694	0.3295257	-0.011046818	-0.76821226	0.54876286	
1465361333958460	0.32813668	-0.013014195	-0.7674379	0.5506324	
1465361343968225	0.32675266	-0.013929134	-0.7662903	0.5530261	
1465361353947473	0.32530284	-0.014445097	-0.7657916	0.55455625	
1465361373967005	0.3220148	-0.013964834	-0.765289	0.5571752	
1465361373967005	0.3220148	-0.013964834	-0.765289	0.5571752	
1465361383946253	0.32012522	-0.0132192	-0.7652649	0.55831414	
1465361393956018	0.31810117	-0.012411938	-0.7657275	0.55885506	
1465361403935266	0.31608537	-0.01108498	-0.76591796	0.559765	
1465361413945032	0.31413478	-0.009585447	-0.7665373	0.56004286	
1465361423924280	0.3123391	-0.0073693227	-0.7667108	0.5608427	
1465361433934046	0.31070346	-0.004757618	-0.76714545	0.56118494	
1465361443943811	0.30926487	-0.0013540017	-0.7671674	0.5619676	
1465361453953577	0.3080474	0.0024326805	-0.7674819	0.5622031	
1465361463932825	0.30713713	0.006972054	-0.7674316	0.5627316	
1465361473912073	0.30661303	0.011851166	-0.7678294	0.5623931	
1465361483921839	0.30652973	0.017487109	-0.7678601	0.56224954	
1465361493931604	0.30683702	0.023208918	-0.76836264	0.5611873	
1465361503910852	0.30730096	0.029281443	-0.7684753	0.56049484	
1465361513920618	0.30766538	0.035268	-0.7690958	0.55909735	
1465361523899866	0.30765766	0.041660927	-0.7694633	0.5581553	
1465361533909631	0.30720922	0.048082206	-0.7705118	0.5564371	
1465361543888880	0.30620918	0.054736946	-0.7715827	0.55488724	
1465361553898645	0.30485728	0.061007246	-0.77358705	0.55218047	
1465361573918176	0.3017812	0.071542524	-0.77878517	0.54525536	
1465361573918176	0.3017812	0.071542524	-0.77878517	0.54525536	
1465361583927942	0.30053255	0.07437197	-0.7821246	0.54076815	
1465361593907190	0.29970726	0.07471405	-0.78623056	0.5351961	
1465361603886438	0.29930162	0.07300477	-0.7901267	0.529895	
1465361613896204	0.29953507	0.06914864	-0.7943106	0.52399224	
1465361623875452	0.30040795	0.0642884	-0.7976741	0.5189779	
1465361633885217	0.30206913	0.058647513	-0.8008154	0.51381844	
1465361643864465	0.30443946	0.053140443	-0.80300206	0.5095884	
1465361653874231	0.30759618	0.047831666	-0.8048278	0.5053206	
1465361663883997	0.31142437	0.043351978	-0.8059407	0.5015925	
1465361673863245	0.31572467	0.03969788	-0.80680513	0.49780264	
1465361683873010	0.3201718	0.03706029	-0.80715984	0.49458018	
1465361693882776	0.324455	0.03488949	-0.80771005	0.49103582	
1465361703862024	0.3282497	0.033376724	-0.80789953	0.48829952	
1465361713871790	0.33145803	0.03182103	-0.8084339	0.48534283	
1465361723851038	0.33394358	0.030396076	-0.80869037	0.48329872	
1465361733860803	0.33574182	0.028424561	-0.8092247	0.48127422	
1465361743840051	0.33690915	0.026189921	-0.80936855	0.48034245	
1465361753849817	0.33764026	0.023194546	-0.8097338	0.47936645	
1465361773838831	0.33847666	0.016009264	-0.8099724	0.47866684	
1465361773838831	0.33847666	0.016009264	-0.8099724	0.47866684	
1465361783848596	0.33877203	0.01191475	-0.809803	0.47886384	
1465361793858362	0.33910033	0.007232309	-0.8098907	0.4785768	
1465361803837610	0.33946425	0.002401397	-0.80966264	0.4787532	
1465361813816858	0.33987713	-0.002866303	-0.80962634	0.4785191	
1465361823826624	0.3404385	-0.00792363	-0.8091155	0.4789268	
1465361833836389	0.34125125	-0.01299781	-0.8087906	0.47878632	
1465361843815637	0.34238717	-0.017411266	-0.8079373	0.4792756	
1465361853794885	0.34383824	-0.021506462	-0.80716133	0.479378	
1465361863804651	0.3455681	-0.024776682	-0.8057621	0.48032928	
1465361873814417	0.34743184	-0.02781251	-0.80453956	0.4808676	
1465361883824182	0.349357	-0.030122425	-0.8027848	0.48226437	
1465361893833948	0.35119653	-0.032344766	-0.801294	0.4832625	
1465361913822962	0.35431722	-0.035736613	-0.79777074	0.4865635	
1465361913822962	0.35431722	-0.035736613	-0.79777074	0.4865635	
1465361923802210	0.35558173	-0.03677175	-0.79577994	0.48881876	
1465361933811975	0.35666552	-0.037609898	-0.7941827	0.4905599	
1465361943821741	0.3576198	-0.03772548	-0.7923158	0.4928697	
1465361953800989	0.35840917	-0.0374342	-0.7906549	0.4949812	
1465361963780237	0.35908997	-0.036291156	-0.78859574	0.4978495	
1465361973790003	0.35965893	-0.034754086	-0.78678626	0.5004049	
1465361983799768	0.36012882	-0.03250112	-0.7848611	0.50323355	
1465361993809534	0.36044952	-0.029305685	-0.78262085	0.5066773	
1465362003788782	0.36045876	-0.02553817	-0.78067577	0.5098653	
1465362013798547	0.36003757	-0.020807372	-0.7785675	0.513588	
1465362033787561	0.35762355	-0.009428287	-0.7753269	0.52046585	
1465362033787561	0.35762355	-0.009428287	-0.7753269	0.52046585	
1465362043766809	0.35567507	-0.002626349	-0.7741242	0.52366024	
1465362053776575	0.35324636	0.0052706497	-0.77289027	0.5270957	
1465362063786340	0.3502271	0.01377357	-0.7724091	0.529656	
1465362083775354	0.34133178	0.03336196	-0.7719408	0.53524476	
1465362083775354	0.34133178	0.03336196	-0.7719408	0.53524476	
1465362093785120	0.3350688	0.043987058	-0.77171385	0.53875023	
1465362103764368	0.32763398	0.054356363	-0.77164733	0.54245895	
1465362113774133	0.31907448	0.06440994	-0.77080715	0.54763055	
1465362133763147	0.30027264	0.07944611	-0.7686523	0.5591943	
1465362133763147	0.30027264	0.07944611	-0.7686523	0.5591943	
1465362143772913	0.2908159	0.08350481	-0.76775765	0.564802	
1465362153782678	0.28185403	0.08560084	-0.7666507	0.5705064	
1465362163761926	0.27394256	0.0857556	-0.766081	0.5750838	
1465362183750940	0.2618246	0.082737304	-0.7650613	0.5824806	
1465362183750940	0.2618246	0.082737304	-0.7650613	0.5824806	
1465362193730188	0.25775084	0.080264	-0.7643931	0.58551294	
1465362203739954	0.25501904	0.0772946	-0.7639933	0.58762664	
1465362213749719	0.25334638	0.07434744	-0.7631108	0.58987284	
1465362233738733	0.2525808	0.06818228	-0.7614292	0.5931102	
1465362233738733	0.2525808	0.06818228	-0.7614292	0.5931102	
1465362243717981	0.2531984	0.06515655	-0.7607439	0.5940656	
1465362253727747	0.25423223	0.062523216	-0.7596415	0.59531635	
1465362263737512	0.25552875	0.059904095	-0.7589246	0.59594464	
1465362273716760	0.2567066	0.05752719	-0.75781333	0.59708565	
1465362283696008	0.2576295	0.05491393	-0.75708234	0.59786105	
1465362293705774	0.25808784	0.05226635	-0.75592667	0.5993611	
1465362303715540	0.2581611	0.0490686	-0.7552711	0.6004254	
1465362313694788	0.25783232	0.04558476	-0.7543734	0.60196793	
1465362323704553	0.25721604	0.041532326	-0.75380737	0.6032325	
1465362333714319	0.25641042	0.03729378	-0.7529493	0.60492164	
1465362343693567	0.25563493	0.032842435	-0.7523785	0.6062167	
1465362353703333	0.2549252	0.028544636	-0.7514555	0.6078758	
1465362363682581	0.2543724	0.024248939	-0.7507446	0.6091709	
1465362373692346	0.25397277	0.02028248	-0.7496294	0.6108537	
1465362393681360	0.25382864	0.01337927	-0.7466857	0.6146971	
1465362393681360	0.25382864	0.01337927	-0.7466857	0.6146971	
1465362403691126	0.25417334	0.010048712	-0.7447291	0.61698747	
1465362413670374	0.25476652	0.0065520727	-0.74178714	0.6203249	
1465362423680139	0.25543934	0.002338594	-0.7383006	0.6242255	
1465362433659387	0.25609684	-0.002244945	-0.7334422	0.6296602	
1465362443669153	0.25677976	-0.0074334242	-0.7282952	0.6352913	
1465362453678919	0.25740582	-0.0127942525	-0.7224623	0.6415815	
1465362463658167	0.2578125	-0.018726863	-0.71729636	0.64704555	
1465362473667932	0.2579121	-0.024941795	-0.7122569	0.6523414	
1465362483677698	0.25760287	-0.03150392	-0.7082127	0.6565692	
1465362493656946	0.25686476	-0.037922263	-0.7043688	0.6606414	
1465362503666712	0.2554041	-0.044517945	-0.70123154	0.66412437	
1465362513676477	0.25312838	-0.051035594	-0.69798	0.66794115	
1465362523655725	0.25001824	-0.05777994	-0.69560486	0.6710337	
1465362533665491	0.24637891	-0.06423723	-0.69307125	0.6744058	
1465362543675256	0.24240078	-0.07046797	-0.6912317	0.67710763	
1465362563664270	0.23456042	-0.08089897	-0.68796617	0.6820112	
1465362563664270	0.23456042	-0.08089897	-0.68796617	0.6820112	
1465362573674036	0.23121753	-0.08512112	-0.6864448	0.6841684	
1465362593663049	0.2258955	-0.093163036	-0.68448323	0.6868585	
1465362593663049	0.2258955	-0.093163036	-0.68448323	0.6868585	
1465362603642297	0.22381842	-0.09710579	-0.68394923	0.687524	
1465362613621546	0.22211449	-0.100460015	-0.6831619	0.68837684	
1465362623631311	0.22049125	-0.10325455	-0.6831946	0.68845284	
1465362633641077	0.2189457	-0.10488746	-0.68315196	0.68874145	
1465362643650842	0.21721472	-0.10542553	-0.68390936	0.68845564	
1465362653630090	0.21523371	-0.10472854	-0.6847855	0.6883133	
1465362663609339	0.21284167	-0.10333692	-0.6863154	0.6877435	
1465362673619104	0.210162	-0.101546586	-0.68758297	0.68756807	
1465362693608118	0.20374419	-0.099849656	-0.69110966	0.68621117	
1465362693608118	0.20374419	-0.099849656	-0.69110966	0.68621117	
1465362703617883	0.20014174	-0.100668356	-0.6933494	0.68489105	
1465362713601105	0.19665147	-0.102311976	-0.6952195	0.6837619	
1465362723610871	0.1934395	-0.10448374	-0.69744575	0.68208045	
1465362743599885	0.18885149	-0.10782915	-0.7011352	0.6790563	
1465362743599885	0.18885149	-0.10782915	-0.7011352	0.6790563	
1465362753609650	0.18748698	-0.1084611	-0.7027869	0.6776248	
1465362763619416	0.18646339	-0.10847655	-0.70497334	0.6756307	
1465362773598664	0.18565872	-0.10775705	-0.70710284	0.6737395	
1465362793587678	0.18396586	-0.104792476	-0.71207	0.6694262	
1465362793587678	0.18396586	-0.104792476	-0.71207	0.6694262	
1465362803597443	0.18280454	-0.10316964	-0.7147738	0.6671109	
1465362823586457	0.17897516	-0.10163064	-0.71956253	0.66322607	
1465362823586457	0.17897516	-0.10163064	-0.71956253	0.66322607	
1465362833596223	0.17664303	-0.10185402	-0.7216324	0.661566	
1465362853585236	0.17182371	-0.10435195	-0.72564596	0.6580465	
1465362853585236	0.17182371	-0.10435195	-0.72564596	0.6580465	
1465362863564484	0.16976672	-0.10615381	-0.7276334	0.65609473	
1465362873574250	0.1682508	-0.107741125	-0.72896326	0.6547489	
1465362883584016	0.16724318	-0.10907077	-0.7304993	0.6530728	
1465362903573029	0.16672513	-0.11000013	-0.73279494	0.65047234	
1465362903573029	0.16672513	-0.11000013	-0.73279494	0.65047234	
1465362913552277	0.16697447	-0.10948153	-0.73363453	0.6495488	
1465362923562043	0.16734962	-0.10841137	-0.7345581	0.6485873	
1465362933541291	0.16786131	-0.10673715	-0.7350434	0.6481828	
1465362943551057	0.16831583	-0.104755476	-0.735789	0.647542	
1465362953530305	0.16883431	-0.102392055	-0.73607093	0.6474646	
1465362963540070	0.16939443	-0.09982699	-0.73659027	0.6471282	
1465362973549836	0.17034134	-0.09686346	-0.7367335	0.64716697	
1465362983529084	0.17172967	-0.09403769	-0.73725307	0.64662486	
1465362993538850	0.17375222	-0.09170011	-0.7374735	0.6461688	
1465363003548615	0.17636193	-0.090456426	-0.73822904	0.6447728	
1465363013527863	0.17978464	-0.090060845	-0.73875487	0.6432789	
1465363023537629	0.18398851	-0.09037629	-0.73947084	0.6412201	
1465363033516877	0.18893288	-0.09092702	-0.73950607	0.63966197	
1465363053536408	0.20040838	-0.09229501	-0.73876524	0.6368234	
1465363053536408	0.20040838	-0.09229501	-0.73876524	0.6368234	
1465363063546174	0.2062391	-0.092696756	-0.73795766	0.635839	
1465363073525422	0.21166112	-0.092378624	-0.7366295	0.63564354	
1465363083504670	0.21623687	-0.09135668	-0.7357141	0.63531125	
1465363103493684	0.22125585	-0.08753688	-0.73486704	0.63510126	
1465363103493684	0.22125585	-0.08753688	-0.73486704	0.63510126	
1465363113503449	0.22128163	-0.08472817	-0.73517156	0.63512075	
1465363123482697	0.21976449	-0.08114948	-0.7361643	0.63496494	
1465363133492463	0.21694258	-0.076653756	-0.73717606	0.63532007	
1465363143502229	0.21288769	-0.07153535	-0.7384881	0.63576484	
1465363153511994	0.20788215	-0.06565499	-0.7395848	0.63678	
1465363163491242	0.20227642	-0.0591618	-0.740648	0.6379849	
1465363173501008	0.19635713	-0.052081104	-0.7412709	0.6397257	
1465363183480256	0.19021028	-0.04503294	-0.7420503	0.64121246	
1465363203499787	0.17733185	-0.032949585	-0.7436931	0.64373	
1465363203499787	0.17733185	-0.032949585	-0.7436931	0.64373	
1465363213509553	0.17033434	-0.02926511	-0.7445924	0.6447572	
1465363223488801	0.16278611	-0.027725123	-0.74589187	0.6452731	
1465363233498566	0.15479822	-0.027980492	-0.7473668	0.6455211	
1465363243508332	0.14666137	-0.029478267	-0.74927497	0.6451422	
1465363253487580	0.13875706	-0.031499557	-0.75105476	0.64472556	
1465363263466828	0.13138881	-0.033607453	-0.7530886	0.64378965	
1465363273476594	0.124903165	-0.03521182	-0.75473696	0.64306414	
1465363283455842	0.11947025	-0.03623688	-0.75649333	0.64197475	
1465363303444855	0.11164751	-0.036983624	-0.75877917	0.6406413	
1465363303444855	0.11164751	-0.036983624	-0.75877917	0.6406413	
1465363313454621	0.10941577	-0.03730173	-0.7589189	0.6408424	
1465363323464387	0.10830042	-0.038280074	-0.7587333	0.6411938	
1465363333443635	0.108042546	-0.04020774	-0.75748026	0.6425993	
1465363353463166	0.108968146	-0.046734538	-0.75455487	0.6454369	
1465363353463166	0.108968146	-0.046734538	-0.75455487	0.6454369	
1465363363442414	0.10967113	-0.05052086	-0.75248635	0.64744437	
1465363373421662	0.110066764	-0.054574843	-0.7509081	0.64887905	
1465363383431428	0.10973795	-0.058928195	-0.7494702	0.65021497	
1465363403420441	0.10618049	-0.068998605	-0.7486266	0.6507866	
1465363403420441	0.10618049	-0.068998605	-0.7486266	0.6507866	
1465363413430207	0.10301436	-0.07476098	-0.7488701	0.6503787	
1465363423439973	0.09885109	-0.081011385	-0.74909914	0.65001243	
1465363433449738	0.09382445	-0.08749704	-0.74948555	0.64947104	
1465363443428986	0.08833361	-0.0938143	-0.75021726	0.6485138	
1465363453438752	0.083024114	-0.099417076	-0.7509404	0.6475429	
1465363463418000	0.07864734	-0.10379719	-0.75128424	0.6470029	
1465363473427766	0.07544206	-0.106971614	-0.75184643	0.646214	
1465363483407014	0.0736647	-0.10885642	-0.75185096	0.64609903	
1465363503426545	0.07426756	-0.109282844	-0.7512574	0.64664817	
1465363503426545	0.07426756	-0.109282844	-0.7512574	0.64664817	
1465363513405793	0.07649734	-0.108287424	-0.7502356	0.64774114	
1465363523415559	0.079674855	-0.10691288	-0.7485202	0.6495684	
1465363533425324	0.08344282	-0.105608106	-0.7465333	0.6515921	
1465363553414338	0.091388896	-0.10482604	-0.7414395	0.65645033	
1465363553414338	0.091388896	-0.10482604	-0.7414395	0.65645033	
1465363563393586	0.09459179	-0.10583509	-0.73855346	0.6590828	
1465363573403352	0.09667193	-0.10763585	-0.73618805	0.6611325	
1465363583382600	0.097472824	-0.10966437	-0.7342693	0.6628132	
1465363593392365	0.09701336	-0.1115664	-0.7331464	0.6638054	
1465363603402131	0.09543436	-0.113293715	-0.7325451	0.6644054	
1465363613381379	0.092832066	-0.114957586	-0.7326099	0.6644168	
1465363623391145	0.08975571	-0.11635469	-0.7328277	0.6643561	
1465363633370393	0.08685746	-0.117234156	-0.73339564	0.6639599	
1465363643380158	0.084756516	-0.117361665	-0.7338168	0.66374356	
1465363663369172	0.0830162	-0.11669972	-0.7340159	0.66386	
1465363663369172	0.0830162	-0.11669972	-0.7340159	0.66386	
1465363673378938	0.08281126	-0.11668639	-0.7337212	0.66421366	
1465363693367951	0.081940345	-0.11658175	-0.73253506	0.6656477	
1465363693367951	0.081940345	-0.11658175	-0.73253506	0.6656477	
1465363703377717	0.080846444	-0.115363136	-0.73199403	0.66658825	
1465363713356965	0.07933099	-0.11292063	-0.7319305	0.667258	
1465363723336213	0.077704996	-0.109431244	-0.7319946	0.66796005	
1465363733345979	0.07627426	-0.10553008	-0.73275346	0.66792065	
1465363753334992	0.0748047	-0.09992119	-0.7349784	0.6665034	
1465363753334992	0.0748047	-0.09992119	-0.7349784	0.6665034	
1465363763314240	0.074569464	-0.09964089	-0.7363379	0.66506964	
1465363773324006	0.07446922	-0.10118183	-0.7382069	0.6627723	
1465363783333771	0.07459868	-0.10399344	-0.7400052	0.6603126	
1465363803322785	0.0755817	-0.110915236	-0.74438435	0.6541232	
1465363803322785	0.0755817	-0.110915236	-0.74438435	0.6541232	
1465363813332551	0.076500736	-0.11394496	-0.7468263	0.6507032	
1465363823311799	0.07765991	-0.116279796	-0.7493147	0.6472831	
1465363833321564	0.07898327	-0.117794774	-0.75206506	0.6436491	
1465363853310578	0.082159586	-0.11823895	-0.757501	0.6367586	
1465363853310578	0.082159586	-0.11823895	-0.757501	0.6367586	
1465363863320344	0.08376237	-0.11758781	-0.7603086	0.6333149	
1465363873330109	0.085285276	-0.11670297	-0.76337475	0.6295759	
1465363883309357	0.08693553	-0.115727566	-0.76641506	0.6258253	
1465363893319123	0.08876711	-0.114927165	-0.7695488	0.6218575	
1465363913308137	0.09309524	-0.114804775	-0.775659	0.61360097	
1465363913308137	0.09309524	-0.114804775	-0.775659	0.61360097	
1465363923317902	0.09563018	-0.1158042	-0.7785361	0.6093651	
1465363933297150	0.098189525	-0.117656246	-0.78127825	0.6050786	
1465363943306916	0.10061225	-0.12012265	-0.78370965	0.60103816	
1465363963295930	0.10450115	-0.12482841	-0.78774315	0.59410274	
1465363963295930	0.10450115	-0.12482841	-0.78774315	0.59410274	
1465363973305695	0.10581083	-0.12645607	-0.789435	0.59127426	
1465363983284943	0.10670335	-0.12758508	-0.79093105	0.5888671	
1465363993294709	0.10720123	-0.12870146	-0.79244304	0.5864963	
1465364003304475	0.10719789	-0.13077748	-0.7938068	0.58418894	
1465364013283723	0.10689206	-0.13428038	-0.79550123	0.5811374	
1465364023262971	0.10707421	-0.13866384	-0.79734856	0.5775316	
1465364033272736	0.107868455	-0.14337471	-0.7995674	0.57314926	
1465364043282502	0.109203145	-0.14780343	-0.80171376	0.56875646	
1465364053261750	0.11079996	-0.15164216	-0.80412865	0.5640081	
1465364063271516	0.112221554	-0.15495683	-0.80615944	0.5599122	
1465364073281281	0.11305807	-0.1579016	-0.8080737	0.5561492	
1465364093270295	0.114859484	-0.16157703	-0.8111934	0.55015033	
1465364093270295	0.114859484	-0.16157703	-0.8111934	0.55015033	
1465364103280061	0.11611568	-0.16250223	-0.8123722	0.54787004	
1465364113259309	0.117303155	-0.16328983	-0.813659	0.54546803	
1465364123238557	0.11825407	-0.16403636	-0.8147633	0.5433864	
1465364133248322	0.118556686	-0.16476217	-0.8157434	0.54162765	
1465364143258088	0.11793122	-0.16519706	-0.81646585	0.540542	
1465364153267854	0.11638514	-0.16488399	-0.8174403	0.53949904	
1465364163247102	0.114398256	-0.16344365	-0.8182091	0.53919667	
1465364173226350	0.11206593	-0.16113974	-0.8190403	0.539118	
1465364193245881	0.10533064	-0.15601695	-0.819798	0.54082847	
1465364193245881	0.10533064	-0.15601695	-0.819798	0.54082847	
1465364203225129	0.101256326	-0.15343928	-0.8196296	0.5425964	
1465364213234895	0.0969775	-0.15073983	-0.81942993	0.5444331	
1465364223244660	0.09251574	-0.14761145	-0.8190566	0.5466242	
1465364243233674	0.08231832	-0.13959256	-0.8188346	0.5506791	
1465364243233674	0.08231832	-0.13959256	-0.8188346	0.5506791	
1465364253212922	0.076572455	-0.13464263	-0.8188704	0.55268365	
1465364263222688	0.07072877	-0.128772	-0.81867605	0.55514383	
1465364273232453	0.06494553	-0.12175188	-0.8183576	0.5578973	
1465364293190949	0.053127743	-0.10625521	-0.816091	0.56558174	
1465364293190949	0.053127743	-0.10625521	-0.816091	0.56558174	
1465364303200715	0.046399835	-0.09902062	-0.81393695	0.5705687	
1465364313210480	0.038548578	-0.09312763	-0.81139237	0.57574624	
1465364323220246	0.029107802	-0.08926081	-0.80877906	0.5805701	
1465364343178742	0.007262798	-0.08623117	-0.8048926	0.58707696	
1465364343178742	0.007262798	-0.08623117	-0.8048926	0.58707696	
1465364353188508	-0.0034942334	-0.085578434	-0.8041083	0.58828044	
1465364363198273	-0.013150438	-0.08507563	-0.80370873	0.58876264	
1465364373177521	-0.021084255	-0.08464487	-0.8039873	0.5882135	
1465364393197053	-0.030511186	-0.083949834	-0.8056273	0.5856502	
1465364393197053	-0.030511186	-0.083949834	-0.8056273	0.5856502	
1465364403176301	-0.031480756	-0.08337195	-0.80677044	0.5841058	
1465364413155549	-0.029953534	-0.08271004	-0.8080357	0.5825292	
1465364423165314	-0.026720468	-0.0823833	-0.8090354	0.5813438	
1465364443184846	-0.016872916	-0.08212876	-0.81073785	0.5793741	
1465364443184846	-0.016872916	-0.08212876	-0.81073785	0.5793741	
1465364453164094	-0.011191065	-0.082038105	-0.8114649	0.578506	
1465364463173859	-0.0057314904	-0.08216046	-0.8117871	0.5781163	
1465364473183625	-0.0010074805	-0.082529016	-0.8122604	0.5774262	
1465364483162873	0.002807948	-0.083088584	-0.8123628	0.5771959	
1465364493172639	0.0054110354	-0.08383457	-0.8126202	0.5767069	
1465364503151887	0.0067873998	-0.08473915	-0.8127179	0.57642245	
1465364513161652	0.007102535	-0.085641414	-0.81308943	0.57576096	
1465364523171418	0.0065244986	-0.086401045	-0.8134595	0.5751312	
1465364543160432	0.0030227068	-0.087211296	-0.81491315	0.5729761	
1465364543160432	0.0030227068	-0.087211296	-0.81491315	0.5729761	
1465364553139680	6.694056E-4	-0.087078735	-0.8157814	0.571767	
1465364563149445	-0.0015348535	-0.08656573	-0.8164915	0.570829	
1465364573159211	-0.0032634516	-0.0856816	-0.8171783	0.56997156	
1465364593117707	-0.005238017	-0.08317868	-0.8175592	0.5697814	
1465364593117707	-0.005238017	-0.08317868	-0.8175592	0.5697814	
1465364603127473	-0.0056435275	-0.08171497	-0.8172043	0.570498	
1465364613137238	-0.0060445815	-0.08043048	-0.81678164	0.5712812	
1465364623116486	-0.007241083	-0.0795989	-0.8161772	0.5722468	
1465364643105500	-0.014643014	-0.078107364	-0.8159037	0.5727006	
1465364643105500	-0.014643014	-0.078107364	-0.8159037	0.5727006	
1465364653115266	-0.019889865	-0.07622056	-0.8160172	0.5726349	
1465364663125031	-0.025022808	-0.07321384	-0.815844	0.57307255	
1465364673134797	-0.029210223	-0.069166765	-0.81539154	0.5740203	
1465364683114045	-0.032235805	-0.064501084	-0.814391	0.5758192	
1465364693123811	-0.03498085	-0.059909754	-0.8133043	0.57768786	
1465364703103059	-0.038126785	-0.056153752	-0.8120845	0.579579	
1465364713082307	-0.042087406	-0.05354239	-0.8111981	0.5807921	
1465364723092072	-0.045537617	-0.051014926	-0.81075007	0.58138466	
1465364743111604	-0.05194697	-0.047751132	-0.8111526	0.5805625	
1465364743111604	-0.05194697	-0.047751132	-0.8111526	0.5805625	
1465364753090852	-0.055751838	-0.047387835	-0.81177986	0.5793613	
1465364763100617	-0.059746534	-0.047414627	-0.8126908	0.5776815	
1465364773110383	-0.06420925	-0.04779585	-0.8135762	0.57592225	
1465364783120148	-0.069336966	-0.048408534	-0.8145604	0.57388186	
1465364793099396	-0.074755356	-0.048854876	-0.8153676	0.5720145	
1465364803078645	-0.08019813	-0.048635792	-0.8162791	0.5699923	
1465364813088410	-0.08568126	-0.047734316	-0.8171098	0.56807715	
1465364823067658	-0.091056325	-0.046081424	-0.8180021	0.56609	
1465364843056672	-0.10072196	-0.04067793	-0.819688	0.5624162	
1465364843056672	-0.10072196	-0.04067793	-0.819688	0.5624162	
1465364853066438	-0.10459187	-0.037682723	-0.8204854	0.5607533	
1465364863076203	-0.107555605	-0.03526134	-0.8213324	0.55910784	
1465364873055451	-0.10939862	-0.033872094	-0.8221749	0.5575958	
1465364883065217	-0.1100169	-0.03384756	-0.82314163	0.5560472	
1465364893044465	-0.10947959	-0.035469525	-0.824105	0.55462337	
1465364903054230	-0.10778713	-0.0386634	-0.825162	0.55316794	
1465364913063996	-0.10501368	-0.043114357	-0.82611424	0.55194974	
1465364923043244	-0.101455	-0.048382353	-0.8271879	0.550569	
1465364943032258	-0.092401884	-0.059305444	-0.8291003	0.54821295	
1465364943032258	-0.092401884	-0.059305444	-0.8291003	0.54821295	
1465364963051789	-0.08206417	-0.06822583	-0.83077425	0.5462828	
1465364963051789	-0.08206417	-0.06822583	-0.83077425	0.5462828	
1465364973031037	-0.076914735	-0.07168987	-0.83143306	0.5455857	
1465364983040803	-0.071888395	-0.074513696	-0.8318189	0.5453046	
1465364993050568	-0.067270376	-0.07688049	-0.83193314	0.54539096	
1465365003060334	-0.06344934	-0.0794097	-0.83160496	0.5459867	
1465365013039582	-0.060557526	-0.082713656	-0.83077574	0.5470858	
1465365023018830	-0.05808448	-0.08684432	-0.8297005	0.54834414	
1465365043007844	-0.05198458	-0.09602765	-0.82730883	0.5510321	
1465365043007844	-0.05198458	-0.09602765	-0.82730883	0.5510321	
1465365052987092	-0.048584227	-0.10085138	-0.8260774	0.5523266	
1465365062996857	-0.045338925	-0.10577734	-0.82499516	0.5532978	
1465365083016389	-0.039542627	-0.115226686	-0.8225915	0.55542994	
1465365083016389	-0.039542627	-0.115226686	-0.8225915	0.55542994	
1465365092995637	-0.037110012	-0.11939508	-0.8212134	0.55675507	
1465365103005402	-0.034955837	-0.122980505	-0.8195681	0.5585356	
1465365112984650	-0.03282947	-0.12552589	-0.81785834	0.56060076	
1465365122994416	-0.030770665	-0.12700123	-0.8160349	0.5630372	
1465365133004182	-0.029201716	-0.12772274	-0.8142155	0.5655858	
1465365142983430	-0.028277867	-0.12797244	-0.8126012	0.5678932	
1465365152993195	-0.027864553	-0.12791833	-0.8111556	0.5699886	
1465365162972443	-0.027811546	-0.12765832	-0.8099486	0.57176316	
1465365172982209	-0.027956886	-0.1272156	-0.80888397	0.5733597	
1465365182991975	-0.02808305	-0.1264634	-0.8078898	0.5749195	
1465365192971223	-0.028055068	-0.12528437	-0.8069139	0.5765472	
1465365202980988	-0.027895782	-0.12371474	-0.80574024	0.57853186	
1465365212990754	-0.027752964	-0.12191438	-0.8043127	0.58090246	
1465365222970002	-0.028021347	-0.12005933	-0.8030835	0.58297294	
1465365232979768	-0.029075062	-0.11833688	-0.8019949	0.58476937	
1465365242959016	-0.031267595	-0.11688212	-0.8010524	0.5862388	
1465365252968781	-0.035189167	-0.11603612	-0.80030286	0.5872075	
1465365262978547	-0.040710542	-0.115752935	-0.7997922	0.58760226	
1465365272957795	-0.04653851	-0.11536096	-0.7994526	0.5877088	
1465365282967561	-0.051865395	-0.11459421	-0.799166	0.5878026	
1465365292946809	-0.056480728	-0.11362602	-0.7985101	0.58845615	
1465365302956574	-0.06057928	-0.11256784	-0.79741263	0.5897387	
1465365312966340	-0.0643594	-0.111580454	-0.7957125	0.5918187	
1465365322945588	-0.06787688	-0.11065078	-0.79342973	0.59465826	
1465365332955354	-0.07106703	-0.10957608	-0.790695	0.598117	
1465365342934602	-0.0738143	-0.10805647	-0.7879869	0.60162437	
1465365352944367	-0.07611268	-0.10595649	-0.7853803	0.6051098	
1465365372963898	-0.07968726	-0.100069344	-0.78026706	0.61222494	
1465365372963898	-0.07968726	-0.100069344	-0.78026706	0.61222494	
1465365382943146	-0.08127762	-0.096651375	-0.7776	0.61594695	
1465365402932160	-0.08523095	-0.090744264	-0.7718191	0.6235354	
1465365402932160	-0.08523095	-0.090744264	-0.7718191	0.6235354	
1465365412941926	-0.08776349	-0.08895179	-0.76903427	0.6268743	
1465365422951691	-0.090154745	-0.08777025	-0.7665735	0.6297091	
1465365432930939	-0.0925072	-0.08749521	-0.76447666	0.6319513	
1465365442940705	-0.09449792	-0.08801129	-0.76272666	0.6336972	
1465365452919953	-0.09580485	-0.08916785	-0.7614051	0.63492733	
1465365462899201	-0.09621036	-0.0909281	-0.76044077	0.6357716	
1465365472908967	-0.095617995	-0.09329801	-0.7596569	0.63645434	
1465365482918732	-0.09403127	-0.09618571	-0.75911325	0.6369093	
1465365492897980	-0.09142807	-0.09946031	-0.75859314	0.63740486	
1465365502907746	-0.08780406	-0.10285749	-0.7581775	0.6378696	
1465365512917512	-0.08314497	-0.106019385	-0.7577014	0.63854164	
1465365522896760	-0.07758	-0.10857645	-0.75745916	0.6390995	
1465365532876008	-0.071271665	-0.110559754	-0.75726795	0.6397204	
1465365542885773	-0.06452075	-0.11213048	-0.7570865	0.6403779	
1465365552895539	-0.05767954	-0.1134316	-0.7567668	0.6411789	
1465365562874787	-0.0511063	-0.114600286	-0.7561801	0.64222	
1465365582863801	-0.04017248	-0.11769411	-0.75399446	0.64500123	
1465365582863801	-0.04017248	-0.11769411	-0.75399446	0.64500123	
1465365592873566	-0.036044803	-0.11992241	-0.752364	0.64673626	
1465365602883332	-0.032816414	-0.122666374	-0.75058407	0.64845943	
1465365612862580	-0.030398468	-0.12595564	-0.74835944	0.6505146	
1465365622872346	-0.028619241	-0.12969929	-0.7460139	0.65255064	
1465365632882111	-0.02726464	-0.13374549	-0.7434434	0.65472186	
1465365642861359	-0.026235754	-0.1379408	-0.74041426	0.65732086	
1465365662850373	-0.025520332	-0.14626978	-0.7326966	0.66416085	
1465365662850373	-0.025520332	-0.14626978	-0.7326966	0.66416085	
1465365672860139	-0.026924381	-0.15091519	-0.7278431	0.66838914	
1465365682839387	-0.030208284	-0.15665798	-0.7224174	0.6727992	
1465365692849152	-0.033798207	-0.16246277	-0.7167676	0.67727965	
1465365702828400	-0.036618326	-0.16734357	-0.71115595	0.68184483	
1465365762825959	-0.061106067	-0.19080055	-0.6822602	0.7031232	
1465365762825959	-0.061106067	-0.19080055	-0.6822602	0.7031232	
1465365762825959	-0.061106067	-0.19080055	-0.6822602	0.7031232	
1465365762825959	-0.061106067	-0.19080055	-0.6822602	0.7031232	
1465365762825959	-0.061106067	-0.19080055	-0.6822602	0.7031232	
1465365762825959	-0.061106067	-0.19080055	-0.6822602	0.7031232	
1465365772805207	-0.06595966	-0.19386981	-0.6784239	0.7055529	
1465365782814973	-0.070570886	-0.19704163	-0.67465967	0.70783377	
1465365792794221	-0.0748112	-0.20030656	-0.67082477	0.71012306	
1465365802803986	-0.078789264	-0.20345524	-0.6671348	0.71227056	
1465365812813752	-0.08256882	-0.20633128	-0.66366106	0.7142575	
1465365822793000	-0.08616103	-0.20894518	-0.6604983	0.7160029	
1465365832802766	-0.089620754	-0.21147402	-0.65766424	0.7174431	
1465365842782014	-0.09299457	-0.21399298	-0.6554389	0.7183028	
1465365852791779	-0.09612392	-0.21653984	-0.65352917	0.71886736	
1465365862771027	-0.09885413	-0.21888168	-0.6522826	0.7189201	
1465365872780793	-0.10080957	-0.22090822	-0.6510622	0.7191349	
1465365882790559	-0.10198543	-0.22252938	-0.65017945	0.71926796	
1465365892769807	-0.10219342	-0.22389264	-0.6489907	0.7198886	
1465365902779572	-0.10167017	-0.22479059	-0.64805144	0.7205288	
1465365912789338	-0.10028961	-0.2247975	-0.64719194	0.721492	
1465365922768586	-0.098544106	-0.22377792	-0.6466251	0.7225569	
1465365932778352	-0.09701483	-0.22212392	-0.6463161	0.72354996	
1465365952767365	-0.09321707	-0.21638454	-0.64652056	0.72560287	
1465365952767365	-0.09321707	-0.21638454	-0.64652056	0.72560287	
1465365962746613	-0.090724476	-0.21280308	-0.6469888	0.72656	
1465365982766145	-0.08652813	-0.20759714	-0.6475672	0.72806114	
1465365982766145	-0.08652813	-0.20759714	-0.6475672	0.72806114	
1465365992745393	-0.08533766	-0.20707849	-0.6475976	0.72832227	
1465366012764924	-0.08362976	-0.20948161	-0.64792633	0.7275404	
1465366012764924	-0.08362976	-0.20948161	-0.64792633	0.7275404	
1465366022744172	-0.082397565	-0.21136849	-0.6481901	0.72690004	
1465366042763703	-0.07744244	-0.21354151	-0.6491022	0.7259952	
1465366042763703	-0.07744244	-0.21354151	-0.6491022	0.7259952	
1465366052773469	-0.07310856	-0.21272396	-0.6498357	0.7260284	
1465366072762482	-0.06117771	-0.20672011	-0.6519492	0.7269706	
1465366072762482	-0.06117771	-0.20672011	-0.6519492	0.7269706	
1465366092751496	-0.04709583	-0.19562823	-0.6533592	0.72981733	
1465366092751496	-0.04709583	-0.19562823	-0.6533592	0.72981733	
1465366102761262	-0.042350646	-0.19069703	-0.65411097	0.7307393	
1465366122750275	-0.036236055	-0.1817585	-0.6567766	0.73095506	
1465366122750275	-0.036236055	-0.1817585	-0.6567766	0.73095506	
1465366132729523	-0.034749698	-0.1783375	-0.658735	0.7301071	
1465366142739289	-0.033677783	-0.17540456	-0.6605272	0.72924817	
1465366152749055	-0.032892197	-0.17293793	-0.6625011	0.72808164	
1465366162728303	-0.031937093	-0.17070197	-0.66419125	0.72711134	
1465366172738068	-0.030664012	-0.16837265	-0.66570765	0.72632205	
1465366192727082	-0.027226774	-0.16288884	-0.66750103	0.72606355	
1465366192727082	-0.027226774	-0.16288884	-0.66750103	0.72606355	
1465366202706330	-0.025324475	-0.15962543	-0.66783196	0.7265527	
1465366212716096	-0.023523651	-0.15609473	-0.6682077	0.72703475	
1465366222725861	-0.021788334	-0.152368	-0.6686058	0.72751325	
1465366232705109	-0.020171821	-0.14855981	-0.6692778	0.72772956	
1465366242714875	-0.018666025	-0.14485097	-0.66990197	0.7279431	
1465366252694123	-0.017499425	-0.14158076	-0.67090005	0.7276962	
1465366262703889	-0.016663965	-0.13885252	-0.67179805	0.727413	
1465366272713654	-0.016169745	-0.13665351	-0.67275715	0.72695404	
1465366282692902	-0.015716566	-0.13483429	-0.6736035	0.7265198	
1465366292702668	-0.014737649	-0.13295996	-0.67400414	0.7265142	
1465366302712434	-0.012753622	-0.13052747	-0.6737591	0.72721976	
1465366312722199	-0.009775075	-0.12750766	-0.6731202	0.72839236	
1465366322701447	-0.0059378603	-0.12397508	-0.6718925	0.73017484	
1465366332680695	-0.0010196216	-0.11936224	-0.6698752	0.7328157	
1465366342690461	0.004604331	-0.115321785	-0.667212	0.73587215	
1465366352669709	0.0094290795	-0.113625474	-0.66489905	0.7381799	
1465366362679475	0.013398264	-0.11221634	-0.6629072	0.740123	
1465366372689240	0.016481675	-0.109746605	-0.6615766	0.7416201	
1465366382668488	0.018791838	-0.10623131	-0.6604992	0.74303603	
1465366392678254	0.020305699	-0.10203274	-0.6594625	0.74450403	
1465366402657502	0.021048285	-0.097762294	-0.6579481	0.7463939	
1465366412667268	0.021084648	-0.09391933	-0.6563445	0.7482957	
1465366422677033	0.020720284	-0.09054833	-0.65449023	0.7503427	
1465366432656281	0.020337872	-0.08729957	-0.65302587	0.7520122	
1465366442666047	0.02039257	-0.08374027	-0.6517122	0.7535535	
1465366452675813	0.020945568	-0.07983409	-0.65070367	0.7548328	
1465366462655061	0.021760924	-0.075884715	-0.64968073	0.7560972	
1465366472664826	0.02270839	-0.072003014	-0.6485789	0.7573938	
1465366482644074	0.023865914	-0.06822509	-0.64723796	0.75885355	
1465366492653840	0.025266131	-0.06476701	-0.64581627	0.7603211	
1465366502633088	0.02676654	-0.062055375	-0.64424944	0.76182365	
1465366512642854	0.02837811	-0.06030974	-0.6428329	0.7631011	
1465366522652619	0.030272717	-0.059703216	-0.64149755	0.7641989	
1465366532631867	0.032448314	-0.060437962	-0.64054334	0.764852	
1465366542641633	0.03497572	-0.06244654	-0.6396282	0.765345	
1465366552651398	0.03778229	-0.06554766	-0.6391408	0.7653594	
1465366562661164	0.04085433	-0.069346644	-0.6386286	0.7652944	
1465366572640412	0.044180013	-0.07331179	-0.638378	0.764949	
1465366582619660	0.04777735	-0.07695632	-0.6381492	0.76456565	
1465366592629426	0.05153172	-0.0800129	-0.637974	0.76415414	
1465366602608674	0.055239093	-0.082394466	-0.63772416	0.76385057	
1465366622628205	0.06139429	-0.08597063	-0.63745457	0.76321125	
1465366622628205	0.06139429	-0.08597063	-0.63745457	0.76321125	
1465366632607453	0.06335849	-0.08755326	-0.6375499	0.76279116	
1465366652626984	0.06494785	-0.090655126	-0.6379157	0.7619889	
1465366652626984	0.06494785	-0.090655126	-0.6379157	0.7619889	
1465366662636750	0.06487454	-0.09223142	-0.6376896	0.7619952	
1465366672615998	0.0643447	-0.09396738	-0.63758874	0.7619124	
1465366682625764	0.06357937	-0.0959117	-0.63717383	0.76208144	
1465366702614777	0.061631225	-0.100492656	-0.63594544	0.762677	
1465366702614777	0.061631225	-0.100492656	-0.63594544	0.762677	
1465366712624543	0.06065413	-0.102826804	-0.63535815	0.7629336	
1465366722603791	0.059862703	-0.104912624	-0.63489455	0.7630981	
1465366732613557	0.05935799	-0.10674219	-0.634215	0.76344883	
1465366752572053	0.058903925	-0.109429516	-0.63183737	0.76507324	
1465366752572053	0.058903925	-0.109429516	-0.63183737	0.76507324	
1465366762581818	0.058874246	-0.10998559	-0.6304376	0.7661497	
1465366772591584	0.058982242	-0.11005142	-0.62886584	0.7674227	
1465366782570832	0.05908832	-0.110020824	-0.6270808	0.76887816	
1465366792580598	0.05892752	-0.11026421	-0.6256418	0.77002704	
1465366802559846	0.058435876	-0.1109541	-0.624506	0.77088696	
1465366812569611	0.05759397	-0.112216525	-0.62365067	0.7714598	
1465366822548859	0.05646815	-0.11395954	-0.62303627	0.7717839	
1465366832558625	0.055121608	-0.11594303	-0.622687	0.7718677	
1465366852578156	0.051495668	-0.121057145	-0.622773	0.77126336	
1465366852578156	0.051495668	-0.121057145	-0.622773	0.77126336	
1465366862587922	0.049264986	-0.12446952	-0.62310743	0.7705955	
1465366872567170	0.047054462	-0.12824103	-0.62349033	0.76980513	
1465366882546418	0.04507208	-0.13209197	-0.62381995	0.7690051	
1465366892556184	0.042015653	-0.13923186	-0.6245414	0.76733124	
1465366902535432	0.042015653	-0.13923186	-0.6245414	0.76733124	
1465366912545197	0.040950876	-0.14183281	-0.62492895	0.76659656	
1465366922554963	0.04015664	-0.14323221	-0.6254698	0.76593703	
1465366932564729	0.039605625	-0.14324947	-0.6259269	0.765589	
1465366952553742	0.038733993	-0.13991766	-0.62676805	0.7655616	
1465366952553742	0.038733993	-0.13991766	-0.62676805	0.7655616	
1465366962532990	0.03830721	-0.13691199	-0.6272125	0.76576245	
1465366972512238	0.037887536	-0.13298985	-0.6276079	0.7661505	
1465366982522004	0.03735133	-0.12829143	-0.62807363	0.76659614	
1465366992531770	0.036517564	-0.12311777	-0.6284596	0.76716816	
1465367002541535	0.035210658	-0.11791808	-0.6290074	0.767597	
1465367012520783	0.033476803	-0.11346647	-0.6294206	0.76800674	
1465367022530549	0.03140092	-0.110548034	-0.6300946	0.7679674	
1465367032540314	0.029360723	-0.109603174	-0.6308729	0.76754445	
1465367052498811	0.027012022	-0.113141105	-0.63318545	0.7652095	
1465367052498811	0.027012022	-0.113141105	-0.63318545	0.7652095	
1465367062508576	0.027316488	-0.11635918	-0.63472986	0.7634346	
1465367072518342	0.028722864	-0.11952669	-0.63633883	0.7615519	
1465367082528107	0.030990086	-0.122092076	-0.63837445	0.7593492	
1465367102517121	0.037428882	-0.12397542	-0.6421892	0.7555278	
1465367102517121	0.037428882	-0.12397542	-0.6421892	0.7555278	
1465367112496369	0.04098925	-0.12313078	-0.64417076	0.7537922	
1465367122506135	0.044317383	-0.121483445	-0.6463995	0.75196105	
1465367132485383	0.047250908	-0.119461805	-0.64832747	0.750445	
1465367152474396	0.05147329	-0.11605939	-0.65234864	0.7472095	
1465367152474396	0.05147329	-0.11605939	-0.65234864	0.7472095	
1465367162484162	0.052874073	-0.1153111	-0.65439487	0.74543613	
1465367182503693	0.05508	-0.11641951	-0.6579679	0.74195075	
1465367182503693	0.05508	-0.11641951	-0.6579679	0.74195075	
1465367192482941	0.056228887	-0.11811723	-0.65960664	0.74013895	
1465367202462189	0.057587784	-0.12033152	-0.66150534	0.7379801	
1465367212471955	0.05929495	-0.12281595	-0.66319555	0.7359157	
1465367222481721	0.06121558	-0.12535012	-0.6650338	0.73366886	
1465367232460969	0.06327951	-0.12764403	-0.66685385	0.73144287	
1465367242470734	0.06535074	-0.1296236	-0.66876274	0.72916627	
1465367252480500	0.0671548	-0.13133888	-0.6703082	0.7272739	
1465367262490266	0.0683592	-0.13261236	-0.67181796	0.7255354	
1465367272469514	0.069055736	-0.1329962	-0.6728403	0.724451	
1465367282448762	0.06930378	-0.13240477	-0.6739243	0.7235275	
1465367302437775	0.0694454	-0.12902735	-0.6753552	0.7227895	
1465367302437775	0.0694454	-0.12902735	-0.6753552	0.7227895	
1465367312447541	0.06972556	-0.12686881	-0.6758714	0.72266215	
1465367332467072	0.07096833	-0.123247795	-0.6772971	0.72183245	
1465367332467072	0.07096833	-0.123247795	-0.6772971	0.72183245	
1465367342446320	0.07172122	-0.12248984	-0.6783901	0.72086	
1465367362435334	0.07327875	-0.12290727	-0.68025327	0.71887374	
1465367362435334	0.07327875	-0.12290727	-0.68025327	0.71887374	
1465367372414582	0.07392824	-0.12377484	-0.68087554	0.7180689	
1465367382424348	0.07428926	-0.12497494	-0.6813935	0.71733207	
1465367392434113	0.07440472	-0.1260622	-0.68132174	0.717198	
1465367412423127	0.07397044	-0.12605476	-0.68037117	0.71814597	
1465367412423127	0.07397044	-0.12605476	-0.68037117	0.71814597	
1465367422432893	0.07346194	-0.12430479	-0.6794088	0.7194132	
1465367442391389	0.07137873	-0.11784482	-0.676969	0.7230012	
1465367442391389	0.07137873	-0.11784482	-0.676969	0.7230012	
1465367452401154	0.06971054	-0.11374913	-0.6755983	0.7250989	
1465367462380402	0.06759425	-0.10962967	-0.6744972	0.7269566	
1465367472390168	0.06528949	-0.10546653	-0.67280084	0.72935116	
1465367482399934	0.06298682	-0.10104585	-0.6708719	0.73195165	
1465367492409699	0.060923856	-0.09601389	-0.6688284	0.73466873	
1465367502388947	0.059257735	-0.09012918	-0.6663173	0.7378255	
1465367512398713	0.057947196	-0.08334371	-0.6637046	0.741075	
1465367522377961	0.05694402	-0.07593431	-0.6609022	0.74444586	
1465367532387727	0.055982314	-0.06860871	-0.6582917	0.74753654	
1465367542397492	0.054818902	-0.06246575	-0.65593433	0.7502287	
1465367552376740	0.053367663	-0.05841954	-0.6542912	0.75209177	
1465367562386506	0.051889647	-0.056594126	-0.65283126	0.75360197	
1465367572365754	0.050670817	-0.056792136	-0.65212905	0.7542777	
1465367582375520	0.050049912	-0.05859859	-0.65157324	0.7546612	
1465367592385285	0.050264224	-0.06156049	-0.6517481	0.75426006	
1465367602364533	0.05158634	-0.06507324	-0.6521354	0.7535408	
1465367612343781	0.053926103	-0.068605706	-0.6532525	0.7520947	
1465367622353547	0.057105146	-0.071609065	-0.65467197	0.75034374	
1465367642373078	0.06496698	-0.07514308	-0.659058	0.7455035	
1465367642373078	0.06496698	-0.07514308	-0.659058	0.7455035	
1465367652352326	0.069221474	-0.075528905	-0.6618551	0.7425979	
1465367662362092	0.07349864	-0.075091586	-0.66471523	0.7396708	
1465367672341340	0.07758803	-0.07416906	-0.66789114	0.73647845	
1465367692330354	0.08466586	-0.07212773	-0.67443496	0.72990876	
1465367692330354	0.08466586	-0.07212773	-0.67443496	0.72990876	
1465367702340119	0.08744497	-0.07174663	-0.6772268	0.72702795	
1465367712349885	0.08956505	-0.07226125	-0.67975456	0.72435504	
1465367722359650	0.091030635	-0.073659874	-0.68132347	0.72255516	
1465367732369416	0.09175622	-0.075892285	-0.6824626	0.721156	
1465367742348664	0.09187884	-0.07868987	-0.6829709	0.7203589	
1465367752327912	0.09151851	-0.08181446	-0.6835779	0.7194804	
1465367762337678	0.090908326	-0.0848597	-0.6839138	0.71888554	
1465367772347443	0.09016257	-0.08759846	-0.68456316	0.7180324	
1465367792305939	0.08895753	-0.0912689	-0.6867273	0.7156551	
1465367792305939	0.08895753	-0.0912689	-0.6867273	0.7156551	
1465367802315705	0.08866979	-0.09209072	-0.6881034	0.71426237	
1465367812325471	0.088571675	-0.092446685	-0.6898375	0.71255374	
1465367822335236	0.08872806	-0.09242881	-0.6911331	0.71128005	
1465367832314484	0.089039326	-0.0922051	-0.6922792	0.7101547	
1465367842324250	0.08949248	-0.091786206	-0.6929102	0.7095363	
1465367852303498	0.089885905	-0.09136962	-0.6937534	0.7087159	
1465367862313264	0.09022424	-0.0910966	-0.6941317	0.70833766	
1465367872292512	0.090349905	-0.09138269	-0.69495493	0.70747703	
1465367882302277	0.09028495	-0.092184804	-0.6956453	0.70670235	
1465367902291291	0.08991623	-0.094376475	-0.6980266	0.7041072	
1465367902291291	0.08991623	-0.094376475	-0.6980266	0.7041072	
1465367912301057	0.09001503	-0.09506417	-0.69955313	0.7024852	
1465367922280305	0.09017453	-0.09540657	-0.70103973	0.7009347	
1465367932290070	0.089920945	-0.09594287	-0.7029621	0.698966	
1465367942299836	0.08911708	-0.09700622	-0.7047556	0.69711363	
1465367952279084	0.087613285	-0.0987245	-0.70683783	0.69495153	
1465367962288850	0.08557623	-0.10075921	-0.7086607	0.6930543	
1465367972268098	0.083151095	-0.10285125	-0.71055126	0.69110376	
1465367992287629	0.07869471	-0.104708716	-0.71388215	0.68790656	
1465367992287629	0.07869471	-0.104708716	-0.71388215	0.68790656	
1465368002266877	0.07812894	-0.102064244	-0.7151802	0.68701965	
1465368012276643	0.07919113	-0.0964543	-0.71654963	0.68628126	
1465368022255891	0.08173033	-0.08912383	-0.71745014	0.6860338	
1465368032265656	0.085157156	-0.08199448	-0.71849513	0.6854122	
1465368042244904	0.08871639	-0.0770195	-0.7190607	0.6849446	
1465368052254670	0.09165039	-0.07576407	-0.7200119	0.68369794	
1465368062264436	0.09367941	-0.07858191	-0.7207773	0.68229693	
1465368072243684	0.09467936	-0.08485515	-0.72202826	0.68008137	
1465368082253449	0.09496968	-0.09295897	-0.722889	0.67806405	
1465368092263215	0.09466732	-0.10129143	-0.7239156	0.67581385	
1465368102272980	0.093932584	-0.10854535	-0.7245815	0.67407435	
1465368112252229	0.09268655	-0.11415758	-0.7255746	0.672249	
1465368122261994	0.09103099	-0.11786334	-0.726234	0.6711228	
1465368142220490	0.08639749	-0.12004641	-0.7281703	0.66924757	
1465368142220490	0.08639749	-0.12004641	-0.7281703	0.66924757	
1465368152230256	0.08368833	-0.119144924	-0.7293462	0.66847205	
1465368162240021	0.08111187	-0.11743743	-0.73031354	0.6680355	
1465368172219270	0.07886206	-0.115409024	-0.7314192	0.6674485	
1465368182229035	0.077282	-0.11325533	-0.7319983	0.66736734	
1465368192208283	0.07634906	-0.11130741	-0.73270464	0.6670273	
1465368202218049	0.07611986	-0.10964196	-0.7329432	0.6670672	
1465368212227814	0.07635059	-0.108368516	-0.73346746	0.6666726	
1465368222207063	0.076962836	-0.1073237	-0.7336908	0.6665254	
1465368242196076	0.078168064	-0.105778724	-0.73517746	0.6649923	
1465368242196076	0.078168064	-0.105778724	-0.73517746	0.6649923	
1465368252175324	0.07832597	-0.10523047	-0.73650473	0.6635905	
1465368262185090	0.07805786	-0.10478088	-0.7377368	0.6623234	
1465368272194855	0.07723887	-0.10448606	-0.7392037	0.6608288	
1465368282204621	0.0759968	-0.10425627	-0.74022436	0.6598659	
1465368292214387	0.07431295	-0.104156226	-0.74113536	0.6590504	
1465368302224152	0.07232777	-0.10416719	-0.7413346	0.65904546	
1465368312203400	0.07006339	-0.10422675	-0.7412937	0.65932655	
1465368322182648	0.06770191	-0.10409467	-0.74068767	0.6602746	
1465368332192414	0.06534367	-0.103787	-0.7402207	0.66108376	
1465368342202180	0.06317598	-0.10341725	-0.7394132	0.6622551	
1465368352181428	0.06124351	-0.103274114	-0.73896426	0.6629597	
1465368362191193	0.059750754	-0.10346906	-0.7383702	0.663727	
1465368372200959	0.058594864	-0.10412781	-0.73819536	0.6639214	
1465368392189973	0.056992766	-0.10648813	-0.7378626	0.6640564	
1465368392189973	0.056992766	-0.10648813	-0.7378626	0.6640564	
1465368402169221	0.05636448	-0.10805361	-0.7375384	0.6642173	
1465368412178986	0.05579688	-0.10996277	-0.7375661	0.66392106	
1465368422188752	0.055397622	-0.112058885	-0.73705506	0.6641715	
1465368432168000	0.05498049	-0.11416641	-0.73671895	0.6642201	
1465368442147248	0.054591678	-0.11612104	-0.73598266	0.6647294	
1465368452157014	0.0540767	-0.11796136	-0.73543227	0.6650565	
1465368462166779	0.053412106	-0.119447656	-0.73445344	0.6659261	
1465368472176545	0.05242368	-0.12032989	-0.73356444	0.66682506	
1465368482155793	0.051120907	-0.12047128	-0.73242766	0.668149	
1465368492135041	0.049288727	-0.12009031	-0.7314821	0.66938996	
1465368502144807	0.046963453	-0.11942597	-0.73019046	0.671084	
1465368512154572	0.044122748	-0.11869276	-0.72915393	0.6725324	
1465368522133820	0.041028168	-0.11779711	-0.7275816	0.67458546	
1465368532143586	0.0378134	-0.11643468	-0.7261325	0.6765683	
1465368542153352	0.034833614	-0.11427975	-0.7242736	0.6790836	
1465368552132600	0.031940047	-0.11141671	-0.72261244	0.68146706	
1465368562142365	0.029100489	-0.107898615	-0.7201381	0.68477166	
1465368572152131	0.02622664	-0.103790015	-0.7177347	0.6880383	
1465368582131379	0.023585936	-0.099633105	-0.7148023	0.6917909	
1465368592110627	0.020963019	-0.09654077	-0.71215284	0.6950387	
1465368612099641	0.015975663	-0.09657928	-0.70703715	0.7003683	
1465368612099641	0.015975663	-0.09657928	-0.70703715	0.7003683	
1465368622109406	0.013772032	-0.09967288	-0.7050057	0.7020275	
1465368632119172	0.0117881885	-0.10408349	-0.70379114	0.7026419	
1465368642098420	0.010158345	-0.109115645	-0.7027785	0.70291746	
1465368652108186	0.008814434	-0.114175566	-0.7023704	0.70253974	
1465368662117951	0.007846949	-0.118614025	-0.7018773	0.70230865	
1465368672097199	0.007147	-0.122066945	-0.70173514	0.7018664	
1465368682106965	0.006859415	-0.12438878	-0.7014212	0.7017754	
1465368692086213	0.006886445	-0.12553324	-0.70122516	0.70176727	
1465368702095979	0.0071653575	-0.12562421	-0.7006029	0.70236945	
1465368712075227	0.007551992	-0.124829955	-0.6998681	0.703239	
1465368722084992	0.007902088	-0.12337296	-0.6987266	0.704626	
1465368732094758	0.00784401	-0.12170443	-0.6977119	0.7059211	
1465368742074006	0.007358693	-0.120372966	-0.6963195	0.7075276	
1465368752083771	0.006334172	-0.119814046	-0.6951362	0.7087949	
1465368762063020	0.004913123	-0.12010688	-0.69398624	0.7098826	
1465368772072785	0.0031218394	-0.12112661	-0.6932104	0.71047723	
1465368782082551	0.0011638373	-0.122731015	-0.6924297	0.710969	
1465368792092316	-9.802891E-4	-0.124813914	-0.69205517	0.71097124	
1465368802102082	-0.0029993402	-0.12712477	-0.6912501	0.7113393	
1465368812081330	-0.004788219	-0.12939896	-0.6905203	0.7116282	
1465368822060578	-0.0061908136	-0.13153599	-0.6895621	0.71215457	
1465368832070344	-0.007279257	-0.1334849	-0.6889037	0.71241874	
1465368842049592	-0.007918083	-0.13514163	-0.6878217	0.7131447	
1465368852059357	-0.008300256	-0.13639438	-0.68666315	0.7140178	
1465368862069123	-0.008463246	-0.13704078	-0.68552375	0.71498626	
1465368872048371	-0.008341459	-0.13695855	-0.68407613	0.7163886	
1465368882027619	-0.008221172	-0.13645272	-0.6827877	0.7177144	
1465368892037385	-0.008202214	-0.1361005	-0.68084323	0.7196262	
1465368902016633	-0.0086438265	-0.13645582	-0.6791557	0.72114676	
1465368912026398	-0.009633794	-0.13786519	-0.6772578	0.7226495	
1465368922036164	-0.01142024	-0.14038834	-0.67607635	0.7232437	
1465368932045930	-0.013727179	-0.14388014	-0.67515135	0.7233814	
1465368942025178	-0.016240647	-0.148018	-0.67499673	0.7226384	
1465368952034943	-0.01828172	-0.1522267	-0.6747929	0.72190535	
1465368962014191	-0.01931451	-0.15587051	-0.6747927	0.7211006	
1465368972023957	-0.019026248	-0.15962382	-0.6737798	0.7212344	
1465368982033723	-0.01841753	-0.16383761	-0.67280746	0.721213	
1465368992012971	-0.017604977	-0.16776264	-0.67224854	0.720852	
1465369002022736	-0.01681773	-0.17135558	-0.67262167	0.7196767	
1465369012032502	-0.016131055	-0.17474417	-0.67372227	0.7178458	
1465369022011750	-0.015633231	-0.17778291	-0.67560637	0.7153355	
1465369032021516	-0.015256361	-0.1803358	-0.6775113	0.71289885	
1465369042000764	-0.01500373	-0.18196625	-0.6800137	0.7101018	
1465369052010529	-0.014422149	-0.18209854	-0.6827977	0.7074033	
1465369061989777	-0.013435107	-0.18026328	-0.68616694	0.7046273	
1465369071999543	-0.01181645	-0.17620668	-0.689423	0.7025008	
1465369082009309	-0.009695981	-0.16993721	-0.6925407	0.7010098	
1465369092019074	-0.0072377156	-0.16178054	-0.69475913	0.70077413	
1465369101998322	-0.005047703	-0.15271413	-0.696518	0.7010817	
1465369112008088	-0.0033525757	-0.14434901	-0.6974801	0.70190716	
1465369121987336	-0.0021577426	-0.13848174	-0.69826245	0.702316	
1465369131997102	-9.87063E-4	-0.13638555	-0.6985777	0.7024152	
1465369141976350	3.6469722E-4	-0.13869134	-0.69905174	0.70149213	
1465369161995881	0.0058342367	-0.15374343	-0.7004519	0.6969189	
1465369161995881	0.0058342367	-0.15374343	-0.7004519	0.6969189	
1465369171975129	0.011230838	-0.16314699	-0.7013429	0.693812	
1465369181984895	0.018631188	-0.17175889	-0.7025367	0.69035786	
1465369191964143	0.027770652	-0.17843863	-0.70364904	0.68721646	
1465369201973908	0.038246762	-0.18256423	-0.7050861	0.6841499	
1465369211953156	0.049372245	-0.18413314	-0.70609677	0.68197125	
1465369221962922	0.06011286	-0.1837417	-0.7072232	0.6800447	
1465369231972688	0.070019595	-0.18200518	-0.70785934	0.67890096	
1465369241951936	0.07861786	-0.17963946	-0.7084933	0.67792785	
1465369251961701	0.08572557	-0.17743449	-0.7089088	0.6772123	
1465369261940949	0.09096822	-0.1763312	-0.70944345	0.67625594	
1465369271950715	0.09454865	-0.1767173	-0.7096404	0.67545694	
1465369281960480	0.09672151	-0.17843707	-0.7098231	0.6745046	
1465369301949494	0.09810619	-0.1834075	-0.70985425	0.67293674	
1465369301949494	0.09810619	-0.1834075	-0.70985425	0.67293674	
1465369321938508	0.097713076	-0.18574996	-0.71087134	0.6712757	
1465369321938508	0.097713076	-0.18574996	-0.71087134	0.6712757	
1465369331948273	0.09747394	-0.18527234	-0.7114753	0.6708024	
1465369351937287	0.09674014	-0.18303801	-0.71267265	0.6702508	
1465369351937287	0.09674014	-0.18303801	-0.71267265	0.6702508	
1465369361916535	0.096217595	-0.1824892	-0.71320546	0.6699088	
1465369371926301	0.095828995	-0.18256807	-0.713826	0.66928184	
1465369381905549	0.09544435	-0.18320811	-0.7148011	0.66812015	
1465369391915314	0.09484727	-0.18401748	-0.7158475	0.6668613	
1465369411904328	0.091755696	-0.18466823	-0.71893835	0.6637817	
1465369411904328	0.091755696	-0.18466823	-0.71893835	0.6637817	
1465369421914094	0.08950683	-0.18382782	-0.7204145	0.66272074	
1465369431923859	0.08737618	-0.1818323	-0.72146744	0.6624101	
1465369451912873	0.084009156	-0.17565522	-0.7223172	0.66358536	
1465369451912873	0.084009156	-0.17565522	-0.7223172	0.66358536	
1465369461892121	0.082598835	-0.17280315	-0.72234786	0.6644773	
1465369471901887	0.08093568	-0.17095898	-0.72223306	0.6652833	
1465369481911652	0.07852326	-0.17038204	-0.72278845	0.66511726	
1465369491890900	0.075527534	-0.17066766	-0.7233707	0.66475785	
1465369501900666	0.07187486	-0.1714845	-0.7246006	0.66361207	
1465369511910432	0.06798786	-0.1724655	-0.72564924	0.6626209	
1465369521889680	0.06402979	-0.17343599	-0.7268301	0.66146666	
1465369531868928	0.06024261	-0.17427856	-0.7279341	0.660386	
1465369541878693	0.056736972	-0.17502913	-0.7291795	0.6591228	
1465369551857941	0.053865958	-0.17560126	-0.730156	0.6581298	
1465369561867707	0.051572684	-0.17602322	-0.73133516	0.65689033	
1465369571877473	0.049829956	-0.17637505	-0.73235166	0.6557971	
1465369581887238	0.048258476	-0.17685555	-0.7335549	0.65443903	
1465369591866486	0.0466188	-0.1776736	-0.73458916	0.653175	
1465369601876252	0.044552065	-0.17901525	-0.73604167	0.6513151	
1465369611855500	0.042193998	-0.18086736	-0.73734456	0.64948416	
1465369621865266	0.03946992	-0.18318893	-0.7389146	0.6472165	
1465369631844514	0.036725778	-0.18553121	-0.7402494	0.6451824	
1465369651864045	0.031831816	-0.18884814	-0.74271894	0.6416321	
1465369651864045	0.031831816	-0.18884814	-0.74271894	0.6416321	
1465369661873811	0.030022142	-0.18917969	-0.7435151	0.64069885	
1465369671883576	0.028603747	-0.18852253	-0.7436228	0.6408325	
1465369681862824	0.027229978	-0.18700375	-0.74350214	0.641477	
1465369691872590	0.025666697	-0.18505706	-0.7427542	0.6429707	
1465369701851838	0.023489896	-0.18327262	-0.74205226	0.64437395	
1465369711831086	0.02075271	-0.181907	-0.7411739	0.64586407	
1465369721840852	0.01745171	-0.18107493	-0.7407083	0.6467291	
1465369731820100	0.01402943	-0.18082184	-0.74045235	0.64717615	
1465369751839631	0.008620916	-0.18169796	-0.7405952	0.64686185	
1465369751839631	0.008620916	-0.18169796	-0.7405952	0.64686185	
1465369761818879	0.007273499	-0.18256621	-0.7408361	0.6463579	
1465369771828645	0.006849166	-0.18369801	-0.740471	0.64646024	
1465369781838410	0.007046604	-0.18488206	-0.73999673	0.6466636	
1465369791817658	0.007802087	-0.18580048	-0.73907423	0.6474462	
1465369801827424	0.008742899	-0.18623619	-0.7382799	0.6482149	
1465369811806672	0.009771302	-0.18606557	-0.737019	0.6496823	
1465369821816438	0.010393986	-0.18525541	-0.73581153	0.6512709	
1465369831826203	0.010375291	-0.18382955	-0.7343409	0.6533319	
1465369841805451	0.009368257	-0.18196724	-0.7330581	0.655306	
1465369851815217	0.0075109703	-0.17984317	-0.7312705	0.6579084	
1465369861794465	0.00486672	-0.17757584	-0.7294582	0.6605557	
1465369871804230	0.0018009269	-0.17521033	-0.7273875	0.66347986	
1465369881783479	-0.0014377115	-0.17294316	-0.7253158	0.66633743	
1465369891793244	-0.004562916	-0.17092347	-0.7230807	0.66926724	
1465369901803010	-0.0073909694	-0.16917746	-0.7211151	0.67180157	
1465369911812775	-0.009620802	-0.16762404	-0.719066	0.67435426	
1465369921792023	-0.011252162	-0.16621867	-0.717395	0.67645335	
1465369931801789	-0.012222997	-0.16498952	-0.7157429	0.67848444	
1465369941781037	-0.012669924	-0.16400726	-0.71449375	0.6800292	
1465369951790803	-0.012450439	-0.16335545	-0.71301764	0.68173736	
1465369961770051	-0.011664315	-0.1630424	-0.711722	0.68317854	
1465369971779816	-0.01032008	-0.16301222	-0.7102002	0.6847892	
1465369981789582	-0.008642291	-0.16313127	-0.7088295	0.68620276	
1465369991768830	-0.006828428	-0.16337499	-0.7073813	0.6876581	
1465370001778596	-0.0053342395	-0.16386166	-0.7063512	0.6886137	
1465370011757844	-0.0043163383	-0.16479255	-0.7051741	0.6896044	
1465370021767609	-0.004050319	-0.166446	-0.70424664	0.6901565	
1465370031777375	-0.0045283684	-0.1690038	-0.7033066	0.6904904	
1465370041756623	-0.0056223404	-0.17239837	-0.7026575	0.69030404	
1465370051766389	-0.006914875	-0.17641394	-0.7017074	0.6902442	
1465370061745637	-0.008222897	-0.18061052	-0.7010401	0.6898225	
1465370081765168	-0.009438276	-0.18800874	-0.69891423	0.68998736	
1465370081765168	-0.009438276	-0.18800874	-0.69891423	0.68998736	
1465370091774934	-0.009139323	-0.19072257	-0.6975102	0.690667	
1465370101754182	-0.008230005	-0.19256882	-0.69636357	0.69132286	
1465370111733430	-0.006629798	-0.19362682	-0.69482684	0.6925896	
1465370121743195	-0.0049049454	-0.19428746	-0.69351405	0.6937338	
1465370131722443	-0.0036461034	-0.19533059	-0.6920939	0.69486594	
1465370141732209	-0.0037416124	-0.19751939	-0.6909561	0.69537884	
1465370151741975	-0.0054362942	-0.20077981	-0.68981874	0.6955631	
1465370161721223	-0.008679881	-0.20440379	-0.68909115	0.69519573	
1465370171700471	-0.012906061	-0.20758125	-0.6885089	0.6947654	
1465370181710236	-0.017592896	-0.20963897	-0.68844587	0.6941069	
1465370191720002	-0.021952443	-0.2102002	-0.68829995	0.69395757	
1465370201729768	-0.025569944	-0.20929883	-0.6884814	0.6939262	
1465370211709016	-0.027992206	-0.20744911	-0.6884353	0.6944337	
1465370221718781	-0.029550374	-0.2055972	-0.6883733	0.6949811	
1465370231728547	-0.03071478	-0.20456849	-0.68850285	0.6951059	
1465370241707795	-0.031525657	-0.20462506	-0.6884032	0.6951516	
1465370251687043	-0.03206834	-0.20563775	-0.6885487	0.6946837	
1465370261696809	-0.032046292	-0.20725979	-0.6886374	0.6941145	
1465370271706574	-0.031301066	-0.20890783	-0.6890314	0.6932629	
1465370281716340	-0.029439822	-0.20994547	-0.68926144	0.6928022	
1465370291695588	-0.026534673	-0.2099746	-0.68965054	0.6925234	
1465370301705354	-0.022680003	-0.20905443	-0.6895135	0.69307506	
1465370311684602	-0.018515548	-0.20727652	-0.6891551	0.6940885	
1465370321694367	-0.014537968	-0.20492926	-0.68801206	0.69601154	
1465370331673615	-0.0111588435	-0.20210326	-0.6866442	0.69824743	
1465370351662629	-0.007460543	-0.19660896	-0.6836783	0.7027612	
1465370351662629	-0.007460543	-0.19660896	-0.6836783	0.7027612	
1465370361672395	-0.0077849	-0.19544394	-0.6823295	0.7043916	
1465370371682160	-0.009580754	-0.19585678	-0.68149537	0.705062	
1465370381661408	-0.0124408845	-0.19776942	-0.6809746	0.7049866	
1465370391671174	-0.016067442	-0.20094725	-0.6812601	0.7037377	
1465370401650422	-0.019632598	-0.20493262	-0.6817407	0.7020305	
1465370411660188	-0.022652205	-0.2091566	-0.682675	0.69978225	
1465370421669953	-0.024648495	-0.21337427	-0.6834277	0.6977037	
1465370431649201	-0.025367558	-0.2174514	-0.68394375	0.69591117	
1465370441658967	-0.024573354	-0.22145136	-0.68378544	0.69483304	
1465370451668732	-0.023248764	-0.22574161	-0.6831696	0.6941034	
1465370471657746	-0.02583754	-0.2320382	-0.6828289	0.69226825	
1465370471657746	-0.02583754	-0.2320382	-0.6828289	0.69226825	
1465370481667512	-0.029495955	-0.233194	-0.68356293	0.69100815	
1465370491646760	-0.033572875	-0.23504746	-0.6839573	0.6898029	
1465370501656525	-0.03706212	-0.23672241	-0.6839286	0.68907946	
1465370521645539	-0.042582195	-0.23928061	-0.68405247	0.6877527	
1465370521645539	-0.042582195	-0.23928061	-0.68405247	0.6877527	
1465370531624787	-0.04433635	-0.24035902	-0.68357044	0.68774503	
1465370541634553	-0.045309883	-0.24123982	-0.6823863	0.6885487	
1465370551613801	-0.045600828	-0.242087	-0.6807986	0.68980265	
1465370561623566	-0.04510318	-0.2433368	-0.6786889	0.6914726	
1465370571633332	-0.044303898	-0.24544047	-0.67693025	0.69250387	
1465370581612580	-0.04317971	-0.24845076	-0.6750734	0.69331354	
1465370601601594	-0.041818637	-0.25608912	-0.671577	0.6940129	
1465370601601594	-0.041818637	-0.25608912	-0.671577	0.6940129	
1465370611611359	-0.042123288	-0.25970164	-0.66986686	0.69430476	
1465370621590607	-0.042367708	-0.26209396	-0.667749	0.6954301	
1465370631600373	-0.042089567	-0.2629	-0.6655939	0.69720644	
1465370641610139	-0.04096493	-0.26229525	-0.66319084	0.6997864	
1465370651589387	-0.03921976	-0.26052073	-0.660933	0.7026794	
1465370661599152	-0.036902748	-0.2578469	-0.6583418	0.7062147	
1465370671608918	-0.034391772	-0.25428152	-0.655768	0.71001863	
1465370691597932	-0.029236536	-0.24405563	-0.6506853	0.71846414	
1465370701607697	-0.026648216	-0.23777889	-0.648057	0.72303057	
1465370701607697	-0.026648216	-0.23777889	-0.648057	0.72303057	
1465370711617463	-0.024941893	-0.23156033	-0.64542496	0.7274506	
1465370721596711	-0.02490854	-0.22641662	-0.6423584	0.73177236	
1465370731575959	-0.026454443	-0.22302271	-0.6391104	0.7355943	
1465370741585725	-0.029036766	-0.22201939	-0.6354085	0.73899955	
1465370751595490	-0.03157003	-0.22279318	-0.6312722	0.74220073	
1465370761574738	-0.03301158	-0.22424574	-0.62672335	0.74554807	
1465370781563752	-0.032906845	-0.22838455	-0.6173377	0.75209826	
1465370781563752	-0.032906845	-0.22838455	-0.6173377	0.75209826	
1465370791573518	-0.031432174	-0.22967862	-0.6132758	0.75508446	
1465370801552766	-0.029475613	-0.23017657	-0.6092685	0.7582492	
1465370811532014	-0.028237954	-0.23029076	-0.6057598	0.76106757	
1465370821541779	-0.027026048	-0.22917296	-0.6029852	0.763648	
1465370841561311	-0.024172464	-0.22284965	-0.59853864	0.76909375	
1465370841561311	-0.024172464	-0.22284965	-0.59853864	0.76909375	
1465370851540559	-0.023673572	-0.21948315	-0.5964137	0.7717237	
1465370861519807	-0.023905557	-0.21694542	-0.59392697	0.7743474	
1465370871529572	-0.024751253	-0.21562016	-0.5912944	0.77670217	
1465370881508820	-0.026142666	-0.21571456	-0.58832747	0.7788803	
1465370891518586	-0.02798337	-0.21667835	-0.5852244	0.780884	
1465370901528352	-0.029649816	-0.21728714	-0.58160216	0.7833557	
1465370911507600	-0.03085136	-0.21672738	-0.5777801	0.7862872	
1465370921517365	-0.031584762	-0.2149359	-0.5736955	0.7897331	
1465370931527131	-0.03199238	-0.21205088	-0.56921774	0.79372674	
1465370951516145	-0.03233773	-0.20372929	-0.55875355	0.8032703	
1465370951516145	-0.03233773	-0.20372929	-0.55875355	0.8032703	
1465370961495393	-0.03217536	-0.198491	-0.55283004	0.8086687	
1465370971505158	-0.031929437	-0.19299649	-0.5466215	0.81420994	
1465370981484406	-0.03169743	-0.18826051	-0.53993624	0.8197695	
1465370991494172	-0.031671062	-0.18496683	-0.5330178	0.82503104	
1465371001503938	-0.032175515	-0.18354861	-0.5259769	0.8298331	
1465371011483186	-0.03310182	-0.18403867	-0.5190321	0.8340502	
1465371031472199	-0.034791484	-0.18728994	-0.50558096	0.8414867	
1465371031472199	-0.034791484	-0.18728994	-0.50558096	0.8414867	
1465371041481965	-0.035318755	-0.18904765	-0.499169	0.8448928	
1465371051491730	-0.035585236	-0.19045071	-0.49281898	0.84828746	
1465371061470979	-0.03556719	-0.19118783	-0.48647115	0.85177934	
1465371081459992	-0.036404435	-0.1905582	-0.4737039	0.85905004	
1465371081459992	-0.036404435	-0.1905582	-0.4737039	0.85905004	
1465371091469758	-0.03790546	-0.18869296	-0.46745846	0.8628098	
1465371101449006	-0.039769635	-0.1846574	-0.46127832	0.8669154	
1465371111458771	-0.042030696	-0.17776874	-0.45537832	0.87135655	
1465371121468537	-0.045055974	-0.16797957	-0.45000502	0.8759271	
1465371131447785	-0.049254827	-0.15577391	-0.4445857	0.8807111	
1465371141457551	-0.054297745	-0.14244802	-0.43959644	0.88516396	
1465371151467316	-0.05640089	-0.12740032	-0.4389099	0.88766336	
1465371161446564	-0.056114577	-0.11200108	-0.4432415	0.8876057	
1465371171456330	-0.05782299	-0.100401096	-0.4467644	0.8871176	
1465371181435578	-0.061023597	-0.092276625	-0.44920847	0.88655114	
1465371191445344	-0.063441314	-0.08665266	-0.45158303	0.88574225	
1465371201455109	-0.06484343	-0.08331035	-0.45400405	0.8847231	
1465371211434357	-0.06558722	-0.08245546	-0.45569772	0.8838773	
1465371221444123	-0.06603683	-0.084300995	-0.45654455	0.8832324	
1465371231453889	-0.06643055	-0.08821349	-0.45682642	0.88267493	
1465371241463654	-0.06696392	-0.09276865	-0.45709145	0.8820302	
1465371251473420	-0.068119675	-0.09800733	-0.45715994	0.8813394	
1465371261452668	-0.07001276	-0.10293071	-0.4575528	0.8804254	
1465371271462434	-0.07243859	-0.106122404	-0.45825768	0.87948316	
1465371281441682	-0.07517508	-0.106665686	-0.4594155	0.87858325	
1465371291420930	-0.078090265	-0.10477398	-0.46067965	0.8778944	
1465371301430695	-0.081281245	-0.101068996	-0.46230903	0.8771823	
1465371311440461	-0.084616154	-0.09608347	-0.4639916	0.8765386	
1465371321450227	-0.08786564	-0.09046238	-0.4658565	0.87582755	
1465371331429475	-0.090561435	-0.08486616	-0.46724802	0.87537175	
1465371341439240	-0.0923686	-0.079560995	-0.46838185	0.87507516	
1465371351418488	-0.09333568	-0.07540947	-0.46872082	0.87515867	
1465371361428254	-0.09379778	-0.07319173	-0.46892348	0.87518895	
1465371371407502	-0.09357355	-0.072959535	-0.46870202	0.87535095	
1465371381417268	-0.092611894	-0.07404576	-0.46862927	0.87540096	
1465371401436799	-0.09002429	-0.077574424	-0.4682024	0.8755937	
1465371401436799	-0.09002429	-0.077574424	-0.4682024	0.8755937	
1465371411416047	-0.0893425	-0.0794845	-0.46847713	0.87534523	
1465371421395295	-0.088866234	-0.08212451	-0.46901676	0.87486094	
1465371431405061	-0.08829934	-0.08467605	-0.46903992	0.87466264	
1465371441384309	-0.08784808	-0.08690239	-0.46924308	0.8743807	
1465371451363557	-0.08760945	-0.08896414	-0.4691311	0.8742574	
1465371461373322	-0.08755582	-0.09054851	-0.46889096	0.87422895	
1465371471383088	-0.08731145	-0.09118446	-0.46829218	0.8745082	
1465371481392854	-0.08673901	-0.090837635	-0.46799245	0.87476164	
1465371491402619	-0.08573507	-0.08999152	-0.46748638	0.8752186	
1465371501381867	-0.084364	-0.08910914	-0.46683112	0.8757916	
1465371511391633	-0.08269067	-0.08860405	-0.46557614	0.87667006	
1465371521370881	-0.08085952	-0.08851157	-0.4643564	0.8774968	
1465371531380646	-0.07877555	-0.088809885	-0.46268266	0.8785397	
1465371541390412	-0.07642769	-0.08942548	-0.46132183	0.87939984	
1465371551369660	-0.07355184	-0.09029601	-0.45982268	0.88034075	
1465371561379426	-0.07007003	-0.0913601	-0.4585552	0.88117576	
1465371571389191	-0.06620604	-0.09303875	-0.4567477	0.88223696	
1465371581368439	-0.06233956	-0.09561493	-0.45485193	0.8832221	
1465371591347688	-0.05858635	-0.099021696	-0.4523343	0.88439584	
1465371601357453	-0.05512601	-0.10275253	-0.4500558	0.88535464	
1465371611336701	-0.05190274	-0.106218085	-0.4478228	0.8862723	
1465371621346467	-0.04873881	-0.108927235	-0.44559687	0.8872445	
1465371631356232	-0.045571346	-0.11051921	-0.4438638	0.8880843	
1465371641365998	-0.042192925	-0.11084938	-0.44195667	0.8891605	
1465371651375764	-0.038638074	-0.11003137	-0.43988657	0.89044935	
1465371661355012	-0.03507768	-0.10867769	-0.43696955	0.8921975	
1465371671334260	-0.03191518	-0.10746129	-0.43377197	0.894022	
1465371681344025	-0.029431684	-0.106733516	-0.42991695	0.8960542	
1465371691353791	-0.027805539	-0.106230676	-0.42650476	0.89779484	
1465371701333039	-0.026615605	-0.105433255	-0.42338562	0.8993998	
1465371711342805	-0.02531452	-0.10399537	-0.42120683	0.90062696	
1465371721322053	-0.023400929	-0.10217694	-0.41908053	0.90187794	
1465371731331818	-0.020802915	-0.10044203	-0.41736427	0.90293175	
1465371741341584	-0.017234392	-0.098892875	-0.41473088	0.9043901	
1465371751320832	-0.012751328	-0.09761519	-0.41172048	0.9059773	
1465371761330598	-0.007877664	-0.097030364	-0.40747288	0.9080137	
1465371771340363	-0.003437621	-0.09733894	-0.40301698	0.90999484	
1465371781319611	6.335027E-5	-0.098386995	-0.39821962	0.91199845	
1465371791329377	0.0023203297	-0.099461645	-0.39437562	0.91354793	
1465371811318391	0.0034383407	-0.099208415	-0.38954514	0.9156421	
1465371811318391	0.0034383407	-0.099208415	-0.38954514	0.9156421	
1465371821297639	0.002859677	-0.09785336	-0.3887155	0.91614234	
1465371831307404	0.0018697238	-0.09655792	-0.38863185	0.9163178	
1465371841317170	6.69624E-4	-0.096054286	-0.3886798	0.9163521	
1465371861306184	-0.0019521395	-0.09824255	-0.38871545	0.9161031	
1465371861306184	-0.0019521395	-0.09824255	-0.38871545	0.9161031	
1465371871285432	-0.0030154283	-0.10067592	-0.38887134	0.9157698	
1465371881295197	-0.003549567	-0.10330311	-0.38861042	0.91558605	
1465371891304963	-0.003517812	-0.105544075	-0.38874128	0.915275	
1465371911263459	-0.0026828116	-0.10914204	-0.3883662	0.91501504	
1465371911263459	-0.0026828116	-0.10914204	-0.3883662	0.91501504	
1465371921273225	-0.0025266388	-0.11068634	-0.38786885	0.9150409	
1465371941262238	-0.0028636875	-0.11286079	-0.38786143	0.91477746	
1465371941262238	-0.0028636875	-0.11286079	-0.38786143	0.91477746	
1465371951272004	-0.0031002178	-0.11368977	-0.3880233	0.9146054	
1465371971261018	-0.0035243798	-0.11574684	-0.38797712	0.91436535	
1465371971261018	-0.0035243798	-0.11574684	-0.38797712	0.91436535	
1465371981270783	-0.003793338	-0.11693374	-0.38794968	0.91422486	
1465371991280549	-0.004002002	-0.11774633	-0.38840124	0.9139279	
1465372001290314	-0.0038574126	-0.11782011	-0.38860944	0.9138305	
1465372011269563	-0.0034831495	-0.11750567	-0.38892877	0.91373664	
1465372021279328	-0.0028957531	-0.11721474	-0.38872504	0.91386276	
1465372031258576	-0.0021057858	-0.11679528	-0.38870916	0.9139254	
1465372051247590	6.7006843E-4	-0.115244225	-0.38737255	0.9146917	
1465372051247590	6.7006843E-4	-0.115244225	-0.38737255	0.9146917	
1465372061257355	0.0023278673	-0.11476264	-0.38616624	0.9152594	
1465372081246369	0.005674127	-0.1148534	-0.38278997	0.9166506	
1465372081246369	0.005674127	-0.1148534	-0.38278997	0.9166506	
1465372091225617	0.0072019342	-0.115146555	-0.38096166	0.9173645	
1465372111214631	0.009533028	-0.11576313	-0.37685212	0.91896164	
1465372111214631	0.009533028	-0.11576313	-0.37685212	0.91896164	
1465372121224396	0.00988743	-0.116348565	-0.3749371	0.919667	
1465372131234162	0.009567536	-0.117115386	-0.37392786	0.9199839	
1465372141243928	0.008678756	-0.11782861	-0.37302843	0.92026675	
1465372161202424	0.005900739	-0.11837946	-0.3726853	0.9203571	
1465372161202424	0.005900739	-0.11837946	-0.3726853	0.9203571	
1465372171181672	0.0045000776	-0.11812528	-0.37301257	0.9202651	
1465372181191438	0.0034079542	-0.11783963	-0.37283662	0.9203777	
1465372191201203	0.0026396508	-0.11759934	-0.3734795	0.9201503	
1465372201180451	0.0024986058	-0.11765938	-0.37378377	0.92001945	
1465372211190217	0.0028823474	-0.118517555	-0.37451744	0.91960967	
1465372221169465	0.003846306	-0.120096765	-0.3746895	0.91933113	
1465372231179230	0.00515746	-0.12181591	-0.3754476	0.9187891	
1465372241188996	0.006822255	-0.12310943	-0.3754104	0.918621	
1465372261178010	0.0106609985	-0.12235823	-0.37652928	0.91822684	
1465372261178010	0.0106609985	-0.12235823	-0.37652928	0.91822684	
1465372271157258	0.01301174	-0.119991444	-0.3772659	0.9182065	
1465372281167023	0.015817586	-0.11683146	-0.3776169	0.9184257	
1465372291176789	0.018711518	-0.11414418	-0.37748095	0.918765	
1465372311165803	0.02204301	-0.114796765	-0.37675768	0.9189067	
1465372311165803	0.02204301	-0.114796765	-0.37675768	0.9189067	
1465372321175568	0.022078633	-0.11760674	-0.3769476	0.91847247	
1465372331154816	0.021347957	-0.12054241	-0.37836432	0.9175261	
1465372341164582	0.020394722	-0.122775085	-0.38047567	0.91637796	
1465372361153596	0.019137762	-0.124711014	-0.38587698	0.9138818	
1465372361153596	0.019137762	-0.124711014	-0.38587698	0.9138818	
1465372371163361	0.018976452	-0.12544332	-0.38851088	0.91266817	
1465372381173127	0.019196987	-0.12639037	-0.39058086	0.9116488	
1465372391182893	0.01988763	-0.12732875	-0.3925321	0.9106648	
1465372411141389	0.023231193	-0.12845272	-0.39535874	0.9092039	
1465372411141389	0.023231193	-0.12845272	-0.39535874	0.9092039	
1465372421151154	0.02562413	-0.12903626	-0.39670065	0.9084721	
1465372431160920	0.028089296	-0.13011001	-0.39821956	0.90758115	
1465372441170686	0.030346816	-0.13190238	-0.39944595	0.9067104	
1465372451149934	0.032073278	-0.13444169	-0.40099227	0.9055948	
1465372461129182	0.033262946	-0.13752522	-0.40241787	0.9044558	
1465372471138947	0.033828147	-0.14081189	-0.40433174	0.9030745	
1465372481148713	0.03394941	-0.14384262	-0.40634328	0.90168834	
1465372491127961	0.03362234	-0.14643714	-0.409017	0.9000727	
1465372511116975	0.032070357	-0.15041992	-0.41515103	0.89665765	
1465372511116975	0.032070357	-0.15041992	-0.41515103	0.89665765	
1465372521126740	0.031139273	-0.15178633	-0.41822127	0.895032	
1465372531136506	0.030346692	-0.1526595	-0.42148986	0.8933759	
1465372541146271	0.029899102	-0.15320131	-0.42453793	0.89185363	
1465372551125520	0.030413069	-0.15397708	-0.42916793	0.8894836	
1465372561104768	0.030413069	-0.15397708	-0.42916793	0.8894836	
1465372571114533	0.031373214	-0.1544518	-0.43101704	0.8884732	
1465372581124299	0.032772094	-0.15512116	-0.43216714	0.8877471	
1465372591103547	0.03431249	-0.1560393	-0.4333069	0.8869721	
1465372611123078	0.037040703	-0.15865585	-0.4347321	0.88569987	
1465372611123078	0.037040703	-0.15865585	-0.4347321	0.88569987	
1465372621102326	0.03795571	-0.16007702	-0.4353564	0.8850986	
1465372631112092	0.03863126	-0.16117407	-0.43596804	0.88456905	
1465372641121857	0.039139878	-0.16181545	-0.43648383	0.8841751	
1465372661110871	0.04005751	-0.16151913	-0.43696746	0.88394934	
1465372661110871	0.04005751	-0.16151913	-0.43696746	0.88394934	
1465372671090119	0.04062122	-0.16051961	-0.4368644	0.8841566	
1465372681099885	0.041280422	-0.15909213	-0.4363036	0.88466084	
1465372691109650	0.041992664	-0.15741287	-0.43532562	0.8854092	
1465372711119761	0.043396603	-0.1533938	-0.43212128	0.88761383	
1465372711119761	0.043396603	-0.1533938	-0.43212128	0.88761383	
1465372721099009	0.043984015	-0.15084696	-0.4302342	0.88893706	
1465372731078257	0.044438045	-0.14777252	-0.42824087	0.89039224	
1465372741088023	0.04492042	-0.14391406	-0.42600474	0.8920711	
1465372751097788	0.045497574	-0.13907297	-0.4240574	0.893736	
1465372761107554	0.046308838	-0.13328086	-0.42187095	0.8956096	
1465372771086802	0.04734243	-0.12695	-0.41938785	0.8976393	
1465372781096568	0.04872412	-0.12042254	-0.41600865	0.900034	
1465372791075816	0.050375603	-0.114131466	-0.4122481	0.9024898	
1465372811064829	0.053384542	-0.104056284	-0.40319413	0.90761054	
1465372811064829	0.053384542	-0.104056284	-0.40319413	0.90761054	
1465372821074595	0.05372222	-0.100965664	-0.39878666	0.9098841	
1465372831084361	0.05295827	-0.09916112	-0.39532682	0.91163546	
1465372841063609	0.051294535	-0.09838012	-0.3927764	0.9129167	
1465372861083140	0.04625743	-0.09852648	-0.3905935	0.91410583	
1465372861083140	0.04625743	-0.09852648	-0.3905935	0.91410583	
1465372871092906	0.043578025	-0.09920587	-0.39071298	0.914113	
1465372881072154	0.041071948	-0.10046779	-0.39119813	0.9138837	
1465372891081919	0.038878333	-0.10226228	-0.39193678	0.913464	
1465372911040415	0.036352612	-0.10639671	-0.39342928	0.91245365	
1465372911040415	0.036352612	-0.10639671	-0.39342928	0.91245365	
1465372921019663	0.03611278	-0.10859047	-0.39410728	0.91191196	
1465372931029429	0.036435593	-0.111030415	-0.395007	0.9112158	
1465372941039195	0.03722906	-0.113763556	-0.39590824	0.9104551	
1465372961028208	0.0399965	-0.11938689	-0.39804262	0.9086854	
1465372961028208	0.0399965	-0.11938689	-0.39804262	0.9086854	
1465372971037974	0.041751932	-0.12182071	-0.39938837	0.9076924	
1465372981047740	0.043388184	-0.12395125	-0.40078756	0.9067099	
1465372991057505	0.04456957	-0.12599875	-0.4020149	0.9058266	
1465373011046519	0.04476065	-0.12983301	-0.40443859	0.90419537	
1465373011046519	0.04476065	-0.12983301	-0.40443859	0.90419537	
1465373021025767	0.043871246	-0.13095959	-0.40567756	0.90352124	
1465373031005015	0.04262316	-0.13103321	-0.4069457	0.9029999	
1465373041014781	0.041355252	-0.12987527	-0.4085051	0.90252185	
1465373061003794	0.039969537	-0.12526295	-0.41146186	0.9018929	
1465373061003794	0.039969537	-0.12526295	-0.41146186	0.9018929	
1465373071013560	0.03986718	-0.123125	-0.41291353	0.9015283	
1465373081023326	0.040206034	-0.12160587	-0.41430515	0.90108085	
1465373091002574	0.04106815	-0.12084515	-0.41549096	0.9005982	
1465373110991587	0.044401858	-0.12151085	-0.4178708	0.89924836	
1465373110991587	0.044401858	-0.12151085	-0.4178708	0.89924836	
1465373121001353	0.04682738	-0.122435555	-0.41892532	0.8985089	
1465373131011118	0.049526982	-0.12344426	-0.41978538	0.8978245	
1465373140990367	0.05226473	-0.12437162	-0.42053977	0.89718807	
1465373151000132	0.057523355	-0.12552439	-0.42121652	0.89638793	
1465373160979380	0.057523355	-0.12552439	-0.42121652	0.89638793	
1465373170989146	0.05977017	-0.12537906	-0.4209943	0.89636564	
1465373180998911	0.061391182	-0.1247036	-0.420759	0.89646083	
1465373190978160	0.062213644	-0.12361764	-0.4203104	0.89676493	
1465373210967173	0.06116571	-0.12083854	-0.42047593	0.8971381	
1465373210967173	0.06116571	-0.12083854	-0.42047593	0.8971381	
1465373220976939	0.059576634	-0.11935029	-0.4210512	0.8971745	
1465373230986704	0.05759217	-0.11783197	-0.42182425	0.89714164	
1465373240965952	0.055421498	-0.11629265	-0.42284748	0.89699745	
1465373260985484	0.051023945	-0.1135676	-0.42484143	0.89666533	
1465373260985484	0.051023945	-0.1135676	-0.42484143	0.89666533	
1465373270964732	0.048841823	-0.11267053	-0.42581964	0.896436	
1465373280974497	0.04675235	-0.11198705	-0.42676353	0.89618415	
