# OpenSignals Text File Format
# {"00:07:80:4D:2E:AD": {"sensor": ["EMG", "EMG", "XYZ"], "device name": "00:07:80:4D:2E:AD", "column": ["nSeq", "DI", "CH1", "CH2", "CH3"], "sync interval": 2, "time": "15:28:32.907", "comments": "no action | ch1_flexor_digitorum_superficialis ch2_aductor_policis ch3_acc_z [trial 3]", "device connection": "BTH00:07:80:4D:2E:AD", "channels": [1, 2, 3], "keywords": "", "mode": 0, "digital IO": [0, 1], "firmware version": 773, "device": "biosignalsplux", "position": 0, "sampling rate": 1000, "label": ["CH1", "CH2", "CH3"], "resolution": [16, 16, 16], "date": "2019-1-23", "special": [{}, {}, {}]}}
# EndOfHeader
0	0	32855	32804	37804	
1	0	32837	32761	37812	
2	0	32869	32704	37812	
3	0	32836	32745	37824	
4	0	32696	32809	37832	
5	0	32689	32895	37860	
6	0	32716	32820	37855	
7	0	32756	32808	37848	
8	0	32760	32868	37869	
9	0	32676	32871	37876	
10	0	32720	32875	37888	
11	0	32750	32825	37868	
12	0	32668	32905	37885	
13	0	32732	32794	37894	
14	0	32788	32853	37877	
15	0	32826	32830	37880	
16	0	32848	32797	37911	
17	0	32904	32826	37895	
18	0	32832	32936	37893	
19	0	33024	32830	37891	
20	0	32880	32861	37892	
21	0	32854	32744	37885	
22	0	32856	32904	37894	
23	0	32776	32734	37884	
24	0	32748	32782	37879	
25	0	32764	32841	37884	
26	0	32708	32873	37895	
27	0	32744	32828	37916	
28	0	32664	32849	37932	
29	0	32660	32900	37918	
30	0	32748	32848	37901	
31	0	32748	32912	37876	
32	0	32692	32793	37888	
33	0	32701	32866	37868	
34	0	32748	32804	37877	
35	0	32776	32781	37870	
36	0	32876	32712	37872	
37	0	32852	32748	37900	
38	0	32936	32806	37908	
39	0	32958	32824	37897	
40	0	32928	32895	37888	
41	0	32812	32760	37881	
42	0	32844	32834	37881	
43	0	32772	32802	37884	
44	0	32756	32862	37871	
45	0	32742	32895	37872	
46	0	32713	32765	37873	
47	0	32736	32880	37869	
48	0	32688	32872	37888	
49	0	32694	32824	37932	
50	0	32721	32877	37932	
51	0	32698	32817	37924	
52	0	32704	32880	37900	
53	0	32720	32770	37894	
54	0	32797	32854	37868	
55	0	32790	32793	37865	
56	0	32788	32832	37860	
57	0	32872	32758	37864	
58	0	32916	32860	37856	
59	0	32900	32798	37824	
60	0	32908	32883	37824	
61	0	32864	32768	37836	
62	0	32840	32840	37840	
63	0	32728	32896	37853	
64	0	32676	32752	37836	
65	0	32761	32867	37849	
66	0	32700	32856	37837	
67	0	32713	32837	37852	
68	0	32644	32928	37861	
69	0	32712	32935	37876	
70	0	32686	32838	37865	
71	0	32720	32825	37877	
72	0	32684	32857	37884	
73	0	32744	32768	37885	
74	0	32700	32830	37878	
75	0	32784	32873	37856	
76	0	32936	32744	37853	
77	0	32876	32786	37837	
78	0	33028	32800	37856	
79	0	33028	32796	37852	
80	0	32918	32868	37848	
81	0	32896	32814	37854	
82	0	32776	32791	37862	
83	0	32776	32889	37850	
84	0	32828	32800	37869	
85	0	32770	32822	37876	
86	0	32656	32909	37844	
87	0	32708	32835	37868	
88	0	32646	32900	37873	
89	0	32728	32840	37860	
90	0	32721	32940	37853	
91	0	32724	32837	37862	
92	0	32742	32744	37856	
93	0	32690	32836	37864	
94	0	32708	32815	37869	
95	0	32832	32860	37861	
96	0	32824	32825	37840	
97	0	32844	32768	37824	
98	0	32828	32868	37808	
99	0	32956	32746	37804	
100	0	32900	32785	37832	
101	0	32844	32834	37804	
102	0	32877	32745	37806	
103	0	32826	32796	37796	
104	0	32740	32856	37792	
105	0	32764	32864	37773	
106	0	32634	32780	37804	
107	0	32784	32852	37828	
108	0	32692	32852	37825	
109	0	32664	32828	37837	
110	0	32782	32924	37834	
111	0	32710	32921	37836	
112	0	32708	32920	37828	
113	0	32754	32816	37822	
114	0	32648	32838	37840	
115	0	32806	32825	37837	
116	0	32913	32772	37844	
117	0	32904	32786	37832	
118	0	32960	32772	37830	
119	0	32932	32752	37828	
120	0	32896	32740	37810	
121	0	32872	32796	37804	
122	0	32766	32813	37812	
123	0	32784	32816	37813	
124	0	32801	32824	37821	
125	0	32792	32860	37812	
126	0	32704	32940	37828	
127	0	32664	32789	37852	
128	0	32724	32917	37857	
129	0	32764	32841	37892	
130	0	32740	32909	37910	
131	0	32720	32896	37876	
132	0	32692	32769	37872	
133	0	32768	32869	37876	
134	0	32812	32756	37852	
135	0	32754	32812	37832	
136	0	32820	32777	37848	
137	0	32881	32764	37852	
138	0	32896	32796	37864	
139	0	32906	32760	37844	
140	0	32928	32780	37817	
141	0	32836	32768	37824	
142	0	32861	32860	37836	
143	0	32804	32862	37856	
144	0	32680	32839	37853	
145	0	32746	32900	37872	
146	0	32696	32928	37870	
147	0	32740	32890	37876	
148	0	32754	32938	37895	
149	0	32681	32918	37912	
150	0	32766	32921	37917	
151	0	32696	32874	37890	
152	0	32692	32833	37905	
153	0	32724	32845	37895	
154	0	32722	32920	37879	
155	0	32764	32868	37872	
156	0	32866	32735	37885	
157	0	32824	32820	37876	
158	0	32968	32764	37892	
159	0	32934	32828	37880	
160	0	32928	32775	37884	
161	0	32976	32748	37886	
162	0	32820	32769	37921	
163	0	32816	32742	37916	
164	0	32757	32788	37924	
165	0	32749	32853	37916	
166	0	32728	32902	37944	
167	0	32732	32856	37948	
168	0	32716	32868	37959	
169	0	32628	32904	37973	
170	0	32726	32906	37988	
171	0	32681	32861	37991	
172	0	32620	32820	37968	
173	0	32705	32792	37952	
174	0	32760	32772	37944	
175	0	32796	32834	37968	
176	0	32864	32804	37961	
177	0	32884	32904	37962	
178	0	32996	32861	37952	
179	0	32988	32872	37924	
180	0	32912	32902	37924	
181	0	32864	32880	37937	
182	0	32828	32914	37917	
183	0	32892	32844	37903	
184	0	32776	32866	37917	
185	0	32684	32826	37905	
186	0	32700	32806	37912	
187	0	32772	32835	37917	
188	0	32668	32832	37921	
189	0	32660	32896	37913	
190	0	32720	32840	37876	
191	0	32764	32838	37856	
192	0	32740	32802	37840	
193	0	32790	32768	37848	
194	0	32736	32804	37829	
195	0	32730	32869	37816	
196	0	32900	32866	37806	
197	0	32856	32769	37781	
198	0	32936	32824	37784	
199	0	32993	32740	37752	
200	0	32901	32790	37744	
201	0	32852	32804	37740	
202	0	32798	32820	37744	
203	0	32788	32775	37732	
204	0	32724	32820	37732	
205	0	32790	32783	37736	
206	0	32660	32827	37732	
207	0	32676	32884	37748	
208	0	32768	32924	37748	
209	0	32688	32916	37752	
210	0	32756	32808	37772	
211	0	32756	32868	37766	
212	0	32692	32932	37782	
213	0	32656	32681	37783	
214	0	32804	32740	37760	
215	0	32740	32822	37768	
216	0	32774	32676	37769	
217	0	32868	32784	37778	
218	0	32842	32678	37788	
219	0	32890	32863	37793	
220	0	32948	32901	37804	
221	0	32864	32823	37828	
222	0	32820	32892	37832	
223	0	32800	32912	37836	
224	0	32745	32852	37820	
225	0	32793	32863	37828	
226	0	32780	32892	37805	
227	0	32716	32817	37814	
228	0	32712	32844	37824	
229	0	32632	32920	37860	
230	0	32716	32872	37868	
231	0	32732	32832	37864	
232	0	32745	32934	37884	
233	0	32749	32870	37890	
234	0	32788	32866	37885	
235	0	32746	32815	37868	
236	0	32828	32797	37873	
237	0	32888	32844	37895	
238	0	32980	32747	37882	
239	0	32917	32804	37864	
240	0	32856	32796	37872	
241	0	32872	32760	37879	
242	0	32856	32808	37878	
243	0	32824	32840	37877	
244	0	32836	32850	37881	
245	0	32813	32845	37868	
246	0	32706	32894	37887	
247	0	32646	32820	37922	
248	0	32693	32932	37913	
249	0	32724	32804	37918	
250	0	32716	32856	37938	
251	0	32704	32897	37925	
252	0	32732	32788	37895	
253	0	32696	32879	37909	
254	0	32764	32820	37886	
255	0	32789	32764	37880	
256	0	32828	32801	37893	
257	0	32936	32900	37905	
258	0	32916	32784	37916	
259	0	32912	32831	37914	
260	0	32884	32869	37916	
261	0	32860	32836	37917	
262	0	32856	32776	37908	
263	0	32795	32852	37900	
264	0	32776	32897	37905	
265	0	32701	32852	37904	
266	0	32716	32826	37916	
267	0	32740	32932	37936	
268	0	32744	32821	37925	
269	0	32696	32808	37950	
270	0	32714	32932	37936	
271	0	32720	32832	37924	
272	0	32748	32876	37902	
273	0	32740	32853	37904	
274	0	32728	32800	37912	
275	0	32820	32852	37904	
276	0	32796	32848	37908	
277	0	32812	32764	37889	
278	0	32876	32744	37906	
279	0	32900	32808	37879	
280	0	32908	32782	37880	
281	0	32864	32796	37861	
282	0	32888	32728	37882	
283	0	32853	32815	37880	
284	0	32756	32832	37894	
285	0	32821	32868	37894	
286	0	32696	32856	37910	
287	0	32716	32818	37895	
288	0	32700	32860	37863	
289	0	32718	32924	37868	
290	0	32768	32884	37860	
291	0	32728	32924	37856	
292	0	32765	32876	37849	
293	0	32696	32793	37860	
294	0	32740	32820	37860	
295	0	32794	32775	37862	
296	0	32828	32769	37856	
297	0	32820	32808	37860	
298	0	32913	32842	37856	
299	0	32978	32860	37860	
300	0	32917	32944	37841	
301	0	32866	32768	37844	
302	0	32868	32804	37838	
303	0	32776	32888	37825	
304	0	32785	32793	37817	
305	0	32725	32832	37816	
306	0	32688	32900	37828	
307	0	32674	32837	37841	
308	0	32677	32876	37861	
309	0	32684	32870	37865	
310	0	32696	32816	37860	
311	0	32693	32888	37877	
312	0	32637	32956	37866	
313	0	32684	32804	37877	
314	0	32670	32828	37864	
315	0	32768	32818	37858	
316	0	32820	32722	37860	
317	0	32908	32870	37865	
318	0	32945	32900	37864	
319	0	32960	32788	37868	
320	0	32924	32793	37860	
321	0	32868	32792	37852	
322	0	32804	32761	37872	
323	0	32848	32805	37844	
324	0	32728	32836	37869	
325	0	32704	32868	37868	
326	0	32740	32848	37876	
327	0	32800	32862	37876	
328	0	32704	32852	37872	
329	0	32657	32870	37856	
330	0	32718	32848	37864	
331	0	32708	32837	37873	
332	0	32670	32868	37873	
333	0	32692	32828	37871	
334	0	32720	32848	37856	
335	0	32796	32775	37860	
336	0	32864	32858	37873	
337	0	32892	32728	37853	
338	0	32908	32780	37848	
339	0	32884	32824	37834	
340	0	32929	32764	37820	
341	0	32872	32796	37824	
342	0	32864	32820	37828	
343	0	32845	32807	37816	
344	0	32820	32869	37822	
345	0	32712	32888	37844	
346	0	32734	32886	37832	
347	0	32716	32873	37841	
348	0	32734	33001	37826	
349	0	32618	32812	37841	
350	0	32732	32966	37854	
351	0	32668	32808	37870	
352	0	32793	32812	37876	
353	0	32690	32896	37856	
354	0	32818	32732	37828	
355	0	32852	32768	37832	
356	0	32805	32740	37840	
357	0	32848	32812	37851	
358	0	32917	32832	37848	
359	0	32916	32880	37841	
360	0	32816	32806	37840	
361	0	32872	32780	37825	
362	0	32804	32863	37823	
363	0	32790	32850	37821	
364	0	32814	32815	37817	
365	0	32744	32904	37840	
366	0	32756	32812	37848	
367	0	32793	32944	37838	
368	0	32732	32832	37850	
369	0	32728	32905	37855	
370	0	32644	32812	37860	
371	0	32753	32828	37864	
372	0	32740	32852	37856	
373	0	32717	32748	37848	
374	0	32752	32808	37869	
375	0	32772	32858	37894	
376	0	32864	32748	37864	
377	0	32900	32820	37873	
378	0	32877	32817	37895	
379	0	32876	32809	37850	
380	0	32892	32841	37844	
381	0	32892	32834	37860	
382	0	32832	32824	37860	
383	0	32852	32837	37865	
384	0	32784	32884	37860	
385	0	32794	32896	37873	
386	0	32736	32808	37864	
387	0	32724	32905	37884	
388	0	32688	32880	37884	
389	0	32708	32953	37887	
390	0	32692	32839	37884	
391	0	32724	32905	37894	
392	0	32752	32840	37888	
393	0	32740	32889	37892	
394	0	32708	32768	37880	
395	0	32777	32804	37901	
396	0	32844	32804	37873	
397	0	32884	32766	37872	
398	0	32893	32856	37876	
399	0	32948	32828	37864	
400	0	32960	32800	37855	
401	0	32892	32756	37871	
402	0	32908	32844	37848	
403	0	32776	32870	37844	
404	0	32716	32802	37849	
405	0	32734	32869	37877	
406	0	32728	32840	37908	
407	0	32732	32881	37905	
408	0	32684	32948	37904	
409	0	32732	32913	37910	
410	0	32749	32877	37924	
411	0	32736	32877	37908	
412	0	32708	32906	37916	
413	0	32736	32822	37900	
414	0	32741	32766	37926	
415	0	32720	32728	37910	
416	0	32808	32796	37896	
417	0	32872	32752	37868	
418	0	32908	32766	37888	
419	0	32944	32775	37870	
420	0	32952	32749	37876	
421	0	32886	32697	37876	
422	0	32892	32736	37877	
423	0	32808	32820	37900	
424	0	32772	32833	37893	
425	0	32724	32871	37898	
426	0	32668	32893	37881	
427	0	32728	32834	37877	
428	0	32689	32960	37908	
429	0	32685	32869	37921	
430	0	32712	32868	37928	
431	0	32688	32852	37919	
432	0	32744	32708	37895	
433	0	32708	32813	37904	
434	0	32744	32796	37912	
435	0	32758	32734	37920	
436	0	32884	32800	37900	
437	0	32814	32936	37873	
438	0	32868	32788	37876	
439	0	32872	32784	37849	
440	0	32897	32802	37860	
441	0	32916	32791	37874	
442	0	32824	32848	37860	
443	0	32868	32797	37832	
444	0	32794	32869	37841	
445	0	32808	32889	37840	
446	0	32644	32760	37844	
447	0	32752	32852	37856	
448	0	32800	32856	37882	
449	0	32596	32932	37885	
450	0	32684	32976	37888	
451	0	32737	32774	37898	
452	0	32708	32872	37869	
453	0	32722	32832	37849	
454	0	32744	32788	37868	
455	0	32824	32792	37865	
456	0	32788	32800	37841	
457	0	32860	32872	37840	
458	0	32844	32817	37828	
459	0	32880	32928	37824	
460	0	32908	32713	37831	
461	0	32910	32912	37833	
462	0	32888	32838	37828	
463	0	32816	32753	37832	
464	0	32776	32820	37844	
465	0	32821	32820	37836	
466	0	32740	32798	37855	
467	0	32713	32850	37872	
468	0	32696	32940	37840	
469	0	32685	32904	37869	
470	0	32700	32866	37844	
471	0	32724	32815	37824	
472	0	32682	32812	37828	
473	0	32672	32812	37838	
474	0	32769	32829	37832	
475	0	32800	32800	37849	
476	0	32820	32740	37828	
477	0	32840	32808	37824	
478	0	32920	32785	37828	
479	0	32944	32772	37824	
480	0	32902	32840	37822	
481	0	32888	32857	37820	
482	0	32876	32840	37820	
483	0	32888	32864	37821	
484	0	32784	32818	37808	
485	0	32792	32812	37776	
486	0	32772	33012	37767	
487	0	32628	32912	37776	
488	0	32661	32950	37812	
489	0	32728	33016	37831	
490	0	32714	32816	37828	
491	0	32756	32860	37821	
492	0	32706	32714	37829	
493	0	32720	32780	37828	
494	0	32740	32766	37822	
495	0	32728	32698	37816	
496	0	32850	32820	37797	
497	0	32836	32876	37834	
498	0	32968	32800	37836	
499	0	32964	32804	37812	
500	0	32863	32748	37817	
501	0	32922	32903	37805	
502	0	32836	32840	37798	
503	0	32832	32828	37794	
504	0	32744	32924	37812	
505	0	32694	32940	37829	
506	0	32745	32817	37844	
507	0	32692	32849	37862	
508	0	32696	32844	37882	
509	0	32680	32836	37900	
510	0	32720	32806	37912	
511	0	32684	32784	37912	
512	0	32728	32885	37900	
513	0	32716	32801	37924	
514	0	32818	32844	37920	
515	0	32792	32806	37935	
516	0	32900	32761	37928	
517	0	32864	32724	37929	
518	0	32848	32740	37929	
519	0	32945	32852	37924	
520	0	32944	32768	37944	
521	0	32842	32800	37910	
522	0	32884	32840	37916	
523	0	32844	32764	37940	
524	0	32772	32789	37941	
525	0	32784	32833	37968	
526	0	32692	32932	37964	
527	0	32698	32884	37980	
528	0	32712	32900	37962	
529	0	32676	32884	37960	
530	0	32694	32861	37968	
531	0	32705	32868	37977	
532	0	32736	32752	37988	
533	0	32674	32880	37985	
534	0	32784	32884	37976	
535	0	32772	32814	37980	
536	0	32804	32892	37993	
537	0	32834	32864	38004	
538	0	32942	32812	37989	
539	0	32901	32864	37972	
540	0	32928	32832	37976	
541	0	32916	32728	37966	
542	0	32836	32816	37941	
543	0	32776	32812	37940	
544	0	32760	32880	37908	
545	0	32716	32912	37880	
546	0	32733	32868	37884	
547	0	32720	32884	37911	
548	0	32676	32861	37916	
549	0	32716	32880	37924	
550	0	32752	32809	37916	
551	0	32724	32865	37913	
552	0	32712	32801	37908	
553	0	32644	32768	37892	
554	0	32756	32869	37876	
555	0	32772	32804	37868	
556	0	32825	32920	37870	
557	0	32916	32785	37860	
558	0	32972	32888	37889	
559	0	32897	32705	37853	
560	0	32932	32860	37856	
561	0	32908	32892	37860	
562	0	32845	32845	37833	
563	0	32788	32861	37836	
564	0	32776	32772	37855	
565	0	32736	32814	37860	
566	0	32712	32899	37844	
567	0	32677	32804	37833	
568	0	32724	32788	37836	
569	0	32700	32967	37860	
570	0	32693	32888	37828	
571	0	32705	32860	37845	
572	0	32676	32852	37839	
573	0	32676	32789	37848	
574	0	32782	32940	37834	
575	0	32820	32814	37812	
576	0	32840	32800	37801	
577	0	32848	32841	37824	
578	0	32988	32770	37796	
579	0	32940	32774	37793	
580	0	32976	32678	37785	
581	0	32876	32812	37792	
582	0	32800	32749	37790	
583	0	32854	32809	37768	
584	0	32736	32781	37794	
585	0	32752	32788	37799	
586	0	32732	32873	37812	
587	0	32749	32824	37804	
588	0	32672	32874	37799	
589	0	32644	32936	37798	
590	0	32656	32840	37802	
591	0	32696	32880	37814	
592	0	32720	32885	37805	
593	0	32692	32805	37808	
594	0	32733	32809	37830	
595	0	32821	32788	37824	
596	0	32780	32780	37833	
597	0	32888	32736	37838	
598	0	32909	32820	37824	
599	0	32896	32936	37833	
600	0	32852	32855	37804	
601	0	32890	32792	37820	
602	0	32780	32869	37820	
603	0	32864	32868	37820	
604	0	32776	32860	37809	
605	0	32741	32888	37816	
606	0	32760	32824	37840	
607	0	32688	32821	37853	
608	0	32700	32932	37853	
609	0	32672	32880	37856	
610	0	32678	32893	37860	
611	0	32680	32823	37856	
612	0	32656	32792	37871	
613	0	32748	32692	37880	
614	0	32744	32808	37872	
615	0	32804	32860	37868	
616	0	32824	32786	37869	
617	0	32854	32832	37868	
618	0	32976	32846	37880	
619	0	32964	32816	37854	
620	0	32932	32940	37853	
621	0	32948	32824	37845	
622	0	32856	32829	37837	
623	0	32784	32938	37834	
624	0	32768	32844	37861	
625	0	32752	32828	37868	
626	0	32740	32856	37868	
627	0	32729	32768	37894	
628	0	32661	32935	37892	
629	0	32707	32897	37917	
630	0	32748	32812	37928	
631	0	32760	32844	37940	
632	0	32724	32772	37942	
633	0	32740	32823	37932	
634	0	32764	32846	37919	
635	0	32704	32852	37900	
636	0	32808	32841	37895	
637	0	32833	32868	37892	
638	0	32880	32864	37887	
639	0	32876	32903	37865	
640	0	32836	32822	37868	
641	0	32904	32766	37862	
642	0	32912	32844	37861	
643	0	32808	32850	37861	
644	0	32784	32826	37864	
645	0	32740	32826	37864	
646	0	32720	32848	37860	
647	0	32774	32812	37873	
648	0	32705	32844	37870	
649	0	32720	32911	37879	
650	0	32684	32909	37904	
651	0	32748	32904	37886	
652	0	32697	32856	37873	
653	0	32682	32821	37869	
654	0	32724	32831	37872	
655	0	32794	32796	37864	
656	0	32785	32769	37884	
657	0	32900	32775	37863	
658	0	32933	32724	37856	
659	0	32956	32778	37837	
660	0	32984	32816	37810	
661	0	32868	32792	37808	
662	0	32858	32860	37800	
663	0	32828	32919	37804	
664	0	32820	32918	37806	
665	0	32780	32889	37851	
666	0	32736	32898	37845	
667	0	32740	32856	37868	
668	0	32644	32884	37864	
669	0	32712	32934	37892	
670	0	32668	32853	37886	
671	0	32760	32879	37864	
672	0	32712	32876	37876	
673	0	32741	32812	37895	
674	0	32752	32884	37895	
675	0	32744	32844	37881	
676	0	32836	32860	37860	
677	0	32824	32848	37844	
678	0	32890	32792	37863	
679	0	32944	32848	37892	
680	0	32984	32716	37861	
681	0	32868	32732	37860	
682	0	32868	32744	37863	
683	0	32814	32820	37857	
684	0	32836	32852	37880	
685	0	32768	32857	37885	
686	0	32720	32808	37881	
687	0	32676	32712	37894	
688	0	32676	32805	37881	
689	0	32654	32836	37878	
690	0	32732	32873	37876	
691	0	32724	32900	37895	
692	0	32628	32868	37903	
693	0	32712	32903	37892	
694	0	32709	32852	37884	
695	0	32753	32838	37873	
696	0	32920	32874	37868	
697	0	32852	32753	37864	
698	0	32920	32774	37872	
699	0	32924	32806	37876	
700	0	32897	32778	37895	
701	0	32889	32744	37896	
702	0	32834	32806	37906	
703	0	32814	32836	37912	
704	0	32788	32796	37884	
705	0	32732	32840	37908	
706	0	32768	32824	37905	
707	0	32725	32940	37934	
708	0	32722	32866	37936	
709	0	32706	32872	37932	
710	0	32756	32868	37928	
711	0	32688	32868	37936	
712	0	32722	32821	37926	
713	0	32676	32812	37928	
714	0	32768	32764	37932	
715	0	32792	32847	37924	
716	0	32862	32893	37916	
717	0	32904	32902	37903	
718	0	32872	32800	37892	
719	0	32958	32812	37904	
720	0	32952	32908	37924	
721	0	32925	32788	37903	
722	0	32828	32764	37885	
723	0	32789	32829	37876	
724	0	32765	32909	37861	
725	0	32760	32791	37849	
726	0	32840	32818	37848	
727	0	32624	32830	37844	
728	0	32748	32903	37860	
729	0	32661	32861	37873	
730	0	32721	32837	37884	
731	0	32721	32884	37844	
732	0	32660	32790	37836	
733	0	32706	32748	37828	
734	0	32736	32840	37830	
735	0	32762	32734	37820	
736	0	32836	32720	37817	
737	0	32832	32721	37828	
738	0	32968	32835	37828	
739	0	32956	32805	37820	
740	0	32948	32692	37807	
741	0	32820	32788	37800	
742	0	32792	32764	37786	
743	0	32828	32740	37796	
744	0	32740	32812	37828	
745	0	32733	32927	37812	
746	0	32756	32982	37807	
747	0	32724	32900	37812	
748	0	32704	32913	37812	
749	0	32704	32908	37812	
750	0	32712	32932	37844	
751	0	32725	32876	37852	
752	0	32720	32853	37820	
753	0	32724	32912	37825	
754	0	32736	32880	37816	
755	0	32720	32896	37812	
756	0	32864	32888	37812	
757	0	32824	32952	37796	
758	0	32904	32944	37796	
759	0	32932	32896	37780	
760	0	32892	32793	37784	
761	0	32852	32852	37797	
762	0	32836	32841	37814	
763	0	32804	32886	37820	
764	0	32788	32876	37828	
765	0	32736	32780	37829	
766	0	32686	32844	37836	
767	0	32724	32849	37856	
768	0	32733	32852	37872	
769	0	32668	32837	37894	
770	0	32756	32844	37911	
771	0	32700	32868	37885	
772	0	32660	32833	37902	
773	0	32731	32792	37884	
774	0	32738	32778	37886	
775	0	32780	32764	37872	
776	0	32878	32830	37872	
777	0	32788	32768	37864	
778	0	32893	32789	37865	
779	0	32920	32797	37863	
780	0	32877	32876	37861	
781	0	32972	32880	37872	
782	0	32924	32873	37864	
783	0	32784	32804	37879	
784	0	32824	32796	37888	
785	0	32696	32836	37895	
786	0	32740	32916	37908	
787	0	32722	32920	37902	
788	0	32752	32914	37909	
789	0	32752	32876	37924	
790	0	32696	32908	37938	
791	0	32702	32885	37928	
792	0	32704	32945	37920	
793	0	32669	32967	37908	
794	0	32660	32903	37902	
795	0	32728	32922	37884	
796	0	32760	32857	37861	
797	0	32872	32816	37857	
798	0	32836	32848	37854	
799	0	32868	32757	37872	
800	0	33000	32740	37825	
801	0	32904	32762	37824	
802	0	32865	32816	37833	
803	0	32810	32802	37852	
804	0	32828	32824	37808	
805	0	32808	32789	37812	
806	0	32796	32812	37804	
807	0	32746	32825	37852	
808	0	32712	32887	37880	
809	0	32752	32852	37876	
810	0	32736	32864	37876	
811	0	32716	32936	37877	
812	0	32660	32816	37879	
813	0	32704	32860	37864	
814	0	32748	32855	37845	
815	0	32762	32816	37856	
816	0	32780	32816	37849	
817	0	32757	32744	37817	
818	0	32948	32876	37828	
819	0	32988	32912	37812	
820	0	32933	32766	37800	
821	0	32876	32772	37796	
822	0	32901	32831	37815	
823	0	32868	32817	37812	
824	0	32804	32792	37829	
825	0	32776	32833	37824	
826	0	32669	32851	37834	
827	0	32676	32945	37820	
828	0	32716	32900	37817	
829	0	32676	32868	37828	
830	0	32712	32780	37837	
831	0	32684	32791	37848	
832	0	32700	32824	37860	
833	0	32738	32833	37856	
834	0	32761	32846	37856	
835	0	32752	32828	37838	
836	0	32808	32770	37840	
837	0	32928	32736	37848	
838	0	32977	32868	37864	
839	0	32932	32780	37866	
840	0	32944	32765	37845	
841	0	32948	32797	37828	
842	0	32913	32860	37833	
843	0	32874	32778	37844	
844	0	32789	32886	37871	
845	0	32768	32761	37892	
846	0	32728	32865	37884	
847	0	32676	32820	37893	
848	0	32661	32852	37908	
849	0	32724	32852	37916	
850	0	32716	32862	37926	
851	0	32760	32888	37936	
852	0	32724	32893	37930	
853	0	32632	32728	37924	
854	0	32688	32801	37948	
855	0	32746	32860	37938	
856	0	32794	32716	37908	
857	0	32853	32786	37903	
858	0	32917	32848	37920	
859	0	32868	32880	37925	
860	0	32944	32879	37918	
861	0	32898	32911	37924	
862	0	32873	32820	37928	
863	0	32800	32863	37940	
864	0	32756	32948	37924	
865	0	32761	32814	37925	
866	0	32680	32846	37940	
867	0	32744	32833	37940	
868	0	32696	32873	37932	
869	0	32600	32845	37932	
870	0	32724	32874	37934	
871	0	32768	32827	37930	
872	0	32676	32823	37926	
873	0	32688	32940	37913	
874	0	32724	32788	37877	
875	0	32804	32798	37877	
876	0	32896	32804	37895	
877	0	32849	32790	37873	
878	0	32948	32868	37860	
879	0	32936	32817	37860	
880	0	32952	32800	37832	
881	0	32948	32759	37824	
882	0	32860	32806	37804	
883	0	32832	32828	37812	
884	0	32784	32885	37800	
885	0	32776	32914	37824	
886	0	32832	32830	37834	
887	0	32704	32864	37830	
888	0	32686	32884	37836	
889	0	32624	32871	37840	
890	0	32712	32888	37838	
891	0	32724	32890	37844	
892	0	32692	32790	37848	
893	0	32712	32805	37844	
894	0	32692	32784	37831	
895	0	32724	32806	37860	
896	0	32737	32828	37863	
897	0	32889	32785	37884	
898	0	32930	32833	37876	
899	0	32890	32845	37866	
900	0	32960	32868	37865	
901	0	32928	32794	37860	
902	0	32840	32775	37869	
903	0	32801	32797	37860	
904	0	32744	32921	37879	
905	0	32784	32928	37894	
906	0	32720	32988	37902	
907	0	32696	32945	37893	
908	0	32704	32877	37895	
909	0	32680	32900	37916	
910	0	32634	32904	37932	
911	0	32708	32788	37926	
912	0	32770	32821	37924	
913	0	32672	32913	37916	
914	0	32856	32774	37900	
915	0	32772	32756	37905	
916	0	32788	32797	37908	
917	0	32788	32764	37880	
918	0	32908	32887	37885	
919	0	32940	32756	37873	
920	0	32849	32762	37860	
921	0	32852	32829	37862	
922	0	32844	32839	37860	
923	0	32788	32847	37862	
924	0	32772	32833	37845	
925	0	32740	32841	37832	
926	0	32798	32836	37845	
927	0	32728	32904	37825	
928	0	32641	32845	37841	
929	0	32662	32792	37846	
930	0	32734	32911	37844	
931	0	32682	32862	37829	
932	0	32678	32784	37820	
933	0	32705	32879	37820	
934	0	32756	32820	37821	
935	0	32729	32828	37839	
936	0	32832	32783	37828	
937	0	32864	32775	37820	
938	0	32944	32788	37804	
939	0	33092	32824	37776	
940	0	32896	32784	37777	
941	0	32888	32855	37780	
942	0	32892	32806	37750	
943	0	32818	32816	37758	
944	0	32700	32800	37756	
945	0	32724	32837	37776	
946	0	32680	32801	37798	
947	0	32640	32876	37818	
948	0	32649	33012	37824	
949	0	32712	32980	37828	
950	0	32692	32888	37814	
951	0	32748	32873	37806	
952	0	32664	32848	37822	
953	0	32708	32774	37828	
954	0	32744	32834	37832	
955	0	32796	32910	37852	
956	0	32880	32780	37860	
957	0	32834	32782	37876	
958	0	32854	32876	37857	
959	0	32942	32781	37855	
960	0	32908	32792	37855	
961	0	32900	32852	37860	
962	0	32852	32808	37853	
963	0	32864	32846	37884	
964	0	32784	32856	37884	
965	0	32780	32792	37870	
966	0	32808	32888	37884	
967	0	32749	32800	37892	
968	0	32740	32880	37909	
969	0	32740	32909	37920	
970	0	32720	32889	37909	
971	0	32641	32780	37927	
972	0	32648	32868	37916	
973	0	32736	32824	37911	
974	0	32740	32788	37921	
975	0	32744	32864	37908	
976	0	32728	32872	37894	
977	0	32844	32900	37917	
978	0	32824	32920	37895	
979	0	32906	32841	37892	
980	0	32960	32743	37892	
981	0	32896	32690	37878	
982	0	32902	32767	37877	
983	0	32789	32804	37860	
984	0	32788	32904	37863	
985	0	32752	32861	37889	
986	0	32672	32936	37927	
987	0	32700	32946	37924	
988	0	32732	32901	37912	
989	0	32700	32850	37916	
990	0	32812	32834	37933	
991	0	32740	32775	37932	
992	0	32636	32833	37924	
993	0	32748	32796	37938	
994	0	32692	32809	37924	
995	0	32788	32770	37900	
996	0	32850	32853	37900	
997	0	32848	32816	37887	
998	0	32912	32864	37888	
999	0	32993	32934	37900	
1000	0	33004	32858	37908	
1001	0	32864	32849	37897	
1002	0	32818	32847	37880	
1003	0	32826	32860	37868	
1004	0	32836	32925	37884	
1005	0	32760	32873	37909	
1006	0	32797	32912	37908	
1007	0	32740	32898	37920	
1008	0	32688	32927	37928	
1009	0	32685	32844	37937	
1010	0	32672	32849	37918	
1011	0	32733	32840	37908	
1012	0	32684	32812	37900	
1013	0	32657	32750	37897	
1014	0	32760	32801	37876	
1015	0	32716	32764	37879	
1016	0	32756	32765	37868	
1017	0	32838	32799	37870	
1018	0	32884	32772	37852	
1019	0	32864	32844	37848	
1020	0	32924	32836	37847	
1021	0	32938	32855	37837	
1022	0	32892	32928	37850	
1023	0	32832	32950	37844	
1024	0	32752	32908	37837	
1025	0	32781	32966	37856	
1026	0	32780	32852	37860	
1027	0	32716	32799	37857	
1028	0	32720	32840	37849	
1029	0	32716	32805	37869	
1030	0	32712	32821	37860	
1031	0	32737	32824	37844	
1032	0	32780	32806	37820	
1033	0	32740	32961	37844	
1034	0	32728	32847	37861	
1035	0	32780	32864	37846	
1036	0	32780	32888	37846	
1037	0	32789	32796	37828	
1038	0	32848	32852	37828	
1039	0	32940	32864	37820	
1040	0	32892	32788	37805	
1041	0	32856	32810	37812	
1042	0	32804	32793	37800	
1043	0	32790	32736	37807	
1044	0	32793	32837	37808	
1045	0	32729	32792	37829	
1046	0	32704	32858	37808	
1047	0	32692	32856	37812	
1048	0	32736	32812	37844	
1049	0	32756	32768	37846	
1050	0	32673	32772	37865	
1051	0	32676	32880	37876	
1052	0	32708	32784	37865	
1053	0	32672	32869	37848	
1054	0	32728	32800	37828	
1055	0	32788	32853	37835	
1056	0	32868	32824	37820	
1057	0	32916	32800	37822	
1058	0	32916	32838	37824	
1059	0	32904	32876	37813	
1060	0	32925	32902	37824	
1061	0	32932	32756	37833	
1062	0	32816	32784	37821	
1063	0	32792	32796	37816	
1064	0	32796	32844	37826	
1065	0	32786	32836	37832	
1066	0	32820	32904	37807	
1067	0	32660	32826	37841	
1068	0	32706	32914	37849	
1069	0	32708	32916	37840	
1070	0	32798	32881	37856	
1071	0	32744	32886	37857	
1072	0	32776	32896	37832	
1073	0	32724	32876	37829	
1074	0	32765	32816	37840	
1075	0	32808	32841	37848	
1076	0	32836	32810	37842	
1077	0	32861	32890	37835	
1078	0	32925	32813	37828	
1079	0	32920	32841	37828	
1080	0	32942	32793	37824	
1081	0	32868	32840	37828	
1082	0	32868	32821	37819	
1083	0	32792	32858	37818	
1084	0	32789	32890	37808	
1085	0	32680	32896	37817	
1086	0	32728	32892	37829	
1087	0	32708	32868	37816	
1088	0	32796	32880	37840	
1089	0	32733	32821	37863	
1090	0	32740	32845	37852	
1091	0	32683	32800	37860	
1092	0	32671	32828	37864	
1093	0	32668	32836	37865	
1094	0	32706	32799	37840	
1095	0	32824	32786	37846	
1096	0	32849	32868	37840	
1097	0	32882	32786	37828	
1098	0	32936	32843	37817	
1099	0	32992	32869	37832	
1100	0	32956	32762	37869	
1101	0	32948	32818	37853	
1102	0	32800	32790	37852	
1103	0	32729	32767	37863	
1104	0	32716	32841	37895	
1105	0	32743	32738	37879	
1106	0	32808	32816	37880	
1107	0	32741	32888	37900	
1108	0	32644	32888	37924	
1109	0	32700	32900	37952	
1110	0	32716	32860	37963	
1111	0	32745	32820	37960	
1112	0	32788	32888	37969	
1113	0	32716	32868	37969	
1114	0	32724	32886	37976	
1115	0	32832	32772	37988	
1116	0	32881	32772	37968	
1117	0	32872	32904	37964	
1118	0	32862	32852	37972	
1119	0	32926	32852	37983	
1120	0	32900	32784	37972	
1121	0	32879	32816	37965	
1122	0	32797	32864	37957	
1123	0	32824	32807	37956	
1124	0	32756	32813	37948	
1125	0	32800	32765	37940	
1126	0	32700	32828	37940	
1127	0	32676	32824	37942	
1128	0	32672	32936	37933	
1129	0	32684	32928	37921	
1130	0	32664	32972	37913	
1131	0	32750	32908	37916	
1132	0	32760	32817	37901	
1133	0	32702	32852	37908	
1134	0	32765	32820	37900	
1135	0	32830	32804	37903	
1136	0	32828	32800	37892	
1137	0	32864	32725	37890	
1138	0	32944	32796	37850	
1139	0	32876	32775	37854	
1140	0	32880	32686	37828	
1141	0	32872	32824	37808	
1142	0	32812	32838	37793	
1143	0	32805	32775	37780	
1144	0	32769	32772	37812	
1145	0	32742	32876	37820	
1146	0	32752	32872	37820	
1147	0	32716	32845	37832	
1148	0	32736	32877	37836	
1149	0	32761	32912	37829	
1150	0	32640	32852	37836	
1151	0	32669	32825	37824	
1152	0	32768	32953	37828	
1153	0	32680	32879	37824	
1154	0	32744	32927	37812	
1155	0	32804	32784	37801	
1156	0	32781	32800	37796	
1157	0	32815	32856	37812	
1158	0	32872	32822	37809	
1159	0	32925	32745	37812	
1160	0	32932	32739	37798	
1161	0	32866	32745	37820	
1162	0	32892	32760	37836	
1163	0	32776	32764	37836	
1164	0	32788	32924	37836	
1165	0	32732	32915	37812	
1166	0	32777	32948	37825	
1167	0	32732	32924	37828	
1168	0	32694	32869	37836	
1169	0	32716	32941	37866	
1170	0	32800	32884	37876	
1171	0	32773	32894	37885	
1172	0	32724	32824	37870	
1173	0	32752	32824	37868	
1174	0	32724	32848	37892	
1175	0	32684	32846	37893	
1176	0	32804	32852	37894	
1177	0	32916	32804	37876	
1178	0	32922	32799	37861	
1179	0	32876	32813	37886	
1180	0	32952	32774	37860	
1181	0	32908	32740	37848	
1182	0	32892	32755	37837	
1183	0	32860	32716	37841	
1184	0	32792	32799	37873	
1185	0	32798	32908	37885	
1186	0	32712	32888	37866	
1187	0	32648	32913	37864	
1188	0	32748	32900	37876	
1189	0	32708	32808	37901	
1190	0	32718	32900	37916	
1191	0	32789	32809	37897	
1192	0	32716	32869	37888	
1193	0	32728	32793	37889	
1194	0	32801	32828	37905	
1195	0	32712	32841	37880	
1196	0	32788	32775	37911	
1197	0	32872	32775	37895	
1198	0	32964	32748	37876	
1199	0	32962	32756	37885	
1200	0	32902	32752	37879	
1201	0	32876	32768	37882	
1202	0	32840	32730	37876	
1203	0	32832	32806	37874	
1204	0	32740	32846	37852	
1205	0	32736	32872	37853	
1206	0	32733	32881	37872	
1207	0	32772	32904	37864	
1208	0	32754	32941	37853	
1209	0	32720	32964	37876	
1210	0	32824	32896	37880	
1211	0	32740	32908	37868	
1212	0	32732	32830	37861	
1213	0	32709	32849	37864	
1214	0	32740	32864	37878	
1215	0	32760	32844	37895	
1216	0	32834	32812	37881	
1217	0	32824	32786	37864	
1218	0	32836	32821	37869	
1219	0	32868	32908	37877	
1220	0	32944	32930	37871	
1221	0	32876	32780	37857	
1222	0	32877	32836	37857	
1223	0	32824	32876	37861	
1224	0	32672	32822	37868	
1225	0	32716	32824	37866	
1226	0	32804	32852	37872	
1227	0	32741	32865	37900	
1228	0	32662	32868	37884	
1229	0	32724	32837	37908	
1230	0	32698	32884	37909	
1231	0	32812	32794	37914	
1232	0	32680	32858	37908	
1233	0	32720	32804	37926	
1234	0	32722	32836	37916	
1235	0	32789	32833	37892	
1236	0	32820	32738	37860	
1237	0	32862	32721	37856	
1238	0	32920	32832	37848	
1239	0	32884	32744	37828	
1240	0	33004	32845	37852	
1241	0	32968	32726	37826	
1242	0	32869	32873	37824	
1243	0	32809	32892	37822	
1244	0	32760	32847	37830	
1245	0	32734	32840	37839	
1246	0	32761	32968	37840	
1247	0	32645	32940	37841	
1248	0	32722	33025	37857	
1249	0	32732	33008	37846	
1250	0	32704	32928	37862	
1251	0	32752	32840	37868	
1252	0	32716	32859	37861	
1253	0	32728	32775	37836	
1254	0	32700	32742	37848	
1255	0	32736	32673	37873	
1256	0	32848	32834	37856	
1257	0	32868	32770	37849	
1258	0	32876	32904	37856	
1259	0	32928	32857	37864	
1260	0	32892	32836	37856	
1261	0	32913	32823	37832	
1262	0	32808	32764	37856	
1263	0	32792	32786	37865	
1264	0	32740	32792	37887	
1265	0	32884	32813	37904	
1266	0	32748	32753	37904	
1267	0	32700	32788	37905	
1268	0	32696	32912	37901	
1269	0	32772	32817	37898	
1270	0	32772	32860	37916	
1271	0	32754	32836	37924	
1272	0	32756	32844	37940	
1273	0	32728	32840	37906	
1274	0	32764	32928	37898	
1275	0	32808	32928	37895	
1276	0	32824	32900	37895	
1277	0	32816	32852	37904	
1278	0	32960	32740	37904	
1279	0	32965	32767	37895	
1280	0	32880	32799	37880	
1281	0	32890	32830	37873	
1282	0	32900	32917	37876	
1283	0	32810	32864	37869	
1284	0	32782	32873	37894	
1285	0	32665	32838	37876	
1286	0	32704	32846	37869	
1287	0	32656	32900	37881	
1288	0	32694	32868	37884	
1289	0	32774	32808	37893	
1290	0	32736	32775	37895	
1291	0	32728	32812	37868	
1292	0	32720	32840	37873	
1293	0	32708	32879	37860	
1294	0	32688	32876	37846	
1295	0	32788	32800	37836	
1296	0	32816	32905	37840	
1297	0	32832	32840	37825	
1298	0	32948	32924	37828	
1299	0	32904	32944	37816	
1300	0	32844	32758	37821	
1301	0	32836	32856	37814	
1302	0	32878	32817	37801	
1303	0	32776	32760	37828	
1304	0	32800	32780	37823	
1305	0	32750	32804	37824	
1306	0	32716	32804	37820	
1307	0	32704	32765	37841	
1308	0	32717	32845	37861	
1309	0	32712	32780	37871	
1310	0	32748	32829	37860	
1311	0	32804	32837	37852	
1312	0	32724	32842	37841	
1313	0	32748	32917	37848	
1314	0	32760	32903	37864	
1315	0	32704	32954	37880	
1316	0	32868	32844	37885	
1317	0	32853	32842	37852	
1318	0	32888	32893	37860	
1319	0	32884	32806	37860	
1320	0	32872	32821	37860	
1321	0	32836	32796	37855	
1322	0	32841	32792	37838	
1323	0	32791	32928	37836	
1324	0	32902	32856	37843	
1325	0	32752	32824	37852	
1326	0	32732	32884	37856	
1327	0	32804	32834	37857	
1328	0	32724	32809	37861	
1329	0	32760	32839	37844	
1330	0	32800	32784	37846	
1331	0	32792	32850	37844	
1332	0	32732	32884	37855	
1333	0	32736	32895	37838	
1334	0	32812	32824	37832	
1335	0	32788	32841	37826	
1336	0	32756	32788	37832	
1337	0	32845	32790	37832	
1338	0	32868	32768	37816	
1339	0	32845	32732	37820	
1340	0	32948	32807	37812	
1341	0	32860	32784	37816	
1342	0	32784	32808	37832	
1343	0	32816	32868	37832	
1344	0	32728	32837	37828	
1345	0	32796	32828	37854	
1346	0	32720	32852	37868	
1347	0	32692	32881	37876	
1348	0	32766	32808	37852	
1349	0	32685	32864	37844	
1350	0	32786	32741	37828	
1351	0	32800	32839	37817	
1352	0	32740	32824	37840	
1353	0	32749	32784	37832	
1354	0	32748	32852	37840	
1355	0	32720	32822	37828	
1356	0	32792	32912	37840	
1357	0	32844	32823	37828	
1358	0	32888	32798	37836	
1359	0	32952	32805	37828	
1360	0	32962	32784	37832	
1361	0	32901	32804	37857	
1362	0	32844	32816	37828	
1363	0	32813	32884	37828	
1364	0	32770	32956	37834	
1365	0	32744	32878	37820	
1366	0	32740	32888	37820	
1367	0	32692	32821	37832	
1368	0	32728	32880	37860	
1369	0	32712	32898	37864	
1370	0	32768	32878	37876	
1371	0	32756	32932	37881	
1372	0	32742	32936	37850	
1373	0	32720	32812	37846	
1374	0	32744	32752	37884	
1375	0	32804	32720	37894	
1376	0	32772	32775	37872	
1377	0	32833	32799	37878	
1378	0	32889	32836	37888	
1379	0	32881	32897	37888	
1380	0	32844	32897	37880	
1381	0	32812	32877	37880	
1382	0	32760	32824	37892	
1383	0	32764	32857	37880	
1384	0	32800	32894	37924	
1385	0	32708	32868	37960	
1386	0	32730	32912	37958	
1387	0	32784	32913	37952	
1388	0	32760	32895	37952	
1389	0	32772	32853	37976	
1390	0	32772	32904	37970	
1391	0	32756	32901	37964	
1392	0	32748	32800	37953	
1393	0	32740	32819	37956	
1394	0	32717	32801	37952	
1395	0	32748	32868	37951	
1396	0	32821	32772	37953	
1397	0	32828	32845	37946	
1398	0	32836	32774	37933	
1399	0	32818	32856	37916	
1400	0	32920	32821	37902	
1401	0	32832	32800	37895	
1402	0	32796	32887	37876	
1403	0	32766	32772	37860	
1404	0	32836	32836	37876	
1405	0	32838	32704	37910	
1406	0	32724	32784	37912	
1407	0	32728	32842	37895	
1408	0	32780	32892	37916	
1409	0	32852	32937	37900	
1410	0	32813	32858	37904	
1411	0	32800	32881	37890	
1412	0	32772	32824	37881	
1413	0	32672	32783	37877	
1414	0	32710	32813	37895	
1415	0	32773	32916	37884	
1416	0	32748	32852	37864	
1417	0	32888	32812	37855	
1418	0	32804	32763	37840	
1419	0	32812	32817	37836	
1420	0	32852	32794	37852	
1421	0	32810	32836	37873	
1422	0	32845	32894	37869	
1423	0	32816	32812	37863	
1424	0	32780	32848	37862	
1425	0	32796	32876	37868	
1426	0	32764	32816	37853	
1427	0	32765	32812	37868	
1428	0	32766	32864	37888	
1429	0	32812	32864	37892	
1430	0	32820	32916	37893	
1431	0	32752	32892	37893	
1432	0	32772	32895	37885	
1433	0	32804	32863	37892	
1434	0	32740	32796	37869	
1435	0	32732	32824	37856	
1436	0	32757	32846	37853	
1437	0	32784	32836	37856	
1438	0	32840	32833	37828	
1439	0	32878	32770	37829	
1440	0	32872	32783	37830	
1441	0	32852	32870	37824	
1442	0	32788	32800	37808	
1443	0	32792	32878	37833	
1444	0	32808	32895	37809	
1445	0	32712	32926	37808	
1446	0	32744	32798	37799	
1447	0	32728	32833	37809	
1448	0	32784	32964	37832	
1449	0	32788	32836	37825	
1450	0	32820	32904	37832	
1451	0	32740	32937	37824	
1452	0	32732	32812	37820	
1453	0	32704	32794	37793	
1454	0	32824	32804	37800	
1455	0	32824	32864	37821	
1456	0	32700	32828	37810	
1457	0	32844	32732	37813	
1458	0	32872	32790	37816	
1459	0	32890	32792	37788	
1460	0	32820	32804	37768	
1461	0	32780	32865	37797	
1462	0	32788	32847	37793	
1463	0	32753	32912	37796	
1464	0	32768	32841	37813	
1465	0	32730	32919	37814	
1466	0	32792	32838	37828	
1467	0	32736	32905	37840	
1468	0	32820	32882	37852	
1469	0	32816	32870	37858	
1470	0	32760	32900	37864	
1471	0	32840	32789	37864	
1472	0	32720	32834	37864	
1473	0	32744	32810	37877	
1474	0	32670	32785	37869	
1475	0	32696	32741	37880	
1476	0	32752	32716	37844	
1477	0	32832	32656	37832	
1478	0	32788	32776	37824	
1479	0	32844	32850	37824	
1480	0	32876	32888	37847	
1481	0	32836	32800	37844	
1482	0	32826	32877	37840	
1483	0	32792	32862	37833	
1484	0	32733	32907	37840	
1485	0	32770	32809	37840	
1486	0	32778	32852	37863	
1487	0	32736	32936	37868	
1488	0	32816	32916	37884	
1489	0	32772	32873	37871	
1490	0	32804	32857	37884	
1491	0	32860	32860	37895	
1492	0	32818	32848	37894	
1493	0	32700	32882	37881	
1494	0	32752	32806	37860	
1495	0	32778	32828	37848	
1496	0	32796	32775	37841	
1497	0	32836	32769	37828	
1498	0	32792	32848	37829	
1499	0	32852	32869	37844	
1500	0	32813	32888	37830	
1501	0	32800	32872	37844	
1502	0	32812	32800	37847	
1503	0	32760	32825	37846	
1504	0	32697	32845	37829	
1505	0	32788	32893	37844	
1506	0	32736	32845	37856	
1507	0	32789	32840	37880	
1508	0	32832	32912	37895	
1509	0	32812	32892	37903	
1510	0	32800	32892	37916	
1511	0	32798	32852	37928	
1512	0	32826	32761	37930	
1513	0	32748	32789	37928	
1514	0	32736	32844	37924	
1515	0	32808	32886	37940	
1516	0	32764	32916	37917	
1517	0	32826	32808	37908	
1518	0	32816	32792	37912	
1519	0	32864	32861	37916	
1520	0	32848	32824	37932	
1521	0	32804	32764	37919	
1522	0	32708	32808	37904	
1523	0	32692	32828	37892	
1524	0	32732	32879	37912	
1525	0	32800	32816	37936	
1526	0	32804	32780	37929	
1527	0	32812	32850	37924	
1528	0	32817	32866	37924	
1529	0	32818	32788	37920	
1530	0	32792	32848	37924	
1531	0	32782	32815	37934	
1532	0	32829	32913	37916	
1533	0	32836	32877	37906	
1534	0	32880	32928	37908	
1535	0	32908	32838	37916	
1536	0	32854	32805	37906	
1537	0	32820	32749	37906	
1538	0	32836	32876	37868	
1539	0	32820	32762	37854	
1540	0	32641	32760	37856	
1541	0	32612	32764	37852	
1542	0	32549	32834	37861	
1543	0	32482	32812	37860	
1544	0	32392	32850	37848	
1545	0	32501	32829	37874	
1546	0	32604	32903	37876	
1547	0	32660	32941	37904	
1548	0	32901	32892	37904	
1549	0	32872	32879	37936	
1550	0	33092	32868	37948	
1551	0	33108	32885	37944	
1552	0	33032	32836	37940	
1553	0	33064	32805	37920	
1554	0	32976	32804	37929	
1555	0	32964	32729	37909	
1556	0	32916	32836	37900	
1557	0	32898	32860	37894	
1558	0	32836	32892	37903	
1559	0	32736	32868	37893	
1560	0	32628	32792	37876	
1561	0	32581	32804	37885	
1562	0	32528	32762	37895	
1563	0	32486	32768	37872	
1564	0	32418	32760	37886	
1565	0	32484	32756	37893	
1566	0	32561	32840	37924	
1567	0	32720	32789	37924	
1568	0	32896	32807	37932	
1569	0	32944	32887	37940	
1570	0	33096	32862	37924	
1571	0	33124	32872	37902	
1572	0	33056	32860	37912	
1573	0	32948	32865	37919	
1574	0	33020	32808	37909	
1575	0	32948	32860	37904	
1576	0	33000	32775	37894	
1577	0	32856	32764	37916	
1578	0	32856	32913	37917	
1579	0	32828	32924	37918	
1580	0	32668	32693	37905	
1581	0	32565	32740	37894	
1582	0	32460	32756	37864	
1583	0	32476	32770	37860	
1584	0	32492	32760	37852	
1585	0	32560	32833	37868	
1586	0	32520	32804	37892	
1587	0	32716	32844	37892	
1588	0	32756	32836	37913	
1589	0	32960	32910	37919	
1590	0	33074	32860	37896	
1591	0	33073	32796	37916	
1592	0	33073	32820	37902	
1593	0	33104	32879	37885	
1594	0	33044	32734	37870	
1595	0	32944	32824	37870	
1596	0	32880	32869	37848	
1597	0	32888	32874	37814	
1598	0	32824	32870	37788	
1599	0	32792	32840	37796	
1600	0	32637	32780	37781	
1601	0	32580	32782	37772	
1602	0	32540	32845	37752	
1603	0	32405	32804	37764	
1604	0	32490	32844	37776	
1605	0	32508	32870	37773	
1606	0	32620	32857	37776	
1607	0	32676	32866	37780	
1608	0	32896	32896	37777	
1609	0	32932	32924	37776	
1610	0	33040	32869	37777	
1611	0	33024	32853	37784	
1612	0	33044	32786	37781	
1613	0	33024	32821	37785	
1614	0	33012	32775	37780	
1615	0	32940	32775	37780	
1616	0	32888	32782	37806	
1617	0	32908	32710	37785	
1618	0	32898	32728	37788	
1619	0	32709	32780	37776	
1620	0	32663	32808	37766	
1621	0	32560	32829	37776	
1622	0	32464	32871	37776	
1623	0	32408	32836	37802	
1624	0	32468	32832	37797	
1625	0	32544	32824	37804	
1626	0	32652	32774	37824	
1627	0	32728	32785	37836	
1628	0	32792	32906	37832	
1629	0	32961	32896	37860	
1630	0	32992	32881	37888	
1631	0	33052	32915	37868	
1632	0	33044	32882	37895	
1633	0	33053	32830	37884	
1634	0	32957	32860	37885	
1635	0	32956	32890	37884	
1636	0	32904	32808	37876	
1637	0	32856	32792	37875	
1638	0	32796	32789	37888	
1639	0	32800	32784	37869	
1640	0	32672	32740	37876	
1641	0	32520	32804	37868	
1642	0	32496	32806	37823	
1643	0	32452	32852	37836	
1644	0	32492	32773	37869	
1645	0	32560	32877	37877	
1646	0	32586	32906	37892	
1647	0	32672	32784	37896	
1648	0	32853	32956	37896	
1649	0	32996	32817	37913	
1650	0	33100	32898	37892	
1651	0	32996	32862	37895	
1652	0	33073	32820	37877	
1653	0	32992	32688	37895	
1654	0	33004	32701	37892	
1655	0	32940	32752	37892	
1656	0	33001	32944	37872	
1657	0	32857	32919	37857	
1658	0	32744	32872	37870	
1659	0	32756	32836	37848	
1660	0	32702	32717	37882	
1661	0	32532	32753	37857	
1662	0	32548	32817	37840	
1663	0	32416	32720	37849	
1664	0	32492	32822	37828	
1665	0	32584	32836	37817	
1666	0	32584	32908	37832	
1667	0	32692	32934	37846	
1668	0	32786	32916	37848	
1669	0	32940	32862	37856	
1670	0	33052	32864	37856	
1671	0	33064	32889	37872	
1672	0	33068	32857	37868	
1673	0	33010	32774	37860	
1674	0	33006	32879	37849	
1675	0	32968	32912	37846	
1676	0	32880	32884	37856	
1677	0	32844	32800	37870	
1678	0	32824	32856	37877	
1679	0	32684	32794	37876	
1680	0	32676	32797	37840	
1681	0	32592	32887	37854	
1682	0	32560	32820	37837	
1683	0	32526	32840	37848	
1684	0	32444	32932	37870	
1685	0	32568	32935	37860	
1686	0	32533	32820	37864	
1687	0	32688	32760	37888	
1688	0	32820	32918	37927	
1689	0	32924	32848	37928	
1690	0	33032	32908	37910	
1691	0	33052	32853	37893	
1692	0	33014	32810	37895	
1693	0	33001	32756	37904	
1694	0	33000	32824	37908	
1695	0	32896	32794	37900	
1696	0	32924	32869	37884	
1697	0	32873	32840	37884	
1698	0	32782	32872	37900	
1699	0	32741	32914	37895	
1700	0	32668	32832	37902	
1701	0	32600	32760	37894	
1702	0	32558	32784	37884	
1703	0	32489	32775	37864	
1704	0	32442	32856	37865	
1705	0	32532	32876	37853	
1706	0	32568	32854	37860	
1707	0	32764	32908	37880	
1708	0	32812	32870	37910	
1709	0	32920	32964	37924	
1710	0	33000	32860	37920	
1711	0	33098	32855	37906	
1712	0	33020	32848	37892	
1713	0	32992	32950	37895	
1714	0	32968	32880	37895	
1715	0	32908	32776	37893	
1716	0	32880	32775	37876	
1717	0	32868	32802	37871	
1718	0	32868	32879	37844	
1719	0	32756	32812	37844	
1720	0	32640	32696	37848	
1721	0	32528	32826	37837	
1722	0	32588	32800	37829	
1723	0	32496	32800	37825	
1724	0	32508	32764	37836	
1725	0	32574	32888	37840	
1726	0	32560	32820	37840	
1727	0	32724	32756	37846	
1728	0	32824	32897	37844	
1729	0	32936	32884	37852	
1730	0	33012	32820	37856	
1731	0	33061	32838	37861	
1732	0	33082	32852	37860	
1733	0	33044	32864	37848	
1734	0	32980	32834	37828	
1735	0	32960	32792	37812	
1736	0	32944	32814	37805	
1737	0	32788	32805	37796	
1738	0	32826	32809	37782	
1739	0	32772	32823	37764	
1740	0	32696	32785	37764	
1741	0	32600	32802	37796	
1742	0	32536	32768	37766	
1743	0	32492	32826	37767	
1744	0	32485	32853	37788	
1745	0	32561	32914	37800	
1746	0	32588	32846	37800	
1747	0	32764	32788	37806	
1748	0	32772	32840	37796	
1749	0	32836	32789	37809	
1750	0	33020	32975	37832	
1751	0	33016	32888	37836	
1752	0	32968	32848	37837	
1753	0	32937	32864	37844	
1754	0	32980	32917	37822	
1755	0	32944	32893	37840	
1756	0	32956	32848	37860	
1757	0	32888	32877	37880	
1758	0	32856	32868	37877	
1759	0	32818	32970	37881	
1760	0	32680	32836	37872	
1761	0	32601	32816	37860	
1762	0	32596	32832	37872	
1763	0	32464	32885	37895	
1764	0	32494	32861	37889	
1765	0	32496	32936	37895	
1766	0	32608	32880	37873	
1767	0	32684	32844	37908	
1768	0	32804	32822	37954	
1769	0	32908	32904	37958	
1770	0	33040	32856	37956	
1771	0	33072	32887	37945	
1772	0	32992	32757	37972	
1773	0	33060	32766	37972	
1774	0	32961	32856	37957	
1775	0	32905	32897	37950	
1776	0	32920	32840	37941	
1777	0	32902	32793	37932	
1778	0	32820	32800	37932	
1779	0	32764	32860	37913	
1780	0	32721	32856	37897	
1781	0	32644	32864	37905	
1782	0	32584	32823	37892	
1783	0	32548	32778	37885	
1784	0	32440	32900	37884	
1785	0	32577	32810	37864	
1786	0	32578	32752	37881	
1787	0	32761	32846	37884	
1788	0	32882	32805	37868	
1789	0	32932	32797	37864	
1790	0	33012	32896	37868	
1791	0	33020	32903	37879	
1792	0	33020	32932	37885	
1793	0	33028	32845	37894	
1794	0	32952	32801	37893	
1795	0	32916	32916	37887	
1796	0	32908	32830	37888	
1797	0	32952	32869	37880	
1798	0	32829	32872	37869	
1799	0	32728	32775	37873	
1800	0	32652	32770	37872	
1801	0	32553	32824	37886	
1802	0	32564	32820	37877	
1803	0	32496	32694	37855	
1804	0	32518	32888	37872	
1805	0	32604	32892	37904	
1806	0	32620	32775	37913	
1807	0	32674	32817	37928	
1808	0	32806	32893	37921	
1809	0	32988	32920	37932	
1810	0	32940	32975	37937	
1811	0	32994	32807	37936	
1812	0	33048	32813	37934	
1813	0	32980	32928	37933	
1814	0	32944	32801	37924	
1815	0	32884	32793	37916	
1816	0	32996	32820	37924	
1817	0	32836	32909	37895	
1818	0	32880	32751	37895	
1819	0	32754	32765	37882	
1820	0	32696	32755	37878	
1821	0	32640	32801	37884	
1822	0	32618	32741	37888	
1823	0	32501	32839	37884	
1824	0	32432	32832	37892	
1825	0	32520	32872	37880	
1826	0	32592	32873	37902	
1827	0	32780	32900	37912	
1828	0	32762	32796	37895	
1829	0	32844	32860	37895	
1830	0	32972	32846	37895	
1831	0	33084	32815	37895	
1832	0	32972	32775	37871	
1833	0	32972	32732	37858	
1834	0	32940	32694	37848	
1835	0	32904	32744	37852	
1836	0	32885	32820	37840	
1837	0	32836	32892	37836	
1838	0	32856	32836	37840	
1839	0	32844	32968	37817	
1840	0	32764	32870	37820	
1841	0	32636	32834	37803	
1842	0	32524	32780	37824	
1843	0	32461	32773	37828	
1844	0	32514	32927	37840	
1845	0	32488	32791	37854	
1846	0	32518	32826	37846	
1847	0	32668	32854	37860	
1848	0	32798	32908	37888	
1849	0	32848	32921	37903	
1850	0	33012	32844	37895	
1851	0	33044	32855	37873	
1852	0	32928	32864	37864	
1853	0	32996	32808	37864	
1854	0	32976	32871	37888	
1855	0	32938	32892	37876	
1856	0	32860	32836	37878	
1857	0	32828	32880	37868	
1858	0	32896	32958	37853	
1859	0	32808	32900	37825	
1860	0	32714	32869	37828	
1861	0	32612	32905	37828	
1862	0	32550	32760	37828	
1863	0	32532	32833	37826	
1864	0	32540	32900	37841	
1865	0	32516	32812	37854	
1866	0	32608	32844	37865	
1867	0	32678	32829	37854	
1868	0	32804	32836	37853	
1869	0	32808	32850	37884	
1870	0	32940	32745	37860	
1871	0	32976	32834	37852	
1872	0	33000	32910	37856	
1873	0	32996	32943	37844	
1874	0	32932	32842	37854	
1875	0	32984	32708	37856	
1876	0	32904	32878	37860	
1877	0	32919	32756	37856	
1878	0	32837	32720	37850	
1879	0	32844	32805	37852	
1880	0	32740	32768	37845	
1881	0	32672	32762	37852	
1882	0	32538	32855	37860	
1883	0	32544	32865	37852	
1884	0	32473	32831	37856	
1885	0	32564	32862	37848	
1886	0	32584	32932	37862	
1887	0	32724	32833	37894	
1888	0	32704	32933	37902	
1889	0	32821	32968	37862	
1890	0	33032	32939	37895	
1891	0	32968	32874	37885	
1892	0	33016	32775	37900	
1893	0	32960	32828	37889	
1894	0	32928	32826	37881	
1895	0	32924	32868	37880	
1896	0	32868	32773	37865	
1897	0	32806	32804	37840	
1898	0	32772	32925	37824	
1899	0	32768	32902	37820	
1900	0	32732	32876	37816	
1901	0	32684	32852	37828	
1902	0	32617	32840	37852	
1903	0	32584	32817	37829	
1904	0	32528	32804	37829	
1905	0	32580	32844	37840	
1906	0	32613	32912	37860	
1907	0	32756	32927	37871	
1908	0	32796	32820	37884	
1909	0	32848	32788	37884	
1910	0	32975	32854	37888	
1911	0	33000	32860	37902	
1912	0	33012	32900	37884	
1913	0	32944	32924	37873	
1914	0	32884	32836	37870	
1915	0	32900	32824	37872	
1916	0	32913	32804	37856	
1917	0	32868	32728	37853	
1918	0	32860	32753	37845	
1919	0	32820	32880	37825	
1920	0	32689	32864	37818	
1921	0	32672	32926	37792	
1922	0	32633	32878	37784	
1923	0	32568	32808	37785	
1924	0	32544	32864	37816	
1925	0	32645	32752	37840	
1926	0	32584	32804	37866	
1927	0	32788	32929	37873	
1928	0	32880	32868	37869	
1929	0	32876	32847	37850	
1930	0	32932	32845	37853	
1931	0	32900	32852	37852	
1932	0	32904	32841	37855	
1933	0	32933	32876	37848	
1934	0	32868	32748	37824	
1935	0	32841	32748	37828	
1936	0	32854	32824	37822	
1937	0	32800	32749	37846	
1938	0	32836	32749	37852	
1939	0	32764	32774	37840	
1940	0	32780	32852	37840	
1941	0	32670	32796	37828	
1942	0	32716	32831	37834	
1943	0	32665	32740	37844	
1944	0	32616	32885	37848	
1945	0	32590	32866	37860	
1946	0	32648	32808	37861	
1947	0	32782	32757	37873	
1948	0	32816	32870	37886	
1949	0	32836	32948	37872	
1950	0	32858	32912	37876	
1951	0	32941	32852	37873	
1952	0	32920	32792	37900	
1953	0	32841	32853	37916	
1954	0	32858	32826	37884	
1955	0	32852	32781	37894	
1956	0	32901	32836	37864	
1957	0	32794	32834	37862	
1958	0	32876	32788	37868	
1959	0	32802	32787	37840	
1960	0	32748	32756	37862	
1961	0	32712	32724	37860	
1962	0	32708	32816	37847	
1963	0	32608	32804	37845	
1964	0	32697	32825	37852	
1965	0	32704	32838	37862	
1966	0	32668	32826	37868	
1967	0	32688	32896	37886	
1968	0	32740	32916	37895	
1969	0	32864	32912	37924	
1970	0	32864	32913	37908	
1971	0	32860	32837	37879	
1972	0	32824	32801	37886	
1973	0	32896	32772	37908	
1974	0	32840	32861	37908	
1975	0	32812	32848	37906	
1976	0	32896	32820	37904	
1977	0	32876	32821	37907	
1978	0	32908	32868	37885	
1979	0	32744	32943	37878	
1980	0	32752	32775	37853	
1981	0	32724	32764	37864	
1982	0	32714	32785	37889	
1983	0	32692	32784	37888	
1984	0	32632	32854	37892	
1985	0	32625	32791	37895	
1986	0	32644	32884	37920	
1987	0	32724	32912	37916	
1988	0	32822	32828	37936	
1989	0	32688	32737	37937	
1990	0	32913	32775	37948	
1991	0	32877	32828	37936	
1992	0	32897	32852	37944	
1993	0	32884	32820	37916	
1994	0	32820	32920	37926	
1995	0	32887	32865	37924	
1996	0	32904	32844	37904	
1997	0	32861	32826	37874	
1998	0	32876	32832	37856	
1999	0	32780	32709	37854	
2000	0	32808	32708	37830	
2001	0	32744	32816	37809	
2002	0	32690	32805	37828	
2003	0	32664	32872	37849	
2004	0	32665	32752	37833	
2005	0	32658	32832	37818	
2006	0	32684	32936	37816	
2007	0	32784	32844	37836	
2008	0	32800	32936	37840	
2009	0	32829	32885	37828	
2010	0	32820	32840	37840	
2011	0	32888	32853	37840	
2012	0	32864	32729	37833	
2013	0	32894	32772	37824	
2014	0	32864	32758	37834	
2015	0	32888	32833	37817	
2016	0	32892	32820	37806	
2017	0	32856	32687	37812	
2018	0	32828	32768	37816	
2019	0	32840	32824	37814	
2020	0	32784	32737	37829	
2021	0	32732	32828	37837	
2022	0	32712	32864	37828	
2023	0	32621	32841	37820	
2024	0	32684	32826	37828	
2025	0	32697	32820	37822	
2026	0	32640	32950	37852	
2027	0	32696	32963	37840	
2028	0	32712	32936	37856	
2029	0	32737	32903	37884	
2030	0	32788	32829	37888	
2031	0	32958	32866	37895	
2032	0	32836	32891	37878	
2033	0	32861	32858	37868	
2034	0	32861	32878	37860	
2035	0	32908	32857	37856	
2036	0	32893	32884	37872	
2037	0	32824	32780	37872	
2038	0	32858	32790	37876	
2039	0	32746	32788	37856	
2040	0	32756	32797	37844	
2041	0	32741	32824	37856	
2042	0	32720	32789	37840	
2043	0	32704	32768	37864	
2044	0	32620	32808	37856	
2045	0	32609	32800	37844	
2046	0	32616	32793	37848	
2047	0	32644	32860	37836	
2048	0	32709	32896	37860	
2049	0	32744	32932	37860	
2050	0	32876	32900	37861	
2051	0	32896	32860	37880	
2052	0	32936	32854	37892	
2053	0	32884	32769	37862	
2054	0	32768	32860	37868	
2055	0	32756	32844	37862	
2056	0	32944	32812	37845	
2057	0	32830	32721	37854	
2058	0	32808	32780	37844	
2059	0	32828	32803	37840	
2060	0	32772	32785	37817	
2061	0	32728	32775	37828	
2062	0	32722	32868	37840	
2063	0	32661	32869	37820	
2064	0	32664	32824	37818	
2065	0	32712	32872	37826	
2066	0	32700	32878	37869	
2067	0	32749	32893	37876	
2068	0	32782	32869	37895	
2069	0	32796	32932	37888	
2070	0	32828	32888	37892	
2071	0	32866	32892	37895	
2072	0	32829	32856	37884	
2073	0	32856	32832	37895	
2074	0	32852	32820	37885	
2075	0	32888	32846	37879	
2076	0	32848	32784	37868	
2077	0	32832	32715	37868	
2078	0	32833	32677	37880	
2079	0	32832	32625	37894	
2080	0	32805	32796	37900	
2081	0	32792	32793	37895	
2082	0	32668	32772	37876	
2083	0	32664	32861	37869	
2084	0	32720	32766	37880	
2085	0	32650	32831	37903	
2086	0	32560	32839	37893	
2087	0	32708	32892	37918	
2088	0	32860	32841	37920	
2089	0	32828	32896	37924	
2090	0	32812	32872	37946	
2091	0	32840	32856	37936	
2092	0	32856	32831	37916	
2093	0	32872	32830	37910	
2094	0	32840	32744	37886	
2095	0	32849	32752	37882	
2096	0	32856	32888	37884	
2097	0	32820	32817	37872	
2098	0	32824	32876	37854	
2099	0	32832	32877	37876	
2100	0	32818	32818	37863	
2101	0	32772	32888	37860	
2102	0	32736	32903	37851	
2103	0	32620	32768	37852	
2104	0	32624	32785	37841	
2105	0	32668	32906	37860	
2106	0	32688	32790	37852	
2107	0	32724	32897	37862	
2108	0	32768	32840	37880	
2109	0	32788	32884	37895	
2110	0	32782	32941	37901	
2111	0	32900	32832	37913	
2112	0	32896	32884	37876	
2113	0	32852	32869	37864	
2114	0	32850	32783	37895	
2115	0	32878	32872	37884	
2116	0	32876	32818	37895	
2117	0	32850	32752	37885	
2118	0	32876	32854	37885	
2119	0	32848	32820	37878	
2120	0	32736	32808	37848	
2121	0	32780	32856	37841	
2122	0	32784	32812	37869	
2123	0	32684	32792	37873	
2124	0	32740	32889	37862	
2125	0	32657	32783	37868	
2126	0	32584	32795	37877	
2127	0	32736	32853	37908	
2128	0	32752	32812	37905	
2129	0	32756	32756	37917	
2130	0	32852	32800	37900	
2131	0	32844	32871	37908	
2132	0	32872	32772	37920	
2133	0	32836	32903	37908	
2134	0	32888	32932	37924	
2135	0	32844	32787	37924	
2136	0	32864	32852	37920	
2137	0	32860	32772	37925	
2138	0	32860	32888	37924	
2139	0	32924	32804	37908	
2140	0	32832	32772	37908	
2141	0	32808	32800	37916	
2142	0	32668	32845	37924	
2143	0	32676	32853	37916	
2144	0	32692	32782	37910	
2145	0	32648	32933	37909	
2146	0	32616	32856	37919	
2147	0	32697	32828	37900	
2148	0	32764	32871	37904	
2149	0	32778	32900	37919	
2150	0	32884	32880	37927	
2151	0	32844	32866	37917	
2152	0	32792	32832	37880	
2153	0	32777	32804	37880	
2154	0	32878	32856	37860	
2155	0	32804	32884	37870	
2156	0	32924	32775	37878	
2157	0	32893	32808	37868	
2158	0	32894	32852	37860	
2159	0	32800	32796	37828	
2160	0	32832	32774	37804	
2161	0	32816	32824	37780	
2162	0	32702	32840	37790	
2163	0	32687	32823	37804	
2164	0	32648	32814	37821	
2165	0	32624	32858	37820	
2166	0	32616	32814	37840	
2167	0	32688	32796	37836	
2168	0	32752	32775	37834	
2169	0	32749	32878	37836	
2170	0	32870	32872	37842	
2171	0	32884	32836	37884	
2172	0	32826	32830	37870	
2173	0	32896	32743	37856	
2174	0	32872	32788	37840	
2175	0	32828	32882	37820	
2176	0	32878	32753	37832	
2177	0	32918	32688	37845	
2178	0	32860	32849	37865	
2179	0	32825	32810	37861	
2180	0	32800	32884	37852	
2181	0	32740	32772	37836	
2182	0	32732	32749	37828	
2183	0	32672	32833	37840	
2184	0	32677	32834	37848	
2185	0	32676	32864	37834	
2186	0	32572	32905	37853	
2187	0	32706	32878	37872	
2188	0	32732	32876	37885	
2189	0	32808	32856	37886	
2190	0	32800	32926	37872	
2191	0	32884	32908	37902	
2192	0	32832	32861	37900	
2193	0	32860	32940	37874	
2194	0	32780	32838	37866	
2195	0	32889	32785	37864	
2196	0	32940	32813	37895	
2197	0	32885	32772	37892	
2198	0	32864	32708	37872	
2199	0	32836	32749	37864	
2200	0	32840	32900	37854	
2201	0	32808	32832	37856	
2202	0	32760	32852	37840	
2203	0	32708	32900	37830	
2204	0	32668	32742	37857	
2205	0	32668	32736	37872	
2206	0	32728	32866	37880	
2207	0	32678	32899	37895	
2208	0	32733	32884	37892	
2209	0	32820	32901	37886	
2210	0	32852	32852	37897	
2211	0	32900	32868	37876	
2212	0	32856	32872	37893	
2213	0	32886	32839	37895	
2214	0	32860	32785	37889	
2215	0	32848	32772	37878	
2216	0	32804	32772	37870	
2217	0	32864	32775	37881	
2218	0	32884	32848	37881	
2219	0	32826	32801	37877	
2220	0	32841	32821	37846	
2221	0	32783	32775	37825	
2222	0	32712	32783	37832	
2223	0	32668	32909	37844	
2224	0	32644	32844	37844	
2225	0	32730	32789	37836	
2226	0	32588	32813	37852	
2227	0	32660	32903	37837	
2228	0	32689	32928	37840	
2229	0	32828	32932	37840	
2230	0	32828	32892	37834	
2231	0	32825	32808	37820	
2232	0	32860	32897	37815	
2233	0	32848	32845	37797	
2234	0	32888	32840	37780	
2235	0	32876	32896	37796	
2236	0	32876	32753	37800	
2237	0	32814	32804	37793	
2238	0	32884	32750	37796	
2239	0	32865	32829	37788	
2240	0	32900	32799	37780	
2241	0	32684	32728	37792	
2242	0	32680	32871	37821	
2243	0	32652	32829	37812	
2244	0	32665	32806	37816	
2245	0	32644	32905	37812	
2246	0	32664	32856	37818	
2247	0	32720	32888	37816	
2248	0	32752	32796	37844	
2249	0	32780	32929	37846	
2250	0	32792	32927	37868	
2251	0	32764	32846	37853	
2252	0	32872	32792	37864	
2253	0	32836	32836	37857	
2254	0	32830	32764	37864	
2255	0	32912	32728	37880	
2256	0	32874	32734	37866	
2257	0	32924	32822	37860	
2258	0	32829	32736	37860	
2259	0	32820	32768	37857	
2260	0	32816	32912	37868	
2261	0	32794	32863	37876	
2262	0	32761	32868	37876	
2263	0	32652	32756	37881	
2264	0	32620	32865	37892	
2265	0	32624	32852	37919	
2266	0	32628	32868	37916	
2267	0	32609	32828	37928	
2268	0	32736	32930	37932	
2269	0	32846	32931	37944	
2270	0	32796	32860	37958	
2271	0	32868	32908	37975	
2272	0	32868	32809	37965	
2273	0	32834	32864	37952	
2274	0	32838	32921	37940	
2275	0	32864	32794	37940	
2276	0	32884	32804	37929	
2277	0	32885	32837	37954	
2278	0	32932	32845	37940	
2279	0	32918	32809	37932	
2280	0	32868	32804	37944	
2281	0	32858	32788	37932	
2282	0	32776	32748	37900	
2283	0	32678	32702	37896	
2284	0	32629	32781	37904	
2285	0	32636	32753	37910	
2286	0	32598	32869	37920	
2287	0	32620	32846	37916	
2288	0	32768	32864	37924	
2289	0	32740	32908	37956	
2290	0	32828	32924	37937	
2291	0	32884	32854	37934	
2292	0	32868	32844	37920	
2293	0	32849	32870	37895	
2294	0	32864	32840	37917	
2295	0	32872	32875	37908	
2296	0	32944	32900	37895	
2297	0	32912	32836	37886	
2298	0	32848	32845	37880	
2299	0	32814	32854	37895	
2300	0	32840	32808	37910	
2301	0	32748	32788	37909	
2302	0	32708	32860	37902	
2303	0	32680	32801	37896	
2304	0	32704	32801	37893	
2305	0	32674	32857	37909	
2306	0	32644	32852	37915	
2307	0	32648	32829	37900	
2308	0	32688	32816	37892	
2309	0	32753	32836	37888	
2310	0	32808	32836	37892	
2311	0	32818	32872	37892	
2312	0	32782	32740	37900	
2313	0	32874	32801	37892	
2314	0	32880	32823	37868	
2315	0	32854	32815	37864	
2316	0	32865	32917	37890	
2317	0	32876	32845	37865	
2318	0	32896	32892	37853	
2319	0	32830	32964	37829	
2320	0	32802	32886	37832	
2321	0	32760	32870	37836	
2322	0	32727	32858	37840	
2323	0	32688	32812	37836	
2324	0	32676	32821	37836	
2325	0	32616	32756	37823	
2326	0	32672	32817	37800	
2327	0	32756	32749	37804	
2328	0	32724	32816	37778	
2329	0	32760	32968	37780	
2330	0	32856	32822	37804	
2331	0	32805	32780	37806	
2332	0	32872	32807	37802	
2333	0	32790	32956	37796	
2334	0	32864	32832	37796	
2335	0	32832	32828	37781	
2336	0	32888	32838	37785	
2337	0	32920	32815	37776	
2338	0	32956	32816	37772	
2339	0	32888	32869	37788	
2340	0	32796	32829	37784	
2341	0	32784	32872	37752	
2342	0	32709	32758	37734	
2343	0	32688	32724	37766	
2344	0	32642	32868	37759	
2345	0	32720	32906	37780	
2346	0	32697	32824	37788	
2347	0	32704	32806	37797	
2348	0	32764	32849	37797	
2349	0	32788	32878	37798	
2350	0	32812	32832	37809	
2351	0	32800	32733	37812	
2352	0	32842	32780	37832	
2353	0	32906	32954	37830	
2354	0	32796	32888	37828	
2355	0	32804	32832	37832	
2356	0	32864	32812	37844	
2357	0	32909	32900	37862	
2358	0	32905	32849	37869	
2359	0	32864	32788	37884	
2360	0	32908	32868	37901	
2361	0	32774	32880	37912	
2362	0	32744	32876	37905	
2363	0	32704	32821	37916	
2364	0	32592	32846	37924	
2365	0	32652	32820	37937	
2366	0	32549	32772	37953	
2367	0	32628	32804	37950	
2368	0	32700	32876	37953	
2369	0	32856	32840	37942	
2370	0	32822	32895	37948	
2371	0	32776	32878	37940	
2372	0	32830	32760	37936	
2373	0	32784	32943	37927	
2374	0	32866	32845	37940	
2375	0	32900	32848	37937	
2376	0	32873	32889	37943	
2377	0	32908	32798	37944	
2378	0	32824	32864	37940	
2379	0	32853	32789	37924	
2380	0	32900	32796	37892	
2381	0	32789	32884	37892	
2382	0	32760	32720	37876	
2383	0	32734	32820	37888	
2384	0	32634	32828	37902	
2385	0	32682	32764	37892	
2386	0	32665	32833	37871	
2387	0	32660	32877	37876	
2388	0	32718	32921	37873	
2389	0	32768	32895	37881	
2390	0	32788	32884	37880	
2391	0	32841	32824	37894	
2392	0	32828	32853	37890	
2393	0	32948	32801	37900	
2394	0	32916	32871	37894	
2395	0	32860	32774	37876	
2396	0	32840	32818	37869	
2397	0	32932	32844	37880	
2398	0	32860	32832	37853	
2399	0	32796	32790	37804	
2400	0	32808	32769	37815	
2401	0	32804	32772	37814	
2402	0	32745	32852	37817	
2403	0	32664	32815	37828	
2404	0	32676	32768	37828	
2405	0	32628	32794	37814	
2406	0	32584	32854	37802	
2407	0	32610	32885	37800	
2408	0	32700	32873	37844	
2409	0	32772	32892	37869	
2410	0	32796	32840	37874	
2411	0	32820	32900	37872	
2412	0	32960	32832	37861	
2413	0	32916	32852	37860	
2414	0	32866	32872	37851	
2415	0	32886	32736	37864	
2416	0	32873	32846	37868	
2417	0	32908	32844	37880	
2418	0	32932	32788	37862	
2419	0	32712	32838	37856	
2420	0	32812	32732	37856	
2421	0	32764	32807	37860	
2422	0	32752	32876	37880	
2423	0	32636	32878	37884	
2424	0	32688	32832	37882	
2425	0	32672	32873	37885	
2426	0	32705	32820	37916	
2427	0	32697	32797	37931	
2428	0	32720	32836	37932	
2429	0	32760	32868	37958	
2430	0	32774	32718	37957	
2431	0	32872	32885	37966	
2432	0	32765	32756	37972	
2433	0	32792	32770	37989	
2434	0	32862	32808	37994	
2435	0	32852	32848	38000	
2436	0	32852	32846	37980	
2437	0	32812	32836	37948	
2438	0	32901	32868	37959	
2439	0	32840	32775	37944	
2440	0	32884	32773	37941	
2441	0	32853	32784	37946	
2442	0	32752	32849	37926	
2443	0	32696	32824	37924	
2444	0	32664	32828	37917	
2445	0	32636	32905	37934	
2446	0	32741	32962	37948	
2447	0	32676	32908	37948	
2448	0	32740	32869	37932	
2449	0	32816	32873	37953	
2450	0	32800	32768	37950	
2451	0	32884	32814	37927	
2452	0	32876	32819	37924	
2453	0	32884	32780	37932	
2454	0	32858	32896	37906	
2455	0	32834	32774	37882	
2456	0	32854	32804	37879	
2457	0	32864	32884	37879	
2458	0	32868	32756	37885	
2459	0	32892	32838	37873	
2460	0	32812	32894	37880	
2461	0	32816	32772	37880	
2462	0	32792	32804	37880	
2463	0	32684	32904	37860	
2464	0	32668	32844	37840	
2465	0	32632	32858	37830	
2466	0	32634	32992	37824	
2467	0	32668	32820	37856	
2468	0	32672	32870	37845	
2469	0	32772	32906	37856	
2470	0	32850	32928	37863	
2471	0	32884	32804	37872	
2472	0	32876	32832	37894	
2473	0	32852	32775	37892	
2474	0	32812	32944	37852	
2475	0	32864	32930	37836	
2476	0	32824	32864	37834	
2477	0	32904	32712	37841	
2478	0	32964	32840	37824	
2479	0	32856	32762	37804	
2480	0	32873	32760	37799	
2481	0	32836	32736	37773	
2482	0	32688	32805	37776	
2483	0	32672	32800	37797	
2484	0	32676	32810	37792	
2485	0	32597	32846	37796	
2486	0	32640	32764	37815	
2487	0	32592	32870	37845	
2488	0	32708	32916	37868	
2489	0	32784	32868	37864	
2490	0	32736	32788	37857	
2491	0	32866	32864	37840	
2492	0	32772	32936	37820	
2493	0	32864	32762	37824	
2494	0	32814	32775	37817	
2495	0	32792	32840	37814	
2496	0	32896	32860	37786	
2497	0	32916	32901	37759	
2498	0	32884	32740	37767	
2499	0	32860	32752	37785	
2500	0	32800	32764	37778	
2501	0	32748	32774	37767	
2502	0	32710	32788	37768	
2503	0	32704	32824	37768	
2504	0	32712	32830	37780	
2505	0	32696	32800	37796	
2506	0	32673	32815	37816	
2507	0	32620	32840	37848	
2508	0	32696	32944	37846	
2509	0	32726	32856	37840	
2510	0	32825	32896	37829	
2511	0	32864	32928	37841	
2512	0	32880	32800	37832	
2513	0	32892	32764	37825	
2514	0	32789	32813	37832	
2515	0	32860	32800	37839	
2516	0	32908	32826	37828	
2517	0	32944	32824	37796	
2518	0	32836	32812	37810	
2519	0	32845	32805	37832	
2520	0	32800	32820	37828	
2521	0	32824	32799	37813	
2522	0	32720	32805	37812	
2523	0	32696	32748	37828	
2524	0	32544	32780	37849	
2525	0	32712	32880	37856	
2526	0	32652	32844	37844	
2527	0	32716	32930	37852	
2528	0	32705	32958	37864	
2529	0	32732	32840	37869	
2530	0	32836	32940	37888	
2531	0	32809	32869	37868	
2532	0	32828	32833	37884	
2533	0	32896	32726	37884	
2534	0	32856	32780	37901	
2535	0	32824	32813	37893	
2536	0	32832	32934	37912	
2537	0	32868	32878	37914	
2538	0	32805	32855	37928	
2539	0	32892	32741	37930	
2540	0	32816	32758	37920	
2541	0	32716	32788	37928	
2542	0	32748	32857	37920	
2543	0	32736	32888	37914	
2544	0	32616	32830	37913	
2545	0	32616	32862	37932	
2546	0	32661	32808	37956	
2547	0	32624	32877	37984	
2548	0	32729	32881	37993	
2549	0	32832	32736	37996	
2550	0	32846	32792	37989	
2551	0	32788	32836	38006	
2552	0	32836	32830	37967	
2553	0	32832	32848	37977	
2554	0	32928	32820	37972	
2555	0	32863	32808	37966	
2556	0	32888	32876	37957	
2557	0	32885	32764	37953	
2558	0	32921	32878	37925	
2559	0	32852	32921	37909	
2560	0	32916	32856	37906	
2561	0	32792	32806	37893	
2562	0	32728	32757	37879	
2563	0	32668	32756	37870	
2564	0	32670	32844	37870	
2565	0	32621	32768	37857	
2566	0	32616	32872	37856	
2567	0	32650	32825	37851	
2568	0	32784	32816	37866	
2569	0	32772	32846	37890	
2570	0	32780	32849	37872	
2571	0	32808	32850	37852	
2572	0	32828	32791	37854	
2573	0	32840	32820	37862	
2574	0	32886	32840	37868	
2575	0	32917	32924	37844	
2576	0	32828	32838	37832	
2577	0	32888	32729	37829	
2578	0	32928	32753	37820	
2579	0	32852	32801	37808	
2580	0	32876	32824	37812	
2581	0	32788	32840	37797	
2582	0	32696	32764	37821	
2583	0	32648	32822	37814	
2584	0	32648	32868	37824	
2585	0	32684	32917	37828	
2586	0	32706	32901	37828	
2587	0	32640	32880	37812	
2588	0	32736	32881	37845	
2589	0	32732	32942	37842	
2590	0	32846	32858	37884	
2591	0	32865	32852	37854	
2592	0	32864	32880	37857	
2593	0	32796	32867	37863	
2594	0	32844	32866	37863	
2595	0	32864	32813	37840	
2596	0	32849	32813	37826	
2597	0	32900	32768	37836	
2598	0	32916	32713	37834	
2599	0	32932	32693	37844	
2600	0	32900	32714	37823	
2601	0	32737	32809	37804	
2602	0	32780	32826	37831	
2603	0	32740	32900	37814	
2604	0	32648	32825	37844	
2605	0	32637	32852	37848	
2606	0	32612	32948	37872	
2607	0	32676	32909	37892	
2608	0	32664	32921	37895	
2609	0	32734	32865	37869	
2610	0	32764	32874	37884	
2611	0	32884	32964	37895	
2612	0	32856	32836	37890	
2613	0	32816	32880	37886	
2614	0	32817	32908	37864	
2615	0	32910	32860	37852	
2616	0	32948	32888	37853	
2617	0	32916	32770	37828	
2618	0	32936	32751	37836	
2619	0	32913	32816	37817	
2620	0	32856	32718	37821	
2621	0	32730	32812	37820	
2622	0	32756	32872	37810	
2623	0	32688	32952	37813	
2624	0	32680	32900	37805	
2625	0	32660	32896	37824	
2626	0	32648	32900	37808	
2627	0	32676	32952	37818	
2628	0	32748	32832	37836	
2629	0	32714	32854	37838	
2630	0	32836	32878	37854	
2631	0	32840	32909	37844	
2632	0	32869	32884	37870	
2633	0	32932	32908	37852	
2634	0	32892	32820	37862	
2635	0	32836	32884	37860	
2636	0	32846	32838	37829	
2637	0	32856	32774	37828	
2638	0	32866	32878	37840	
2639	0	32890	32902	37845	
2640	0	32916	32820	37828	
2641	0	32804	32800	37820	
2642	0	32672	32836	37820	
2643	0	32684	32718	37822	
2644	0	32628	32736	37845	
2645	0	32628	32831	37849	
2646	0	32590	32808	37847	
2647	0	32608	32852	37861	
2648	0	32629	32916	37857	
2649	0	32736	32898	37886	
2650	0	32804	32849	37908	
2651	0	32860	32932	37932	
2652	0	32852	32769	37953	
2653	0	32812	32738	37932	
2654	0	32848	32777	37936	
2655	0	32940	32791	37928	
2656	0	32954	32725	37924	
2657	0	32897	32860	37926	
2658	0	32856	32825	37924	
2659	0	32888	32860	37933	
2660	0	32902	32832	37924	
2661	0	32816	32801	37924	
2662	0	32720	32848	37928	
2663	0	32684	32808	37916	
2664	0	32644	32816	37920	
2665	0	32576	32844	37918	
2666	0	32644	32856	37892	
2667	0	32672	32872	37920	
2668	0	32728	32945	37928	
2669	0	32788	32912	37936	
2670	0	32824	32887	37938	
2671	0	32820	32885	37953	
2672	0	32868	32812	37940	
2673	0	32868	32792	37943	
2674	0	32880	32753	37937	
2675	0	32912	32775	37944	
2676	0	32936	32836	37912	
2677	0	32833	32704	37920	
2678	0	32808	32728	37920	
2679	0	32904	32745	37909	
2680	0	32852	32789	37895	
2681	0	32804	32860	37892	
2682	0	32701	32840	37895	
2683	0	32632	32830	37873	
2684	0	32614	32821	37888	
2685	0	32608	32809	37895	
2686	0	32608	32883	37885	
2687	0	32668	32885	37904	
2688	0	32660	32775	37885	
2689	0	32745	32845	37889	
2690	0	32748	32918	37909	
2691	0	32868	32956	37888	
2692	0	32830	32857	37904	
2693	0	32868	32814	37924	
2694	0	32841	32852	37908	
2695	0	32837	32862	37890	
2696	0	32864	32793	37900	
2697	0	32918	32848	37888	
2698	0	32884	32920	37884	
2699	0	32957	32822	37888	
2700	0	32852	32641	37876	
2701	0	32728	32836	37872	
2702	0	32733	32866	37884	
2703	0	32668	32812	37868	
2704	0	32668	32760	37864	
2705	0	32596	32808	37865	
2706	0	32628	32897	37895	
2707	0	32624	32865	37908	
2708	0	32716	32924	37920	
2709	0	32830	32872	37920	
2710	0	32760	32812	37895	
2711	0	32881	32844	37895	
2712	0	32888	32968	37884	
2713	0	32921	32864	37892	
2714	0	32808	32771	37868	
2715	0	32784	32744	37860	
2716	0	32865	32784	37848	
2717	0	32900	32704	37862	
2718	0	32925	32724	37870	
2719	0	32904	32796	37877	
2720	0	32816	32785	37876	
2721	0	32797	32740	37872	
2722	0	32708	32832	37873	
2723	0	32712	32920	37870	
2724	0	32668	32796	37850	
2725	0	32616	32797	37856	
2726	0	32688	32850	37872	
2727	0	32676	32902	37880	
2728	0	32676	32906	37892	
2729	0	32704	32910	37884	
2730	0	32812	32893	37904	
2731	0	32768	32804	37888	
2732	0	32848	32796	37876	
2733	0	32840	32881	37888	
2734	0	32910	32856	37871	
2735	0	32876	32814	37865	
2736	0	32832	32916	37858	
2737	0	32893	32792	37838	
2738	0	32908	32728	37837	
2739	0	32913	32910	37836	
2740	0	32840	32804	37816	
2741	0	32760	32762	37792	
2742	0	32681	32897	37800	
2743	0	32728	32848	37796	
2744	0	32680	32824	37792	
2745	0	32636	32825	37812	
2746	0	32608	32785	37808	
2747	0	32669	32758	37821	
2748	0	32668	32935	37821	
2749	0	32720	32752	37818	
2750	0	32832	32826	37837	
2751	0	32844	32731	37839	
2752	0	32788	32873	37829	
2753	0	32848	32774	37816	
2754	0	32924	32817	37808	
2755	0	32896	32800	37824	
2756	0	32832	32888	37820	
2757	0	32876	32720	37816	
2758	0	32880	32784	37816	
2759	0	32840	32828	37799	
2760	0	32936	32868	37788	
2761	0	32760	32790	37793	
2762	0	32752	32816	37808	
2763	0	32680	32847	37804	
2764	0	32608	32920	37789	
2765	0	32665	32840	37791	
2766	0	32640	32880	37797	
2767	0	32640	32876	37806	
2768	0	32804	32853	37818	
2769	0	32757	32820	37830	
2770	0	32764	32884	37840	
2771	0	32840	32868	37836	
2772	0	32800	32844	37858	
2773	0	32897	32752	37888	
2774	0	32828	32862	37893	
2775	0	32888	32775	37898	
2776	0	32888	32757	37896	
2777	0	32844	32810	37895	
2778	0	32840	32773	37892	
2779	0	32829	32804	37876	
2780	0	32844	32900	37865	
2781	0	32776	32852	37878	
2782	0	32741	32868	37881	
2783	0	32684	32844	37890	
2784	0	32640	32862	37908	
2785	0	32684	32796	37904	
2786	0	32714	32876	37916	
2787	0	32680	32828	37940	
2788	0	32685	32877	37917	
2789	0	32740	32976	37924	
2790	0	32809	32817	37944	
2791	0	32850	32808	37938	
2792	0	32828	32913	37913	
2793	0	32871	32806	37895	
2794	0	32812	32881	37908	
2795	0	32796	32888	37916	
2796	0	32820	32858	37912	
2797	0	32916	32844	37885	
2798	0	32868	32824	37883	
2799	0	32853	32808	37870	
2800	0	32868	32818	37866	
2801	0	32801	32852	37877	
2802	0	32741	32769	37860	
2803	0	32693	32753	37864	
2804	0	32676	32798	37856	
2805	0	32684	32796	37869	
2806	0	32632	32789	37872	
2807	0	32624	32812	37871	
2808	0	32736	32869	37883	
2809	0	32724	32870	37894	
2810	0	32728	32896	37925	
2811	0	32848	32866	37904	
2812	0	32820	32820	37912	
2813	0	32888	32840	37924	
2814	0	32866	32852	37905	
2815	0	32952	32796	37904	
2816	0	32928	32812	37909	
2817	0	32828	32804	37904	
2818	0	32880	32751	37895	
2819	0	32808	32862	37884	
2820	0	32840	32722	37889	
2821	0	32740	32758	37908	
2822	0	32772	32748	37900	
2823	0	32700	32792	37895	
2824	0	32636	32852	37895	
2825	0	32664	32738	37908	
2826	0	32657	32830	37920	
2827	0	32716	32828	37934	
2828	0	32732	32798	37916	
2829	0	32736	32845	37913	
2830	0	32784	32844	37920	
2831	0	32832	32796	37916	
2832	0	32832	32775	37910	
2833	0	32909	32728	37920	
2834	0	32812	32778	37932	
2835	0	32916	32720	37924	
2836	0	32980	32902	37885	
2837	0	32832	32948	37872	
2838	0	32944	33036	37864	
2839	0	32904	32940	37876	
2840	0	32881	32772	37860	
2841	0	32817	32751	37844	
2842	0	32728	32772	37838	
2843	0	32692	32842	37821	
2844	0	32692	32848	37822	
2845	0	32652	32892	37816	
2846	0	32696	32832	37822	
2847	0	32608	32850	37825	
2848	0	32694	32928	37850	
2849	0	32744	32932	37852	
2850	0	32768	32836	37856	
2851	0	32815	32796	37842	
2852	0	32816	32892	37856	
2853	0	32873	32798	37857	
2854	0	32936	32853	37845	
2855	0	32820	32884	37825	
2856	0	32884	32880	37828	
2857	0	32864	32781	37804	
2858	0	32872	32788	37780	
2859	0	32840	32824	37773	
2860	0	32808	32743	37792	
2861	0	32800	32848	37791	
2862	0	32726	32780	37790	
2863	0	32674	32824	37767	
2864	0	32665	32769	37784	
2865	0	32704	32858	37784	
2866	0	32644	32864	37812	
2867	0	32672	32884	37828	
2868	0	32749	32856	37849	
2869	0	32722	32886	37876	
2870	0	32756	32788	37876	
2871	0	32876	32820	37869	
2872	0	32840	32849	37857	
2873	0	32832	32808	37878	
2874	0	32928	32918	37861	
2875	0	32853	32830	37877	
2876	0	32888	32740	37881	
2877	0	32836	32873	37864	
2878	0	32836	32885	37861	
2879	0	32894	32862	37854	
2880	0	32788	32845	37848	
2881	0	32788	32896	37852	
2882	0	32716	32841	37864	
2883	0	32677	32796	37872	
2884	0	32698	32861	37873	
2885	0	32700	32824	37857	
2886	0	32628	32828	37848	
2887	0	32680	32718	37856	
2888	0	32720	32775	37900	
2889	0	32766	32888	37884	
2890	0	32813	32877	37865	
2891	0	32833	32814	37894	
2892	0	32833	32839	37887	
2893	0	32860	32724	37872	
2894	0	32828	32866	37856	
2895	0	32945	32804	37858	
2896	0	32856	32804	37828	
2897	0	32840	32832	37852	
2898	0	32878	32813	37850	
2899	0	32808	32804	37844	
2900	0	32852	32788	37840	
2901	0	32832	32838	37860	
2902	0	32700	32868	37848	
2903	0	32696	32820	37855	
2904	0	32676	32881	37866	
2905	0	32610	32845	37894	
2906	0	32700	32832	37886	
2907	0	32656	32812	37895	
2908	0	32684	32848	37892	
2909	0	32728	32828	37884	
2910	0	32732	32784	37852	
2911	0	32838	32876	37839	
2912	0	32893	32824	37852	
2913	0	32933	32852	37828	
2914	0	32826	32866	37852	
2915	0	32817	32871	37847	
2916	0	32845	32821	37858	
2917	0	32869	32792	37841	
2918	0	32892	32804	37837	
2919	0	32872	32780	37838	
2920	0	32904	32769	37848	
2921	0	32752	32788	37845	
2922	0	32764	32856	37836	
2923	0	32636	32840	37855	
2924	0	32605	32842	37844	
2925	0	32608	32860	37860	
2926	0	32632	32828	37860	
2927	0	32660	32829	37868	
2928	0	32660	32912	37894	
2929	0	32694	32833	37892	
2930	0	32836	32846	37894	
2931	0	32836	32873	37908	
2932	0	32880	32905	37925	
2933	0	32905	32818	37912	
2934	0	32860	32806	37928	
2935	0	32889	32868	37932	
2936	0	32852	32889	37924	
2937	0	32852	32820	37925	
2938	0	32940	32804	37904	
2939	0	32896	32756	37909	
2940	0	32872	32796	37904	
2941	0	32793	32818	37926	
2942	0	32732	32764	37920	
2943	0	32640	32746	37908	
2944	0	32576	32812	37892	
2945	0	32584	32824	37892	
2946	0	32664	32872	37916	
2947	0	32597	32824	37924	
2948	0	32738	32829	37933	
2949	0	32728	32876	37932	
2950	0	32768	32820	37917	
2951	0	32820	32902	37903	
2952	0	32852	32869	37904	
2953	0	32832	32800	37893	
2954	0	32860	32788	37856	
2955	0	32869	32915	37860	
2956	0	32860	32769	37840	
2957	0	32888	32812	37828	
2958	0	32860	32941	37817	
2959	0	32928	32848	37840	
2960	0	32788	32840	37845	
2961	0	32824	32900	37828	
2962	0	32684	32880	37828	
2963	0	32740	32809	37825	
2964	0	32722	32800	37844	
2965	0	32608	32860	37829	
2966	0	32629	32837	37844	
2967	0	32668	32892	37860	
2968	0	32788	32884	37884	
2969	0	32772	32906	37876	
2970	0	32852	32972	37852	
2971	0	32832	32824	37848	
2972	0	32888	32858	37861	
2973	0	32850	32890	37860	
2974	0	32856	32853	37860	
2975	0	32884	32822	37854	
2976	0	32825	32848	37845	
2977	0	32892	32848	37854	
2978	0	32856	32864	37828	
2979	0	32836	32780	37840	
2980	0	32844	32805	37834	
2981	0	32864	32699	37824	
2982	0	32704	32680	37817	
2983	0	32704	32745	37816	
2984	0	32620	32772	37824	
2985	0	32632	32837	37817	
2986	0	32638	32820	37828	
2987	0	32704	32793	37845	
2988	0	32740	32860	37864	
2989	0	32752	32804	37876	
2990	0	32860	32780	37893	
2991	0	32852	32842	37892	
2992	0	32832	32846	37895	
2993	0	32876	32800	37897	
2994	0	32824	32916	37887	
2995	0	32800	32874	37894	
2996	0	32888	32800	37872	
2997	0	32880	32740	37854	
2998	0	32906	32756	37848	
2999	0	32864	32840	37852	
3000	0	32896	32832	37868	
3001	0	32784	32822	37868	
3002	0	32664	32832	37852	
3003	0	32640	32769	37868	
3004	0	32604	32844	37885	
3005	0	32672	32908	37892	
3006	0	32652	32951	37895	
3007	0	32648	32892	37888	
3008	0	32696	32872	37904	
3009	0	32812	32867	37921	
3010	0	32800	32852	37904	
3011	0	32844	32836	37912	
3012	0	32849	32799	37916	
3013	0	32860	32775	37897	
3014	0	32850	32876	37877	
3015	0	32860	32876	37868	
3016	0	32905	32888	37855	
3017	0	32928	32857	37830	
3018	0	32820	32756	37812	
3019	0	32876	32752	37804	
3020	0	32829	32764	37828	
3021	0	32780	32799	37826	
3022	0	32741	32808	37816	
3023	0	32694	32784	37804	
3024	0	32620	32736	37799	
3025	0	32628	32780	37836	
3026	0	32664	32840	37828	
3027	0	32684	32824	37834	
3028	0	32688	32890	37833	
3029	0	32668	32953	37833	
3030	0	32812	32848	37834	
3031	0	32844	32902	37852	
3032	0	32852	32938	37850	
3033	0	32792	32872	37826	
3034	0	32846	32902	37823	
3035	0	32912	32840	37820	
3036	0	32940	32681	37809	
3037	0	32932	32783	37800	
3038	0	32908	32812	37796	
3039	0	32929	32764	37793	
3040	0	32844	32775	37796	
3041	0	32775	32799	37805	
3042	0	32748	32799	37822	
3043	0	32698	32700	37805	
3044	0	32681	32676	37818	
3045	0	32640	32768	37832	
3046	0	32684	32935	37860	
3047	0	32640	32967	37879	
3048	0	32686	32887	37892	
3049	0	32752	32878	37861	
3050	0	32800	32853	37860	
3051	0	32872	32868	37852	
3052	0	32876	32894	37866	
3053	0	32868	32899	37884	
3054	0	32864	32881	37892	
3055	0	32830	32968	37869	
3056	0	32900	32952	37856	
3057	0	32876	32908	37861	
3058	0	32932	32877	37861	
3059	0	32856	32857	37859	
3060	0	32905	32827	37853	
3061	0	32808	32866	37863	
3062	0	32700	32842	37864	
3063	0	32704	32844	37888	
3064	0	32642	32813	37900	
3065	0	32564	32824	37897	
3066	0	32660	32893	37904	
3067	0	32704	32928	37911	
3068	0	32720	32940	37908	
3069	0	32812	32852	37919	
3070	0	32860	32799	37912	
3071	0	32800	32756	37900	
3072	0	32848	32836	37895	
3073	0	32864	32856	37924	
3074	0	32868	32768	37924	
3075	0	32852	32764	37924	
3076	0	32916	32733	37900	
3077	0	32984	32840	37868	
3078	0	32922	32780	37855	
3079	0	32921	32805	37844	
3080	0	32824	32780	37840	
3081	0	32773	32668	37848	
3082	0	32688	32724	37861	
3083	0	32752	32711	37872	
3084	0	32700	32833	37881	
3085	0	32644	32896	37886	
3086	0	32666	32924	37908	
3087	0	32620	32866	37919	
3088	0	32662	32888	37932	
3089	0	32800	32856	37937	
3090	0	32845	32824	37940	
3091	0	32892	32903	37944	
3092	0	32852	32872	37945	
3093	0	32854	32884	37936	
3094	0	32932	32791	37944	
3095	0	32869	32868	37956	
3096	0	32866	32774	37954	
3097	0	32924	32780	37934	
3098	0	32840	32820	37924	
3099	0	32878	32865	37900	
3100	0	32861	32846	37896	
3101	0	32812	32754	37892	
3102	0	32736	32748	37908	
3103	0	32678	32846	37904	
3104	0	32588	32836	37912	
3105	0	32554	32889	37924	
3106	0	32640	32860	37918	
3107	0	32684	32868	37924	
3108	0	32768	32893	37908	
3109	0	32792	32800	37924	
3110	0	32802	32826	37928	
3111	0	32916	32958	37924	
3112	0	32800	32948	37912	
3113	0	32880	32856	37892	
3114	0	32900	32839	37895	
3115	0	32833	32877	37892	
3116	0	32878	32820	37894	
3117	0	32837	32784	37884	
3118	0	32864	32810	37868	
3119	0	32890	32794	37870	
3120	0	32892	32783	37860	
3121	0	32848	32760	37852	
3122	0	32646	32792	37854	
3123	0	32680	32775	37858	
3124	0	32636	32830	37852	
3125	0	32581	32854	37840	
3126	0	32632	32789	37840	
3127	0	32620	32832	37837	
3128	0	32684	32872	37844	
3129	0	32725	32788	37840	
3130	0	32797	32868	37852	
3131	0	32850	32856	37840	
3132	0	32788	32828	37840	
3133	0	32904	32812	37839	
3134	0	32868	32764	37834	
3135	0	32888	32824	37836	
3136	0	32872	32838	37832	
3137	0	32900	32826	37817	
3138	0	32896	32775	37783	
3139	0	32924	32862	37788	
3140	0	32782	32864	37797	
3141	0	32816	32891	37797	
3142	0	32780	32805	37796	
3143	0	32689	32744	37793	
3144	0	32650	32780	37772	
3145	0	32572	32750	37788	
3146	0	32644	32889	37797	
3147	0	32661	32824	37808	
3148	0	32660	32812	37824	
3149	0	32764	32916	37844	
3150	0	32824	32884	37836	
3151	0	32876	32887	37848	
3152	0	32792	32892	37852	
3153	0	32876	32876	37854	
3154	0	32865	32775	37860	
3155	0	32900	32804	37852	
3156	0	32876	32832	37844	
3157	0	32828	32778	37848	
3158	0	32900	32820	37844	
3159	0	32944	32768	37824	
3160	0	32825	32796	37838	
3161	0	32832	32840	37837	
3162	0	32680	32830	37841	
3163	0	32709	32829	37804	
3164	0	32734	32808	37820	
3165	0	32631	32786	37832	
3166	0	32593	32868	37849	
3167	0	32685	32802	37871	
3168	0	32784	32973	37844	
3169	0	32768	32868	37842	
3170	0	32784	32832	37860	
3171	0	32812	32870	37872	
3172	0	32860	32933	37868	
3173	0	32846	32884	37864	
3174	0	32908	32828	37883	
3175	0	32808	32812	37888	
3176	0	32886	32784	37876	
3177	0	32901	32860	37852	
3178	0	32928	32844	37860	
3179	0	32897	32861	37836	
3180	0	32876	32828	37842	
3181	0	32800	32815	37848	
3182	0	32702	32796	37832	
3183	0	32644	32808	37816	
3184	0	32605	32840	37835	
3185	0	32665	32866	37855	
3186	0	32653	32845	37873	
3187	0	32644	32836	37880	
3188	0	32700	32918	37872	
3189	0	32776	32904	37885	
3190	0	32820	32908	37888	
3191	0	32810	32881	37888	
3192	0	32844	32844	37895	
3193	0	32852	32903	37896	
3194	0	32884	32837	37895	
3195	0	32861	32768	37885	
3196	0	32901	32804	37860	
3197	0	32896	32816	37864	
3198	0	32824	32752	37872	
3199	0	32820	32757	37878	
3200	0	32816	32718	37860	
3201	0	32804	32744	37848	
3202	0	32752	32775	37852	
3203	0	32630	32819	37866	
3204	0	32576	32896	37860	
3205	0	32617	32911	37888	
3206	0	32681	32953	37900	
3207	0	32724	32876	37888	
3208	0	32704	32897	37871	
3209	0	32745	32894	37872	
3210	0	32812	32832	37916	
3211	0	32840	32832	37912	
3212	0	32816	32846	37908	
3213	0	32795	32832	37901	
3214	0	32840	32810	37908	
3215	0	32833	32775	37913	
3216	0	32916	32854	37917	
3217	0	32896	32838	37914	
3218	0	32928	32860	37876	
3219	0	32894	32836	37860	
3220	0	32848	32739	37868	
3221	0	32785	32700	37868	
3222	0	32708	32792	37863	
3223	0	32714	32884	37889	
3224	0	32612	32890	37869	
3225	0	32656	32894	37885	
3226	0	32596	32903	37881	
3227	0	32684	32841	37888	
3228	0	32728	32872	37904	
3229	0	32832	32808	37925	
3230	0	32804	32893	37945	
3231	0	32872	32913	37948	
3232	0	32864	32792	37942	
3233	0	32844	32852	37934	
3234	0	32909	32815	37924	
3235	0	32860	32844	37929	
3236	0	32896	32790	37934	
3237	0	32848	32816	37927	
3238	0	32841	32908	37932	
3239	0	32837	32940	37916	
3240	0	32832	32736	37896	
3241	0	32844	32716	37888	
3242	0	32744	32696	37885	
3243	0	32656	32716	37884	
3244	0	32596	32816	37895	
3245	0	32658	32860	37895	
3246	0	32640	32888	37909	
3247	0	32689	32860	37924	
3248	0	32745	32847	37904	
3249	0	32760	32868	37916	
3250	0	32848	32884	37920	
3251	0	32886	32889	37904	
3252	0	32792	32836	37876	
3253	0	32872	32912	37861	
3254	0	32804	32900	37840	
3255	0	32864	32822	37836	
3256	0	32861	32862	37830	
3257	0	32900	32847	37832	
3258	0	32892	32828	37828	
3259	0	32868	32784	37838	
3260	0	32860	32794	37825	
3261	0	32776	32672	37820	
3262	0	32761	32724	37808	
3263	0	32668	32722	37792	
3264	0	32644	32759	37804	
3265	0	32653	32832	37822	
3266	0	32608	32881	37828	
3267	0	32649	32870	37816	
3268	0	32724	32964	37834	
3269	0	32724	32870	37828	
3270	0	32800	32864	37866	
3271	0	32848	32924	37860	
3272	0	32785	32884	37834	
3273	0	32920	32928	37840	
3274	0	32893	32920	37852	
3275	0	32890	32884	37839	
3276	0	32912	32830	37833	
3277	0	32868	32904	37844	
3278	0	32880	32904	37853	
3279	0	32960	32891	37828	
3280	0	32760	32881	37832	
3281	0	32761	32856	37834	
3282	0	32732	32848	37854	
3283	0	32620	32808	37853	
3284	0	32648	32816	37850	
3285	0	32640	32780	37876	
3286	0	32614	32796	37888	
3287	0	32664	32903	37880	
3288	0	32744	32850	37864	
3289	0	32797	32840	37895	
3290	0	32812	32844	37909	
3291	0	32848	32802	37905	
3292	0	32884	32876	37918	
3293	0	32864	32878	37926	
3294	0	32932	32844	37920	
3295	0	32824	32748	37903	
3296	0	32952	32788	37912	
3297	0	32872	32740	37908	
3298	0	32828	32830	37895	
3299	0	32864	32842	37880	
3300	0	32833	32864	37894	
3301	0	32806	32836	37882	
3302	0	32756	32789	37892	
3303	0	32664	32812	37896	
3304	0	32617	32786	37880	
3305	0	32672	32805	37904	
3306	0	32616	32933	37916	
3307	0	32620	32940	37908	
3308	0	32740	32890	37900	
3309	0	32776	32903	37905	
3310	0	32840	32824	37894	
3311	0	32800	32881	37895	
3312	0	32824	32796	37895	
3313	0	32854	32820	37872	
3314	0	32842	32828	37869	
3315	0	32900	32840	37857	
3316	0	32938	32832	37852	
3317	0	32884	32776	37844	
3318	0	32868	32868	37849	
3319	0	32872	32848	37839	
3320	0	32800	32812	37838	
3321	0	32782	32865	37824	
3322	0	32696	32798	37816	
3323	0	32704	32863	37812	
3324	0	32634	32895	37817	
3325	0	32669	32904	37824	
3326	0	32580	32964	37833	
3327	0	32620	32844	37853	
3328	0	32705	32814	37844	
3329	0	32701	32872	37844	
3330	0	32820	32825	37852	
3331	0	32876	32808	37832	
3332	0	32880	32815	37846	
3333	0	32816	32772	37852	
3334	0	32848	32722	37861	
3335	0	32864	32777	37856	
3336	0	32900	32816	37857	
3337	0	32872	32825	37825	
3338	0	32884	32804	37848	
3339	0	32852	32853	37852	
3340	0	32876	32788	37836	
3341	0	32761	32888	37856	
3342	0	32720	32794	37864	
3343	0	32656	32780	37860	
3344	0	32605	32783	37864	
3345	0	32612	32792	37886	
3346	0	32600	32844	37902	
3347	0	32648	32892	37901	
3348	0	32721	32887	37904	
3349	0	32756	32924	37908	
3350	0	32836	32990	37895	
3351	0	32829	32892	37911	
3352	0	32844	32812	37900	
3353	0	32856	32769	37880	
3354	0	32898	32780	37909	
3355	0	32870	32796	37895	
3356	0	32952	32754	37877	
3357	0	32924	32808	37872	
3358	0	32848	32790	37872	
3359	0	32834	32826	37865	
3360	0	32808	32784	37884	
3361	0	32733	32718	37872	
3362	0	32744	32614	37863	
3363	0	32653	32704	37838	
3364	0	32652	32878	37864	
3365	0	32672	32989	37876	
3366	0	32614	33017	37868	
3367	0	32672	33044	37882	
3368	0	32722	32973	37865	
3369	0	32730	32944	37876	
3370	0	32828	32951	37876	
3371	0	32916	32866	37880	
3372	0	32892	32854	37862	
3373	0	32808	32830	37860	
3374	0	32892	32769	37860	
3375	0	32781	32808	37852	
3376	0	32876	32744	37847	
3377	0	32928	32700	37845	
3378	0	32826	32782	37838	
3379	0	32876	32828	37849	
3380	0	32840	32749	37822	
3381	0	32736	32788	37844	
3382	0	32716	32837	37856	
3383	0	32596	32742	37848	
3384	0	32614	32852	37852	
3385	0	32586	32862	37860	
3386	0	32649	32832	37864	
3387	0	32688	32948	37893	
3388	0	32769	32876	37905	
3389	0	32802	32773	37910	
3390	0	32800	32812	37885	
3391	0	32840	32827	37880	
3392	0	32816	32828	37884	
3393	0	32776	32854	37884	
3394	0	32842	32948	37894	
3395	0	32874	32869	37881	
3396	0	32852	32896	37869	
3397	0	32788	32775	37861	
3398	0	32892	32716	37876	
3399	0	32837	32924	37868	
3400	0	32862	32920	37860	
3401	0	32804	32836	37876	
3402	0	32725	32868	37861	
3403	0	32748	32828	37860	
3404	0	32720	32843	37870	
3405	0	32668	32838	37878	
3406	0	32618	32892	37902	
3407	0	32662	32879	37920	
3408	0	32736	32832	37945	
3409	0	32730	32769	37940	
3410	0	32840	32804	37965	
3411	0	32848	32888	37951	
3412	0	32912	32793	37953	
3413	0	32856	32781	37944	
3414	0	32880	32876	37924	
3415	0	32920	32892	37916	
3416	0	32872	32845	37908	
3417	0	32852	32804	37904	
3418	0	32876	32822	37900	
3419	0	32836	32804	37901	
3420	0	32844	32828	37892	
3421	0	32756	32856	37880	
3422	0	32724	32914	37880	
3423	0	32680	32864	37895	
3424	0	32664	32826	37887	
3425	0	32663	32940	37848	
3426	0	32596	32852	37870	
3427	0	32644	32846	37860	
3428	0	32784	32812	37864	
3429	0	32754	32862	37861	
3430	0	32780	32740	37839	
3431	0	32868	32832	37840	
3432	0	32848	32804	37828	
3433	0	32832	32764	37826	
3434	0	32822	32674	37829	
3435	0	32840	32732	37845	
3436	0	32913	32738	37804	
3437	0	32869	32828	37801	
3438	0	32908	32816	37783	
3439	0	32824	32870	37800	
3440	0	32804	32798	37786	
3441	0	32765	32774	37788	
3442	0	32736	32888	37793	
3443	0	32714	32826	37812	
3444	0	32608	32789	37789	
3445	0	32638	32824	37792	
3446	0	32541	32870	37836	
3447	0	32688	32828	37845	
3448	0	32704	32836	37825	
3449	0	32824	32854	37832	
3450	0	32784	32804	37846	
3451	0	32856	32913	37832	
3452	0	32824	32852	37832	
3453	0	32912	32816	37837	
3454	0	32868	32794	37828	
3455	0	32908	32800	37828	
3456	0	32880	32877	37842	
3457	0	32852	32800	37836	
3458	0	32892	32809	37838	
3459	0	32886	32820	37846	
3460	0	32798	32872	37869	
3461	0	32780	32775	37849	
3462	0	32668	32810	37860	
3463	0	32688	32804	37857	
3464	0	32644	32896	37836	
3465	0	32644	32820	37840	
3466	0	32644	32896	37852	
3467	0	32648	32943	37852	
3468	0	32689	32990	37850	
3469	0	32756	32830	37864	
3470	0	32804	32821	37892	
3471	0	32932	32768	37876	
3472	0	32872	32830	37884	
3473	0	32836	32882	37895	
3474	0	32832	32817	37909	
3475	0	32888	32820	37878	
3476	0	32965	32809	37865	
3477	0	32893	32868	37865	
3478	0	32848	32872	37870	
3479	0	32856	32760	37864	
3480	0	32880	32786	37852	
3481	0	32796	32760	37852	
3482	0	32748	32916	37868	
3483	0	32692	32916	37890	
3484	0	32652	32890	37876	
3485	0	32672	32798	37868	
3486	0	32640	32791	37884	
3487	0	32652	32812	37884	
3488	0	32688	32850	37888	
3489	0	32732	32865	37882	
3490	0	32788	32906	37884	
3491	0	32894	32879	37888	
3492	0	32817	32817	37904	
3493	0	32900	32762	37900	
3494	0	32857	32796	37884	
3495	0	32868	32748	37895	
3496	0	32832	32780	37892	
3497	0	32828	32789	37895	
3498	0	32872	32832	37871	
3499	0	32884	32758	37878	
3500	0	32800	32902	37884	
3501	0	32798	32916	37870	
3502	0	32732	32824	37869	
3503	0	32674	32813	37872	
3504	0	32612	32940	37876	
3505	0	32628	32852	37864	
3506	0	32584	32813	37884	
3507	0	32660	32781	37908	
3508	0	32718	32876	37921	
3509	0	32736	32980	37911	
3510	0	32808	32958	37926	
3511	0	32828	32864	37900	
3512	0	32832	32852	37893	
3513	0	32884	32756	37884	
3514	0	32924	32798	37900	
3515	0	32860	32724	37904	
3516	0	32884	32800	37904	
3517	0	32896	32873	37904	
3518	0	32884	32940	37885	
3519	0	32860	32846	37871	
3520	0	32812	32848	37869	
3521	0	32778	32778	37864	
3522	0	32808	32840	37845	
3523	0	32632	32710	37816	
3524	0	32684	32791	37836	
3525	0	32678	32815	37848	
3526	0	32620	32901	37863	
3527	0	32656	32900	37848	
3528	0	32717	32912	37862	
3529	0	32760	32892	37889	
3530	0	32812	32908	37911	
3531	0	32820	32822	37900	
3532	0	32862	32740	37900	
3533	0	32856	32940	37894	
3534	0	32892	32756	37900	
3535	0	32808	32812	37888	
3536	0	32876	32900	37887	
3537	0	32938	32794	37879	
3538	0	32918	32870	37864	
3539	0	32836	32808	37856	
3540	0	32820	32748	37868	
3541	0	32724	32887	37858	
3542	0	32696	32742	37817	
3543	0	32650	32805	37832	
3544	0	32625	32838	37833	
3545	0	32656	32920	37864	
3546	0	32577	32804	37861	
3547	0	32696	32852	37880	
3548	0	32689	32876	37868	
3549	0	32744	32773	37881	
3550	0	32769	32815	37904	
3551	0	32864	32800	37889	
3552	0	32888	32913	37876	
3553	0	32864	32772	37861	
3554	0	32861	32824	37853	
3555	0	32872	32858	37848	
3556	0	32910	32775	37836	
3557	0	32856	32788	37840	
3558	0	32956	32888	37834	
3559	0	32859	32871	37821	
3560	0	32840	32788	37829	
3561	0	32744	32719	37823	
3562	0	32732	32840	37828	
3563	0	32692	32812	37830	
3564	0	32700	32833	37816	
3565	0	32574	32847	37844	
3566	0	32620	32864	37856	
3567	0	32673	32933	37872	
3568	0	32729	32964	37860	
3569	0	32763	32974	37877	
3570	0	32921	32852	37884	
3571	0	32820	32861	37868	
3572	0	32910	32752	37876	
3573	0	32828	32892	37872	
3574	0	32844	32836	37876	
3575	0	32928	32808	37852	
3576	0	32864	32768	37848	
3577	0	32868	32740	37848	
3578	0	32888	32832	37857	
3579	0	32896	32784	37856	
3580	0	32841	32868	37849	
3581	0	32724	32753	37853	
3582	0	32761	32836	37848	
3583	0	32628	32916	37860	
3584	0	32704	32756	37872	
3585	0	32628	32796	37873	
3586	0	32648	32852	37876	
3587	0	32716	32792	37887	
3588	0	32768	32868	37886	
3589	0	32728	32932	37901	
3590	0	32789	32816	37885	
3591	0	32816	32824	37884	
3592	0	32812	32829	37881	
3593	0	32928	32790	37878	
3594	0	32788	32775	37889	
3595	0	32856	32689	37876	
3596	0	32926	32781	37885	
3597	0	32832	32848	37872	
3598	0	32912	32890	37884	
3599	0	32924	32739	37878	
3600	0	32877	32684	37892	
3601	0	32768	32804	37887	
3602	0	32688	32878	37884	
3603	0	32640	32826	37894	
3604	0	32644	32848	37885	
3605	0	32648	32866	37880	
3606	0	32612	32856	37872	
3607	0	32664	32920	37872	
3608	0	32688	32857	37888	
3609	0	32750	32936	37892	
3610	0	32812	32797	37905	
3611	0	32828	32781	37892	
3612	0	32860	32818	37888	
3613	0	32848	32820	37889	
3614	0	32880	32876	37854	
3615	0	32880	32841	37860	
3616	0	32904	32824	37829	
3617	0	32896	32804	37856	
3618	0	32918	32892	37860	
3619	0	32752	32736	37877	
3620	0	32844	32790	37844	
3621	0	32792	32802	37832	
3622	0	32800	32792	37824	
3623	0	32656	32724	37839	
3624	0	32629	32868	37855	
3625	0	32588	32775	37853	
3626	0	32608	32864	37872	
3627	0	32708	32976	37864	
3628	0	32676	32937	37861	
3629	0	32792	32836	37873	
3630	0	32836	32870	37870	
3631	0	32893	32916	37863	
3632	0	32844	32877	37869	
3633	0	32829	32878	37860	
3634	0	32889	32792	37860	
3635	0	32860	32766	37849	
3636	0	32960	32764	37852	
3637	0	32878	32804	37848	
3638	0	32860	32844	37845	
3639	0	32808	32842	37848	
3640	0	32808	32908	37857	
3641	0	32741	32832	37860	
3642	0	32711	32893	37852	
3643	0	32720	32895	37857	
3644	0	32652	32802	37856	
3645	0	32610	32796	37868	
3646	0	32640	32809	37880	
3647	0	32684	32696	37885	
3648	0	32776	32775	37892	
3649	0	32757	32864	37890	
3650	0	32862	32828	37896	
3651	0	32801	32810	37912	
3652	0	32841	32797	37911	
3653	0	32808	32856	37889	
3654	0	32840	32812	37878	
3655	0	32880	32837	37886	
3656	0	32968	32918	37892	
3657	0	32901	32820	37916	
3658	0	32872	32826	37905	
3659	0	32894	32824	37896	
3660	0	32886	32877	37889	
3661	0	32769	32796	37868	
3662	0	32760	32908	37865	
3663	0	32714	32825	37895	
3664	0	32628	32712	37889	
3665	0	32610	32885	37895	
3666	0	32625	32898	37905	
3667	0	32604	32868	37918	
3668	0	32680	32964	37943	
3669	0	32820	32814	37956	
3670	0	32801	32920	37952	
3671	0	32774	32843	37932	
3672	0	32876	32834	37916	
3673	0	32896	32806	37924	
3674	0	32860	32864	37919	
3675	0	32856	32908	37921	
3676	0	32876	32773	37924	
3677	0	32908	32789	37916	
3678	0	32903	32865	37941	
3679	0	32916	32884	37924	
3680	0	32897	32857	37909	
3681	0	32744	32797	37916	
3682	0	32777	32788	37895	
3683	0	32669	32824	37873	
3684	0	32564	32836	37866	
3685	0	32628	32856	37868	
3686	0	32580	32824	37888	
3687	0	32624	32783	37925	
3688	0	32736	32940	37912	
3689	0	32772	32832	37920	
3690	0	32776	32861	37940	
3691	0	32796	32885	37921	
3692	0	32856	32747	37929	
3693	0	32896	32909	37940	
3694	0	32892	32831	37908	
3695	0	32844	32976	37873	
3696	0	32860	32756	37872	
3697	0	32896	32762	37868	
3698	0	32968	32832	37856	
3699	0	32952	32804	37861	
3700	0	32912	32916	37848	
3701	0	32741	32828	37836	
3702	0	32732	32761	37836	
3703	0	32695	32812	37801	
3704	0	32664	32798	37820	
3705	0	32636	32772	37808	
3706	0	32586	32876	37832	
3707	0	32640	32815	37840	
3708	0	32702	32902	37838	
3709	0	32746	32846	37847	
3710	0	32784	32876	37869	
3711	0	32869	32863	37848	
3712	0	32833	32832	37828	
3713	0	32804	32870	37828	
3714	0	32836	32874	37824	
3715	0	32948	32856	37805	
3716	0	32886	32900	37822	
3717	0	32814	32774	37832	
3718	0	32864	32742	37847	
3719	0	32862	32836	37861	
3720	0	32858	32716	37849	
3721	0	32768	32812	37850	
3722	0	32708	32732	37841	
3723	0	32636	32825	37854	
3724	0	32648	32893	37854	
3725	0	32602	32820	37872	
3726	0	32558	32888	37869	
3727	0	32672	32861	37880	
3728	0	32681	32924	37877	
3729	0	32704	32867	37890	
3730	0	32824	32932	37884	
3731	0	32852	32824	37892	
3732	0	32812	32820	37908	
3733	0	32820	32805	37892	
3734	0	32892	32800	37900	
3735	0	32841	32905	37873	
3736	0	32861	32883	37876	
3737	0	32860	32806	37880	
3738	0	32940	32805	37864	
3739	0	32936	32818	37865	
3740	0	32884	32841	37885	
3741	0	32796	32705	37884	
3742	0	32744	32806	37885	
3743	0	32628	32808	37885	
3744	0	32636	32816	37888	
3745	0	32684	32816	37854	
3746	0	32644	32957	37870	
3747	0	32740	32840	37871	
3748	0	32748	32836	37876	
3749	0	32748	32940	37886	
3750	0	32812	32809	37889	
3751	0	32861	32775	37880	
3752	0	32832	32808	37869	
3753	0	32881	32806	37895	
3754	0	32860	32793	37888	
3755	0	32868	32760	37882	
3756	0	32834	32741	37844	
3757	0	32892	32822	37825	
3758	0	32917	32845	37844	
3759	0	32884	32860	37853	
3760	0	32852	32863	37831	
3761	0	32768	32860	37820	
3762	0	32680	32917	37836	
3763	0	32664	32884	37812	
3764	0	32692	32794	37808	
3765	0	32693	32800	37804	
3766	0	32644	32700	37840	
3767	0	32705	32793	37840	
3768	0	32724	32850	37829	
3769	0	32708	32836	37844	
3770	0	32788	32884	37868	
3771	0	32796	32928	37852	
3772	0	32848	32837	37844	
3773	0	32794	32852	37839	
3774	0	32868	32800	37846	
3775	0	32896	32785	37836	
3776	0	32964	32751	37837	
3777	0	32920	32736	37860	
3778	0	32929	32805	37856	
3779	0	32836	32852	37862	
3780	0	32893	32740	37861	
3781	0	32752	32791	37856	
3782	0	32741	32745	37861	
3783	0	32714	32823	37882	
3784	0	32646	32892	37902	
3785	0	32618	32876	37916	
3786	0	32636	32900	37909	
3787	0	32580	32840	37932	
3788	0	32764	32889	37944	
3789	0	32768	32964	37927	
3790	0	32796	32900	37910	
3791	0	32908	32888	37919	
3792	0	32852	32969	37904	
3793	0	32892	32780	37948	
3794	0	32836	32748	37936	
3795	0	32864	32753	37924	
3796	0	32929	32740	37912	
3797	0	32902	32745	37912	
3798	0	32906	32804	37916	
3799	0	32941	32719	37895	
3800	0	32828	32813	37892	
3801	0	32784	32766	37871	
3802	0	32676	32872	37877	
3803	0	32709	32832	37880	
3804	0	32620	32845	37900	
3805	0	32524	32884	37910	
3806	0	32622	32924	37910	
3807	0	32652	32918	37900	
3808	0	32741	32832	37924	
3809	0	32784	32872	37921	
3810	0	32724	32808	37934	
3811	0	32892	32836	37900	
3812	0	32920	32744	37895	
3813	0	32828	32757	37924	
3814	0	32860	32781	37914	
3815	0	32868	32841	37878	
3816	0	32977	32900	37871	
3817	0	32908	32893	37868	
3818	0	32892	32908	37880	
3819	0	32900	32857	37862	
3820	0	32772	32872	37853	
3821	0	32632	32805	37853	
3822	0	32753	32826	37862	
3823	0	32736	32876	37872	
3824	0	32640	32896	37881	
3825	0	32638	32921	37873	
3826	0	32636	32862	37857	
3827	0	32624	32873	37877	
3828	0	32676	32984	37890	
3829	0	32780	32816	37902	
3830	0	32780	32920	37893	
3831	0	32896	32887	37888	
3832	0	32892	32880	37884	
3833	0	32824	32839	37865	
3834	0	32864	32808	37876	
3835	0	32892	32768	37847	
3836	0	32861	32856	37850	
3837	0	32924	32820	37848	
3838	0	32872	32929	37828	
3839	0	32888	32781	37836	
3840	0	32801	32724	37830	
3841	0	32812	32693	37872	
3842	0	32708	32800	37872	
3843	0	32692	32845	37864	
3844	0	32652	32812	37876	
3845	0	32620	32896	37872	
3846	0	32684	32918	37864	
3847	0	32656	32906	37884	
3848	0	32684	32898	37860	
3849	0	32728	32893	37864	
3850	0	32832	32867	37870	
3851	0	32796	32908	37888	
3852	0	32852	32881	37895	
3853	0	32820	32864	37901	
3854	0	32885	32828	37878	
3855	0	32848	32797	37887	
3856	0	32892	32768	37892	
3857	0	32896	32833	37885	
3858	0	33019	32869	37889	
3859	0	32957	32872	37879	
3860	0	32789	32752	37887	
3861	0	32800	32844	37889	
3862	0	32742	32892	37885	
3863	0	32712	32846	37876	
3864	0	32628	32902	37860	
3865	0	32676	32916	37876	
3866	0	32628	32836	37895	
3867	0	32652	32872	37895	
3868	0	32712	32892	37909	
3869	0	32741	32862	37926	
3870	0	32836	32872	37917	
3871	0	32840	32841	37929	
3872	0	32832	32808	37929	
3873	0	32884	32836	37908	
3874	0	32936	32756	37895	
3875	0	32860	32818	37886	
3876	0	32880	32832	37902	
3877	0	32908	32732	37878	
3878	0	32916	32888	37884	
3879	0	32864	32837	37865	
3880	0	32900	32764	37857	
3881	0	32757	32800	37852	
3882	0	32780	32770	37830	
3883	0	32693	32775	37828	
3884	0	32608	32812	37820	
3885	0	32584	32792	37828	
3886	0	32640	32840	37838	
3887	0	32697	32928	37824	
3888	0	32701	32932	37837	
3889	0	32680	32868	37872	
3890	0	32750	32885	37876	
3891	0	32868	32908	37882	
3892	0	32800	32829	37900	
3893	0	32821	32852	37869	
3894	0	32864	32752	37860	
3895	0	32872	32909	37877	
3896	0	32900	32796	37868	
3897	0	32936	32844	37836	
3898	0	32917	32808	37801	
3899	0	32840	32704	37838	
3900	0	32849	32774	37847	
3901	0	32812	32900	37828	
3902	0	32789	32813	37804	
3903	0	32704	32861	37812	
3904	0	32606	32877	37832	
3905	0	32606	32800	37840	
3906	0	32740	32878	37852	
3907	0	32677	32836	37879	
3908	0	32668	32926	37885	
3909	0	32688	32933	37873	
3910	0	32770	32911	37844	
3911	0	32836	32884	37869	
3912	0	32897	32936	37868	
3913	0	32865	32882	37872	
3914	0	32952	32982	37868	
3915	0	32877	32830	37869	
3916	0	32876	32839	37856	
3917	0	32852	32840	37844	
3918	0	32889	32748	37832	
3919	0	32732	32862	37834	
3920	0	32805	32740	37828	
3921	0	32856	32754	37812	
3922	0	32737	32696	37796	
3923	0	32653	32784	37796	
3924	0	32642	32817	37800	
3925	0	32640	32751	37834	
3926	0	32684	32884	37832	
3927	0	32660	32728	37834	
3928	0	32656	32804	37848	
3929	0	32724	32960	37868	
3930	0	32736	32774	37888	
3931	0	32868	32884	37895	
3932	0	32823	32920	37900	
3933	0	32824	32878	37890	
3934	0	32890	32878	37900	
3935	0	32908	32868	37908	
3936	0	32872	32786	37916	
3937	0	32866	32792	37910	
3938	0	32882	32828	37916	
3939	0	32940	32794	37906	
3940	0	32828	32824	37910	
3941	0	32816	32798	37908	
3942	0	32748	32788	37911	
3943	0	32668	32897	37902	
3944	0	32644	32839	37913	
3945	0	32596	32772	37910	
3946	0	32644	32780	37937	
3947	0	32576	32822	37952	
3948	0	32757	32824	37956	
3949	0	32712	32846	37984	
3950	0	32780	32916	37972	
3951	0	32813	32861	37962	
3952	0	32880	32812	37946	
3953	0	32872	32784	37938	
3954	0	32946	32906	37933	
3955	0	32888	32785	37928	
3956	0	32840	32789	37924	
3957	0	32864	32796	37884	
3958	0	32928	32859	37872	
3959	0	32920	32805	37868	
3960	0	32876	32772	37833	
3961	0	32736	32749	37844	
3962	0	32740	32789	37827	
3963	0	32676	32896	37845	
3964	0	32624	32756	37852	
3965	0	32714	32871	37848	
3966	0	32593	32901	37844	
3967	0	32568	32820	37850	
3968	0	32700	32924	37876	
3969	0	32788	32917	37868	
3970	0	32785	32992	37876	
3971	0	32840	32896	37876	
3972	0	32876	32945	37865	
3973	0	32844	32764	37855	
3974	0	32804	32872	37824	
3975	0	32836	32748	37836	
3976	0	32902	32708	37824	
3977	0	32916	32852	37820	
3978	0	32972	32886	37836	
3979	0	32900	32781	37862	
3980	0	32858	32749	37844	
3981	0	32796	32766	37852	
3982	0	32732	32778	37862	
3983	0	32688	32912	37887	
3984	0	32684	32762	37880	
3985	0	32680	32837	37878	
3986	0	32636	32830	37880	
3987	0	32605	32821	37905	
3988	0	32696	32853	37921	
3989	0	32761	32957	37920	
3990	0	32796	32871	37928	
3991	0	32884	32900	37948	
3992	0	32840	32945	37953	
3993	0	32848	32940	37933	
3994	0	32929	32797	37912	
3995	0	32932	32820	37911	
3996	0	32908	32903	37909	
3997	0	32924	32756	37910	
3998	0	32958	32748	37913	
3999	0	32868	32786	37894	
4000	0	32916	32729	37888	
4001	0	32800	32812	37892	
4002	0	32692	32784	37892	
4003	0	32688	32790	37870	
4004	0	32600	32809	37879	
4005	0	32652	32858	37885	
4006	0	32714	32893	37888	
4007	0	32592	32761	37893	
4008	0	32672	32813	37892	
4009	0	32744	32892	37884	
4010	0	32833	32758	37876	
4011	0	32896	32855	37861	
4012	0	32820	32852	37864	
4013	0	32852	32876	37848	
4014	0	32888	32700	37837	
4015	0	32828	32796	37844	
4016	0	32876	32841	37828	
4017	0	32838	32741	37832	
4018	0	32880	32824	37858	
4019	0	32905	32836	37828	
4020	0	32822	32852	37828	
4021	0	32812	32796	37825	
4022	0	32767	32865	37804	
4023	0	32733	32832	37829	
4024	0	32703	32892	37836	
4025	0	32648	32836	37856	
4026	0	32616	32844	37831	
4027	0	32692	32960	37843	
4028	0	32730	32870	37860	
4029	0	32792	32820	37856	
4030	0	32829	32792	37850	
4031	0	32806	32860	37868	
4032	0	32820	32808	37861	
4033	0	32868	32812	37858	
4034	0	32874	32816	37865	
4035	0	32832	32844	37860	
4036	0	32892	32872	37848	
4037	0	32853	32792	37824	
4038	0	32837	32738	37842	
4039	0	32864	32751	37860	
4040	0	32888	32831	37834	
4041	0	32816	32754	37834	
4042	0	32704	32705	37810	
4043	0	32714	32797	37810	
4044	0	32656	32833	37829	
4045	0	32612	32829	37817	
4046	0	32660	32853	37832	
4047	0	32636	32960	37813	
4048	0	32728	32996	37820	
4049	0	32692	32892	37833	
4050	0	32732	32903	37852	
4051	0	32896	32827	37852	
4052	0	32816	32912	37857	
4053	0	32846	32916	37860	
4054	0	32880	32820	37868	
4055	0	32865	32908	37836	
4056	0	32818	32809	37852	
4057	0	32928	32834	37836	
4058	0	32905	32892	37852	
4059	0	32896	32842	37860	
4060	0	32852	32808	37831	
4061	0	32752	32677	37836	
4062	0	32680	32692	37817	
4063	0	32718	32779	37812	
4064	0	32667	32887	37820	
4065	0	32652	32968	37855	
4066	0	32690	32864	37840	
4067	0	32644	32860	37858	
4068	0	32728	33028	37860	
4069	0	32708	32880	37880	
4070	0	32756	32884	37864	
4071	0	32816	32888	37872	
4072	0	32840	32806	37882	
4073	0	32802	32783	37882	
4074	0	32905	32852	37872	
4075	0	32789	32872	37886	
4076	0	32860	32731	37881	
4077	0	32889	32708	37877	
4078	0	32964	32789	37878	
4079	0	32900	32789	37877	
4080	0	32906	32838	37872	
4081	0	32780	32846	37860	
4082	0	32768	32784	37861	
4083	0	32740	32768	37860	
4084	0	32635	32866	37880	
4085	0	32604	32897	37881	
4086	0	32584	32847	37894	
4087	0	32660	32804	37888	
4088	0	32696	32885	37888	
4089	0	32800	32948	37912	
4090	0	32768	32823	37904	
4091	0	32920	32801	37904	
4092	0	32804	32801	37911	
4093	0	32892	32812	37892	
4094	0	32926	32760	37902	
4095	0	32816	32686	37892	
4096	0	32860	32904	37895	
4097	0	32924	32800	37870	
4098	0	32848	32756	37900	
4099	0	32872	32777	37924	
4100	0	32869	32801	37920	
4101	0	32756	32841	37909	
4102	0	32768	32830	37923	
4103	0	32684	32780	37912	
4104	0	32598	32839	37920	
4105	0	32594	32812	37924	
4106	0	32632	32940	37921	
4107	0	32646	32868	37940	
4108	0	32656	32999	37943	
4109	0	32720	32801	37957	
4110	0	32792	32864	37968	
4111	0	32894	32826	37952	
4112	0	32800	32792	37938	
4113	0	32872	32900	37929	
4114	0	32864	32775	37932	
4115	0	32897	32804	37940	
4116	0	32872	32856	37940	
4117	0	32889	32917	37925	
4118	0	32900	32853	37923	
4119	0	32828	32918	37909	
4120	0	32962	32937	37892	
4121	0	32848	32846	37889	
4122	0	32768	32805	37888	
4123	0	32632	32796	37892	
4124	0	32604	32885	37880	
4125	0	32648	32800	37868	
4126	0	32681	32870	37864	
4127	0	32581	32785	37863	
4128	0	32630	32861	37857	
4129	0	32772	32852	37847	
4130	0	32828	32938	37844	
4131	0	32816	32780	37853	
4132	0	32858	32876	37852	
4133	0	32809	32804	37887	
4134	0	32830	32814	37885	
4135	0	32884	32798	37860	
4136	0	32864	32734	37872	
4137	0	32872	32628	37865	
4138	0	32860	32780	37836	
4139	0	32957	32680	37841	
4140	0	32893	32766	37829	
4141	0	32792	32808	37816	
4142	0	32756	32828	37824	
4143	0	32728	32921	37830	
4144	0	32648	32836	37804	
4145	0	32660	32829	37812	
4146	0	32700	32780	37833	
4147	0	32652	32862	37810	
4148	0	32677	32948	37813	
4149	0	32684	32804	37828	
4150	0	32756	32839	37838	
4151	0	32820	32869	37847	
4152	0	32888	32817	37812	
4153	0	32904	32839	37807	
4154	0	32896	32882	37799	
4155	0	32900	32840	37792	
4156	0	32876	32933	37792	
4157	0	32932	32773	37788	
4158	0	32868	32820	37788	
4159	0	32904	32792	37774	
4160	0	32872	32824	37798	
4161	0	32816	32879	37785	
4162	0	32788	32844	37772	
4163	0	32720	32773	37783	
4164	0	32604	32836	37808	
4165	0	32556	32833	37820	
4166	0	32656	32805	37839	
4167	0	32660	32790	37856	
4168	0	32696	32940	37848	
4169	0	32744	32885	37868	
4170	0	32780	32905	37874	
4171	0	32876	32808	37855	
4172	0	32796	32846	37856	
4173	0	32860	32868	37868	
4174	0	32861	32796	37860	
4175	0	32884	32737	37861	
4176	0	32884	32824	37864	
4177	0	32928	32720	37865	
4178	0	32900	32836	37878	
4179	0	32898	32954	37895	
4180	0	32837	32759	37889	
4181	0	32736	32816	37884	
4182	0	32732	32751	37863	
4183	0	32684	32856	37882	
4184	0	32728	32832	37864	
4185	0	32632	32908	37849	
4186	0	32676	32816	37857	
4187	0	32672	32904	37884	
4188	0	32708	32844	37889	
4189	0	32704	32884	37885	
4190	0	32748	32805	37880	
4191	0	32854	32854	37888	
4192	0	32920	32839	37906	
4193	0	32840	32774	37917	
4194	0	32792	32752	37908	
4195	0	32873	32784	37909	
4196	0	32844	32884	37893	
4197	0	32881	32889	37872	
4198	0	32873	32964	37860	
4199	0	32913	32838	37848	
4200	0	32836	32884	37852	
4201	0	32817	32838	37850	
4202	0	32712	32840	37836	
4203	0	32742	32744	37840	
4204	0	32676	32733	37862	
4205	0	32652	32849	37863	
4206	0	32701	32759	37856	
4207	0	32704	32869	37876	
4208	0	32684	32868	37892	
4209	0	32750	32881	37887	
4210	0	32768	32876	37905	
4211	0	32856	32848	37884	
4212	0	32832	32754	37889	
4213	0	32932	32876	37895	
4214	0	32789	32910	37908	
4215	0	32812	32808	37917	
4216	0	32892	32744	37911	
4217	0	32880	32818	37909	
4218	0	32840	32768	37912	
4219	0	32840	32836	37908	
4220	0	32892	32800	37903	
4221	0	32829	32836	37903	
4222	0	32720	32840	37906	
4223	0	32772	32775	37906	
4224	0	32646	32836	37900	
4225	0	32664	32888	37908	
4226	0	32668	32796	37910	
4227	0	32640	32926	37924	
4228	0	32672	32884	37924	
4229	0	32728	32865	37944	
4230	0	32792	32867	37956	
4231	0	32892	32900	37938	
4232	0	32908	32909	37937	
4233	0	32900	32870	37943	
4234	0	32842	32729	37936	
4235	0	32876	32836	37946	
4236	0	32880	32757	37932	
4237	0	32916	32848	37940	
4238	0	32928	32841	37932	
4239	0	32900	32909	37930	
4240	0	32856	32824	37924	
4241	0	32828	32765	37924	
4242	0	32820	32768	37912	
4243	0	32676	32775	37912	
4244	0	32620	32872	37925	
4245	0	32604	32772	37900	
4246	0	32660	32790	37920	
4247	0	32669	32796	37940	
4248	0	32732	32836	37948	
4249	0	32704	32877	37946	
4250	0	32752	32877	37964	
4251	0	32836	32884	37959	
4252	0	32801	32775	37944	
4253	0	32864	32801	37929	
4254	0	32876	32820	37942	
4255	0	32862	32823	37918	
4256	0	32876	32864	37914	
4257	0	32900	32868	37917	
4258	0	32869	32856	37888	
4259	0	32920	32852	37880	
4260	0	32916	32808	37880	
4261	0	32832	32782	37853	
4262	0	32768	32836	37841	
4263	0	32752	32704	37825	
4264	0	32596	32832	37807	
4265	0	32588	32764	37812	
4266	0	32704	32845	37848	
4267	0	32644	32782	37834	
4268	0	32700	32867	37856	
4269	0	32648	32984	37868	
4270	0	32738	32808	37861	
4271	0	32808	32912	37864	
4272	0	32852	32924	37868	
4273	0	32876	32841	37852	
4274	0	32895	32908	37853	
4275	0	32892	32812	37844	
4276	0	32804	32824	37848	
4277	0	32892	32772	37844	
4278	0	32948	32700	37834	
4279	0	32849	32866	37818	
4280	0	32868	32768	37792	
4281	0	32728	32836	37792	
4282	0	32680	32838	37782	
4283	0	32728	32873	37764	
4284	0	32660	32836	37786	
4285	0	32648	32849	37805	
4286	0	32800	32906	37783	
4287	0	32644	32784	37799	
4288	0	32784	32824	37796	
4289	0	32776	32812	37800	
4290	0	32684	32781	37820	
4291	0	32852	32916	37840	
4292	0	32816	32791	37848	
4293	0	32848	32900	37845	
4294	0	32860	32840	37829	
4295	0	32790	32807	37830	
4296	0	32868	32840	37836	
4297	0	33000	32856	37832	
4298	0	32952	32780	37825	
4299	0	32808	32876	37832	
4300	0	32868	32806	37834	
4301	0	32816	32797	37828	
4302	0	32710	32881	37830	
4303	0	32708	32785	37822	
4304	0	32698	32808	37814	
4305	0	32620	32867	37828	
4306	0	32677	32816	37856	
4307	0	32613	32862	37852	
4308	0	32732	32900	37872	
4309	0	32736	32839	37873	
4310	0	32745	32953	37894	
4311	0	32828	32854	37895	
4312	0	32820	32784	37908	
4313	0	32868	32892	37908	
4314	0	32848	32772	37892	
4315	0	32788	32865	37917	
4316	0	32932	32834	37916	
4317	0	32892	32805	37916	
4318	0	32964	32797	37887	
4319	0	32908	32757	37859	
4320	0	32860	32809	37849	
4321	0	32784	32782	37855	
4322	0	32782	32832	37852	
4323	0	32708	32804	37864	
4324	0	32696	32809	37860	
4325	0	32620	32796	37857	
4326	0	32645	32792	37831	
4327	0	32664	32885	37853	
4328	0	32640	32804	37836	
4329	0	32708	32904	37856	
4330	0	32712	32921	37845	
4331	0	32856	32775	37849	
4332	0	32844	32896	37860	
4333	0	32856	32888	37868	
4334	0	32885	32838	37862	
4335	0	32828	32836	37852	
4336	0	32880	32866	37833	
4337	0	32945	32895	37852	
4338	0	32880	32820	37847	
4339	0	32889	32756	37820	
4340	0	32876	32825	37829	
4341	0	32848	32812	37829	
4342	0	32756	32783	37824	
4343	0	32641	32782	37848	
4344	0	32696	32910	37842	
4345	0	32656	32863	37845	
4346	0	32653	32940	37860	
4347	0	32658	32873	37894	
4348	0	32660	32876	37916	
4349	0	32648	32827	37924	
4350	0	32726	32775	37924	
4351	0	32846	32808	37932	
4352	0	32836	32712	37961	
4353	0	32784	32811	37973	
4354	0	32840	32932	37978	
4355	0	32896	32849	37941	
4356	0	32808	32812	37936	
4357	0	32916	32808	37928	
4358	0	32920	32828	37921	
4359	0	32932	32876	37903	
4360	0	32900	32796	37904	
4361	0	32784	32748	37873	
4362	0	32808	32829	37872	
4363	0	32764	32793	37892	
4364	0	32664	32833	37892	
4365	0	32640	32772	37911	
4366	0	32653	32783	37904	
4367	0	32560	32773	37900	
4368	0	32756	32833	37924	
4369	0	32816	32814	37936	
4370	0	32772	32808	37944	
4371	0	32836	32794	37936	
4372	0	32788	32796	37908	
4373	0	32800	32820	37877	
4374	0	32848	32822	37865	
4375	0	32804	32786	37868	
4376	0	32892	32856	37860	
4377	0	32869	32820	37849	
4378	0	32928	32844	37869	
4379	0	32860	32828	37873	
4380	0	32793	32844	37854	
4381	0	32844	32872	37829	
4382	0	32755	32852	37818	
4383	0	32677	32893	37813	
4384	0	32658	32844	37799	
4385	0	32612	32928	37798	
4386	0	32708	32848	37805	
4387	0	32645	32917	37804	
4388	0	32696	33012	37820	
4389	0	32665	32860	37837	
4390	0	32752	32956	37824	
4391	0	32818	32864	37832	
4392	0	32836	32854	37840	
4393	0	32797	32769	37849	
4394	0	32780	32850	37844	
4395	0	32884	32886	37840	
4396	0	32933	32768	37836	
4397	0	32960	32801	37826	
4398	0	32906	32828	37808	
4399	0	32844	32788	37820	
4400	0	32908	32854	37821	
4401	0	32784	32732	37812	
4402	0	32776	32844	37808	
4403	0	32688	32801	37823	
4404	0	32669	32694	37833	
4405	0	32664	32773	37852	
4406	0	32704	32807	37848	
4407	0	32568	32792	37848	
4408	0	32732	32884	37852	
4409	0	32730	32912	37872	
4410	0	32766	32852	37908	
4411	0	32833	32960	37909	
4412	0	32868	32808	37916	
4413	0	32825	32833	37913	
4414	0	32804	32862	37936	
4415	0	32756	32808	37928	
4416	0	32824	32836	37924	
4417	0	32888	32761	37925	
4418	0	32996	32764	37924	
4419	0	32916	32832	37925	
4420	0	32885	32855	37925	
4421	0	32852	32812	37895	
4422	0	32740	32872	37904	
4423	0	32732	32808	37884	
4424	0	32656	32746	37895	
4425	0	32641	32836	37889	
4426	0	32652	32776	37893	
4427	0	32644	32809	37895	
4428	0	32736	32822	37908	
4429	0	32800	32838	37888	
4430	0	32776	32957	37920	
4431	0	32865	32848	37895	
4432	0	32818	32862	37880	
4433	0	32876	32868	37852	
4434	0	32880	32861	37853	
4435	0	32830	32878	37852	
4436	0	32812	32846	37857	
4437	0	32857	32775	37825	
4438	0	32884	32852	37808	
4439	0	32868	32821	37824	
4440	0	32906	32813	37828	
4441	0	32840	32853	37836	
4442	0	32740	32830	37852	
4443	0	32655	32864	37837	
4444	0	32710	32775	37832	
4445	0	32608	32913	37844	
4446	0	32660	32813	37846	
4447	0	32568	32798	37862	
4448	0	32736	32815	37869	
4449	0	32756	32841	37924	
4450	0	32756	32876	37952	
4451	0	32824	32769	37946	
4452	0	32804	32792	37948	
4453	0	32913	32745	37929	
4454	0	32936	32814	37916	
4455	0	32816	32902	37927	
4456	0	32888	32815	37937	
4457	0	32916	32836	37921	
4458	0	32940	32837	37906	
4459	0	32924	32858	37895	
4460	0	32869	32793	37912	
4461	0	32864	32864	37926	
4462	0	32772	32906	37904	
4463	0	32780	32814	37908	
4464	0	32616	32805	37910	
4465	0	32584	32878	37896	
4466	0	32664	32828	37900	
4467	0	32629	32828	37895	
4468	0	32637	32805	37904	
4469	0	32704	32950	37910	
4470	0	32700	32845	37901	
4471	0	32900	32876	37894	
4472	0	32812	32869	37908	
4473	0	32832	32836	37912	
4474	0	32864	32853	37884	
4475	0	32917	32853	37852	
4476	0	32820	32788	37852	
4477	0	32861	32824	37852	
4478	0	32880	32874	37838	
4479	0	32932	32820	37860	
4480	0	32788	32745	37848	
4481	0	32904	32796	37824	
4482	0	32816	32775	37800	
4483	0	32720	32836	37812	
4484	0	32680	32788	37820	
4485	0	32636	32834	37820	
4486	0	32704	32869	37828	
4487	0	32634	32968	37834	
4488	0	32676	32836	37824	
4489	0	32716	32887	37837	
4490	0	32762	32936	37840	
4491	0	32788	32896	37830	
4492	0	32885	32908	37828	
4493	0	32860	32870	37821	
4494	0	32820	32935	37798	
4495	0	32804	32885	37774	
4496	0	32880	32892	37768	
4497	0	32904	32856	37781	
4498	0	32896	32797	37789	
4499	0	32893	32829	37767	
4500	0	32886	32748	37752	
4501	0	32882	32775	37753	
4502	0	32833	32764	37772	
4503	0	32668	32841	37767	
4504	0	32632	32748	37785	
4505	0	32700	32828	37818	
4506	0	32644	32806	37852	
4507	0	32592	32864	37860	
4508	0	32660	32797	37880	
4509	0	32704	32892	37892	
4510	0	32721	32816	37918	
4511	0	32840	32900	37937	
4512	0	32833	32864	37941	
4513	0	32872	32848	37939	
4514	0	32892	32812	37936	
4515	0	32866	32830	37929	
4516	0	32834	32847	37927	
4517	0	32892	32864	37911	
4518	0	32902	32872	37920	
4519	0	32880	32869	37912	
4520	0	32884	32836	37919	
4521	0	32812	32796	37925	
4522	0	32808	32854	37924	
4523	0	32688	32761	37940	
4524	0	32648	32862	37981	
4525	0	32624	32756	37968	
4526	0	32636	32848	37965	
4527	0	32636	32868	38001	
4528	0	32692	32836	37992	
4529	0	32728	32882	38001	
4530	0	32800	32852	38012	
4531	0	32884	32862	38028	
4532	0	32856	32783	38008	
4533	0	32824	32770	38004	
4534	0	32856	32752	38005	
4535	0	32772	32788	37976	
4536	0	32910	32837	37957	
4537	0	32873	32846	37956	
4538	0	32866	32936	37943	
4539	0	32896	32796	37932	
4540	0	32900	32820	37920	
4541	0	32804	32833	37910	
4542	0	32812	32988	37921	
4543	0	32760	32862	37910	
4544	0	32648	32784	37902	
4545	0	32656	32844	37892	
4546	0	32672	32824	37890	
4547	0	32588	32878	37895	
4548	0	32664	32908	37890	
4549	0	32721	32800	37888	
4550	0	32652	32881	37895	
4551	0	32836	32768	37888	
4552	0	32864	32840	37889	
4553	0	32896	32864	37876	
4554	0	32854	32869	37860	
4555	0	32840	32911	37854	
4556	0	32888	32840	37853	
4557	0	32892	32813	37852	
4558	0	32864	32884	37832	
4559	0	32861	32862	37828	
4560	0	32912	32682	37824	
4561	0	32836	32760	37833	
4562	0	32840	32784	37832	
4563	0	32708	32820	37840	
4564	0	32608	32740	37840	
4565	0	32636	32844	37846	
4566	0	32644	32857	37838	
4567	0	32669	32840	37867	
4568	0	32680	32936	37881	
4569	0	32696	32924	37876	
4570	0	32756	32916	37889	
4571	0	32828	32820	37888	
4572	0	32785	32809	37886	
4573	0	32808	32892	37866	
4574	0	32916	32796	37860	
4575	0	32868	32841	37861	
4576	0	32876	32744	37865	
4577	0	32892	32760	37876	
4578	0	32921	32700	37858	
4579	0	32893	32785	37885	
4580	0	32849	32824	37881	
4581	0	32761	32820	37860	
4582	0	32791	32844	37862	
4583	0	32814	32853	37872	
4584	0	32708	32853	37880	
4585	0	32592	32866	37884	
4586	0	32596	32904	37892	
4587	0	32672	32804	37884	
4588	0	32682	32888	37882	
4589	0	32788	32775	37879	
4590	0	32758	32792	37892	
4591	0	32745	32902	37900	
4592	0	32792	32840	37893	
4593	0	32804	32880	37888	
4594	0	32852	32857	37892	
4595	0	32888	32926	37884	
4596	0	32928	32760	37882	
4597	0	32928	32828	37876	
4598	0	32868	32868	37871	
4599	0	32940	32776	37864	
4600	0	32856	32852	37852	
4601	0	32836	32852	37863	
4602	0	32804	32724	37860	
4603	0	32744	32688	37869	
4604	0	32654	32902	37864	
4605	0	32628	32838	37854	
4606	0	32692	32802	37870	
4607	0	32693	32820	37879	
4608	0	32701	32758	37872	
4609	0	32696	32868	37880	
4610	0	32758	32847	37880	
4611	0	32820	32897	37889	
4612	0	32850	32898	37894	
4613	0	32808	32782	37888	
4614	0	32828	33000	37872	
4615	0	32840	32861	37869	
4616	0	32886	32892	37866	
4617	0	32916	32804	37860	
4618	0	32916	32778	37848	
4619	0	32860	32766	37860	
4620	0	32792	32854	37870	
4621	0	32826	32816	37853	
4622	0	32801	32842	37812	
4623	0	32768	32824	37809	
4624	0	32656	32791	37809	
4625	0	32624	32880	37788	
4626	0	32676	32775	37800	
4627	0	32676	32834	37812	
4628	0	32765	32896	37812	
4629	0	32728	32785	37804	
4630	0	32812	32873	37826	
4631	0	32800	32837	37852	
4632	0	32728	32842	37839	
