# OpenSignals Text File Format
# {"00:07:80:3B:46:61": {"sensor": ["ECG"], "device name": "00:07:80:3B:46:61", "column": ["nSeq", "DI", "CH1"], "sync interval": 2, "time": "14:50:32.316", "comments": "", "device connection": "BTH00:07:80:3B:46:61", "channels": [1], "date": "2017-1-17", "mode": 0, "digital IO": [0, 1], "firmware version": 772, "device": "biosignalsplux", "position": 0, "sampling rate": 200, "label": ["CH1"], "resolution": [16], "special": [{}]}}
# EndOfHeader
0	0	32452	
1	0	32394	
2	0	32448	
3	0	32418	
4	0	32454	
5	0	32398	
6	0	32512	
7	0	32696	
8	0	32788	
9	0	32706	
10	0	32526	
11	0	32514	
12	0	32656	
13	0	32688	
14	0	32610	
15	0	32774	
16	0	32884	
17	0	32758	
18	0	32711	
19	0	32834	
20	0	32856	
21	0	33112	
22	0	33240	
23	0	33408	
24	0	33664	
25	0	33746	
26	0	33684	
27	0	33814	
28	0	33904	
29	0	33894	
30	0	33924	
31	0	34030	
32	0	33997	
33	0	33776	
34	0	33496	
35	0	33200	
36	0	33010	
37	0	32764	
38	0	32655	
39	0	32764	
40	0	32809	
41	0	32607	
42	0	32441	
43	0	32424	
44	0	32469	
45	0	32470	
46	0	32338	
47	0	32384	
48	0	32498	
49	0	32478	
50	0	32546	
51	0	32538	
52	0	32534	
53	0	32480	
54	0	32316	
55	0	32409	
56	0	32550	
57	0	32568	
58	0	32488	
59	0	32600	
60	0	32698	
61	0	32624	
62	0	32468	
63	0	32623	
64	0	32730	
65	0	32665	
66	0	32482	
67	0	32507	
68	0	32448	
69	0	32406	
70	0	32408	
71	0	32512	
72	0	32568	
73	0	32497	
74	0	32515	
75	0	32633	
76	0	32588	
77	0	32476	
78	0	32484	
79	0	32522	
80	0	32491	
81	0	32492	
82	0	32523	
83	0	32620	
84	0	32748	
85	0	32775	
86	0	32728	
87	0	32775	
88	0	32834	
89	0	32800	
90	0	32746	
91	0	32876	
92	0	32996	
93	0	32986	
94	0	32892	
95	0	32866	
96	0	32838	
97	0	32684	
98	0	32484	
99	0	32470	
100	0	32426	
101	0	32460	
102	0	32394	
103	0	32582	
104	0	32845	
105	0	32818	
106	0	32652	
107	0	32768	
108	0	32874	
109	0	32868	
110	0	32719	
111	0	32650	
112	0	32677	
113	0	32714	
114	0	32612	
115	0	32626	
116	0	32748	
117	0	32804	
118	0	32790	
119	0	32829	
120	0	32894	
121	0	32798	
122	0	32693	
123	0	32610	
124	0	32616	
125	0	32568	
126	0	32460	
127	0	32522	
128	0	32700	
129	0	32647	
130	0	32556	
131	0	32666	
132	0	32696	
133	0	32768	
134	0	32724	
135	0	32770	
136	0	32896	
137	0	32850	
138	0	32632	
139	0	32725	
140	0	32903	
141	0	33028	
142	0	32908	
143	0	32752	
144	0	32348	
145	0	31526	
146	0	30792	
147	0	31249	
148	0	33488	
149	0	37126	
150	0	40333	
151	0	42694	
152	0	41728	
153	0	38428	
154	0	34712	
155	0	33320	
156	0	32444	
157	0	32096	
158	0	31928	
159	0	31938	
160	0	31948	
161	0	31816	
162	0	31746	
163	0	31824	
164	0	31849	
165	0	31916	
166	0	31912	
167	0	31957	
168	0	32100	
169	0	32058	
170	0	32054	
171	0	32088	
172	0	32135	
173	0	32196	
174	0	32164	
175	0	32228	
176	0	32290	
177	0	32225	
178	0	32218	
179	0	32258	
180	0	32276	
181	0	32242	
182	0	32158	
183	0	32180	
184	0	32220	
185	0	32261	
186	0	32206	
187	0	32215	
188	0	32357	
189	0	32345	
190	0	32256	
191	0	32330	
192	0	32448	
193	0	32630	
194	0	32680	
195	0	32694	
196	0	32836	
197	0	32895	
198	0	32944	
199	0	33128	
200	0	33272	
201	0	33304	
202	0	33326	
203	0	33472	
204	0	33566	
205	0	33415	
206	0	33188	
207	0	33054	
208	0	32996	
209	0	32909	
210	0	32854	
211	0	32839	
212	0	32686	
213	0	32596	
214	0	32536	
215	0	32556	
216	0	32661	
217	0	32698	
218	0	32605	
219	0	32696	
220	0	32770	
221	0	32713	
222	0	32556	
223	0	32688	
224	0	32713	
225	0	32579	
226	0	32456	
227	0	32556	
228	0	32766	
229	0	32864	
230	0	32760	
231	0	32684	
232	0	32809	
233	0	32816	
234	0	32736	
235	0	32748	
236	0	32840	
237	0	32927	
238	0	32920	
239	0	32908	
240	0	32989	
241	0	32985	
242	0	32897	
243	0	32946	
244	0	33008	
245	0	32972	
246	0	32912	
247	0	32960	
248	0	32996	
249	0	33060	
250	0	33008	
251	0	32940	
252	0	33080	
253	0	33130	
254	0	33094	
255	0	33136	
256	0	33193	
257	0	33257	
258	0	33257	
259	0	33261	
260	0	33312	
261	0	33273	
262	0	33162	
263	0	33164	
264	0	33128	
265	0	33136	
266	0	33172	
267	0	33244	
268	0	33208	
269	0	33159	
270	0	33095	
271	0	33002	
272	0	32977	
273	0	33082	
274	0	33056	
275	0	33073	
276	0	33124	
277	0	33100	
278	0	33046	
279	0	33080	
280	0	33154	
281	0	33090	
282	0	33012	
283	0	33000	
284	0	33002	
285	0	32880	
286	0	32586	
287	0	32626	
288	0	32640	
289	0	32594	
290	0	32588	
291	0	32647	
292	0	32748	
293	0	32774	
294	0	32736	
295	0	32796	
296	0	32801	
297	0	32829	
298	0	32968	
299	0	33080	
300	0	33162	
301	0	33136	
302	0	33092	
303	0	33084	
304	0	33108	
305	0	32996	
306	0	32900	
307	0	32828	
308	0	32892	
309	0	32952	
310	0	32933	
311	0	32882	
312	0	32930	
313	0	32888	
314	0	32768	
315	0	32747	
316	0	32774	
317	0	32741	
318	0	32572	
319	0	32528	
320	0	32648	
321	0	32597	
322	0	32490	
323	0	32564	
324	0	32644	
325	0	32650	
326	0	32646	
327	0	32710	
328	0	32656	
329	0	32566	
330	0	32424	
331	0	32296	
332	0	32334	
333	0	32316	
334	0	32296	
335	0	32329	
336	0	32452	
337	0	32516	
338	0	32464	
339	0	32430	
340	0	32426	
341	0	32356	
342	0	32257	
343	0	32396	
344	0	32567	
345	0	32459	
346	0	32316	
347	0	32242	
348	0	32362	
349	0	32306	
350	0	32232	
351	0	32344	
352	0	32442	
353	0	32371	
354	0	32312	
355	0	32349	
356	0	32480	
357	0	32484	
358	0	32440	
359	0	32492	
360	0	32618	
361	0	32546	
362	0	32456	
363	0	32469	
364	0	32498	
365	0	32436	
366	0	32428	
367	0	32340	
368	0	32386	
369	0	32262	
370	0	32084	
371	0	31958	
372	0	32038	
373	0	32058	
374	0	31895	
375	0	31872	
376	0	32000	
377	0	31826	
378	0	31329	
379	0	30676	
380	0	30254	
381	0	30990	
382	0	33570	
383	0	37344	
384	0	40628	
385	0	42658	
386	0	40924	
387	0	37097	
388	0	33586	
389	0	32326	
390	0	31602	
391	0	31446	
392	0	31348	
393	0	31297	
394	0	31278	
395	0	31304	
396	0	31344	
397	0	31356	
398	0	31268	
399	0	31196	
400	0	31320	
401	0	31556	
402	0	31492	
403	0	31488	
404	0	31616	
405	0	31700	
406	0	31705	
407	0	31692	
408	0	31876	
409	0	31972	
410	0	31992	
411	0	31994	
412	0	32096	
413	0	32000	
414	0	31976	
415	0	31964	
416	0	32028	
417	0	32112	
418	0	32032	
419	0	32004	
420	0	32126	
421	0	32218	
422	0	32192	
423	0	32240	
424	0	32330	
425	0	32368	
426	0	32340	
427	0	32344	
428	0	32502	
429	0	32600	
430	0	32647	
431	0	32820	
432	0	32946	
433	0	32971	
434	0	32907	
435	0	33023	
436	0	33050	
437	0	33055	
438	0	32976	
439	0	32921	
440	0	32964	
441	0	32848	
442	0	32650	
443	0	32447	
444	0	32440	
445	0	32382	
446	0	32233	
447	0	32138	
448	0	32176	
449	0	32160	
450	0	32123	
451	0	32282	
452	0	32462	
453	0	32456	
454	0	32356	
455	0	32399	
456	0	32564	
457	0	32518	
458	0	32472	
459	0	32536	
460	0	32580	
461	0	32549	
462	0	32378	
463	0	32250	
464	0	32278	
465	0	32263	
466	0	32276	
467	0	32306	
468	0	32400	
469	0	32360	
470	0	32390	
471	0	32472	
472	0	32622	
473	0	32624	
474	0	32504	
475	0	32512	
476	0	32567	
477	0	32540	
478	0	32404	
479	0	32356	
480	0	32452	
481	0	32444	
482	0	32384	
483	0	32340	
484	0	32438	
485	0	32452	
486	0	32381	
487	0	32354	
488	0	32450	
489	0	32432	
490	0	32485	
491	0	32553	
492	0	32768	
493	0	32720	
494	0	32561	
495	0	32494	
496	0	32600	
497	0	32600	
498	0	32600	
499	0	32640	
500	0	32784	
501	0	32850	
502	0	32925	
503	0	32994	
504	0	33158	
505	0	33140	
506	0	33108	
507	0	33048	
508	0	33156	
509	0	33254	
510	0	33184	
511	0	33096	
512	0	33134	
513	0	33124	
514	0	33128	
515	0	33078	
516	0	33187	
517	0	33132	
518	0	33055	
519	0	33007	
520	0	33018	
521	0	32986	
522	0	32876	
523	0	32932	
524	0	33027	
525	0	32929	
526	0	32844	
527	0	32775	
528	0	32928	
529	0	32895	
530	0	32810	
531	0	32754	
532	0	32746	
533	0	32736	
534	0	32610	
535	0	32544	
536	0	32652	
537	0	32656	
538	0	32546	
539	0	32472	
540	0	32592	
541	0	32577	
542	0	32450	
543	0	32432	
544	0	32492	
545	0	32394	
546	0	32274	
547	0	32211	
548	0	32352	
549	0	32390	
550	0	32366	
551	0	32440	
552	0	32640	
553	0	32652	
554	0	32612	
555	0	32572	
556	0	32646	
557	0	32584	
558	0	32666	
559	0	32680	
560	0	32774	
561	0	32768	
562	0	32647	
563	0	32582	
564	0	32609	
565	0	32494	
566	0	32380	
567	0	32393	
568	0	32524	
569	0	32548	
570	0	32474	
571	0	32548	
572	0	32744	
573	0	32770	
574	0	32720	
575	0	32732	
576	0	32892	
577	0	32925	
578	0	32805	
579	0	32712	
580	0	32832	
581	0	32768	
582	0	32680	
583	0	32598	
584	0	32826	
585	0	32868	
586	0	32848	
587	0	32706	
588	0	32640	
589	0	32540	
590	0	32460	
591	0	32380	
592	0	32396	
593	0	32304	
594	0	32200	
595	0	31992	
596	0	31687	
597	0	31103	
598	0	30210	
599	0	29924	
600	0	31321	
601	0	34488	
602	0	38048	
603	0	41084	
604	0	41992	
605	0	39046	
606	0	34776	
607	0	32727	
608	0	31864	
609	0	31364	
610	0	31099	
611	0	30941	
612	0	30928	
613	0	30964	
614	0	30986	
615	0	31024	
616	0	31156	
617	0	31222	
618	0	31257	
619	0	31329	
620	0	31482	
621	0	31524	
622	0	31554	
623	0	31612	
624	0	31682	
625	0	31674	
626	0	31648	
627	0	31776	
628	0	32020	
629	0	32108	
630	0	32116	
631	0	32070	
632	0	32162	
633	0	32184	
634	0	32127	
635	0	32032	
636	0	32168	
637	0	32244	
638	0	32325	
639	0	32348	
640	0	32486	
641	0	32536	
642	0	32600	
643	0	32752	
644	0	33045	
645	0	33024	
646	0	33012	
647	0	33066	
648	0	33254	
649	0	33287	
650	0	33260	
651	0	33287	
652	0	33430	
653	0	33380	
654	0	33345	
655	0	33369	
656	0	33580	
657	0	33592	
658	0	33472	
659	0	33282	
660	0	33284	
661	0	33212	
662	0	33180	
663	0	33106	
664	0	33084	
665	0	32997	
666	0	32820	
667	0	32760	
668	0	32836	
669	0	32750	
670	0	32593	
671	0	32549	
672	0	32724	
673	0	32775	
674	0	32784	
675	0	32788	
676	0	32932	
677	0	33056	
678	0	33008	
679	0	32988	
680	0	33093	
681	0	33074	
682	0	32960	
683	0	32732	
684	0	32826	
685	0	32824	
686	0	32775	
687	0	32712	
688	0	32748	
689	0	32850	
690	0	32772	
691	0	32746	
692	0	32952	
693	0	33052	
694	0	32952	
695	0	32872	
696	0	33016	
697	0	33021	
698	0	32988	
699	0	32922	
700	0	32968	
701	0	32928	
702	0	32850	
703	0	32861	
704	0	33044	
705	0	33034	
706	0	32880	
707	0	32882	
708	0	33117	
709	0	33189	
710	0	33104	
711	0	33005	
712	0	33152	
713	0	33136	
714	0	33091	
715	0	33076	
716	0	33106	
717	0	33148	
718	0	33150	
719	0	33193	
720	0	33248	
721	0	33212	
722	0	33171	
723	0	33076	
724	0	33248	
725	0	33257	
726	0	33200	
727	0	33146	
728	0	33236	
729	0	33208	
730	0	33117	
731	0	33012	
732	0	33125	
733	0	33159	
734	0	33143	
735	0	33126	
736	0	33158	
737	0	33049	
738	0	32924	
739	0	32894	
740	0	32916	
741	0	32770	
742	0	32775	
743	0	32748	
744	0	32838	
745	0	32860	
746	0	32894	
747	0	32772	
748	0	32914	
749	0	32910	
750	0	32834	
751	0	32731	
752	0	32786	
753	0	32764	
754	0	32650	
755	0	32577	
756	0	32637	
757	0	32628	
758	0	32664	
759	0	32680	
760	0	32728	
761	0	32692	
762	0	32587	
763	0	32528	
764	0	32642	
765	0	32634	
766	0	32536	
767	0	32446	
768	0	32640	
769	0	32666	
770	0	32604	
771	0	32652	
772	0	32792	
773	0	32796	
774	0	32728	
775	0	32658	
776	0	32728	
777	0	32810	
778	0	32750	
779	0	32668	
780	0	32816	
781	0	32808	
782	0	32714	
783	0	32638	
784	0	32724	
785	0	32820	
786	0	32828	
787	0	32822	
788	0	32869	
789	0	32820	
790	0	32792	
791	0	32698	
792	0	32900	
793	0	32848	
794	0	32752	
795	0	32674	
796	0	32687	
797	0	32744	
798	0	32642	
799	0	32530	
800	0	32588	
801	0	32619	
802	0	32612	
803	0	32546	
804	0	32710	
805	0	32694	
806	0	32645	
807	0	32633	
808	0	32838	
809	0	32900	
810	0	32903	
811	0	32871	
812	0	32692	
813	0	32098	
814	0	31429	
815	0	30820	
816	0	31498	
817	0	33904	
818	0	37608	
819	0	40832	
820	0	43076	
821	0	41222	
822	0	37102	
823	0	33762	
824	0	32748	
825	0	32144	
826	0	31860	
827	0	31684	
828	0	31702	
829	0	31762	
830	0	31677	
831	0	31629	
832	0	31750	
833	0	31645	
834	0	31460	
835	0	31451	
836	0	31628	
837	0	31646	
838	0	31642	
839	0	31628	
840	0	31788	
841	0	31730	
842	0	31709	
843	0	31792	
844	0	31936	
845	0	31964	
846	0	31925	
847	0	31991	
848	0	32101	
849	0	32076	
850	0	32152	
851	0	32178	
852	0	32260	
853	0	32288	
854	0	32288	
855	0	32185	
856	0	32416	
857	0	32462	
858	0	32457	
859	0	32390	
860	0	32616	
861	0	32714	
862	0	32772	
863	0	32824	
864	0	32960	
865	0	33036	
866	0	33112	
867	0	33269	
868	0	33548	
869	0	33598	
870	0	33513	
871	0	33438	
872	0	33498	
873	0	33334	
874	0	33240	
875	0	33064	
876	0	33078	
877	0	32947	
878	0	32696	
879	0	32410	
880	0	32400	
881	0	32249	
882	0	32162	
883	0	32187	
884	0	32286	
885	0	32298	
886	0	32322	
887	0	32212	
888	0	32400	
889	0	32496	
890	0	32394	
891	0	32358	
892	0	32602	
893	0	32584	
894	0	32376	
895	0	32218	
896	0	32306	
897	0	32420	
898	0	32460	
899	0	32352	
900	0	32468	
901	0	32363	
902	0	32177	
903	0	32134	
904	0	32243	
905	0	32232	
906	0	32212	
907	0	32200	
908	0	32434	
909	0	32416	
910	0	32324	
911	0	32220	
912	0	32344	
913	0	32500	
914	0	32524	
915	0	32516	
916	0	32586	
917	0	32540	
918	0	32462	
919	0	32421	
920	0	32508	
921	0	32480	
922	0	32468	
923	0	32390	
924	0	32458	
925	0	32548	
926	0	32568	
927	0	32498	
928	0	32532	
929	0	32380	
930	0	32308	
931	0	32344	
932	0	32530	
933	0	32569	
934	0	32509	
935	0	32372	
936	0	32466	
937	0	32553	
938	0	32615	
939	0	32548	
940	0	32592	
941	0	32515	
942	0	32485	
943	0	32518	
944	0	32580	
945	0	32533	
946	0	32509	
947	0	32366	
948	0	32510	
949	0	32581	
950	0	32516	
951	0	32516	
952	0	32640	
953	0	32567	
954	0	32532	
955	0	32484	
956	0	32544	
957	0	32536	
958	0	32580	
959	0	32552	
960	0	32612	
961	0	32626	
962	0	32580	
963	0	32536	
964	0	32600	
965	0	32566	
966	0	32625	
967	0	32588	
968	0	32662	
969	0	32592	
970	0	32570	
971	0	32536	
972	0	32634	
973	0	32628	
974	0	32541	
975	0	32522	
976	0	32672	
977	0	32626	
978	0	32624	
979	0	32537	
980	0	32610	
981	0	32636	
982	0	32618	
983	0	32528	
984	0	32800	
985	0	32944	
986	0	32840	
987	0	32848	
988	0	33049	
989	0	32964	
990	0	32925	
991	0	32914	
992	0	33060	
993	0	33080	
994	0	32992	
995	0	32884	
996	0	32950	
997	0	33002	
998	0	32989	
999	0	32946	
1000	0	33010	
1001	0	32992	
1002	0	32962	
1003	0	32864	
1004	0	32978	
1005	0	33033	
1006	0	32964	
1007	0	32809	
1008	0	32928	
1009	0	32972	
1010	0	32930	
1011	0	32861	
1012	0	32896	
1013	0	32843	
1014	0	32714	
1015	0	32616	
1016	0	32632	
1017	0	32642	
1018	0	32696	
1019	0	32664	
1020	0	32851	
1021	0	32801	
1022	0	32348	
1023	0	31648	
1024	0	31008	
1025	0	30760	
1026	0	31948	
1027	0	34946	
1028	0	38912	
1029	0	41888	
1030	0	42887	
1031	0	39994	
1032	0	35526	
1033	0	33376	
1034	0	32609	
1035	0	32326	
1036	0	32221	
1037	0	32051	
1038	0	32008	
1039	0	31928	
1040	0	31950	
1041	0	31925	
1042	0	32031	
1043	0	31960	
1044	0	32108	
1045	0	32093	
1046	0	32064	
1047	0	32010	
1048	0	32072	
1049	0	32011	
1050	0	31969	
1051	0	31869	
1052	0	32008	
1053	0	32129	
1054	0	32204	
1055	0	32212	
1056	0	32204	
1057	0	32240	
1058	0	32320	
1059	0	32347	
1060	0	32415	
1061	0	32328	
1062	0	32300	
1063	0	32327	
1064	0	32509	
1065	0	32550	
1066	0	32553	
1067	0	32568	
1068	0	32636	
1069	0	32720	
1070	0	32809	
1071	0	32832	
1072	0	33025	
1073	0	33122	
1074	0	33287	
1075	0	33328	
1076	0	33468	
1077	0	33556	
1078	0	33652	
1079	0	33656	
1080	0	33780	
1081	0	33678	
1082	0	33586	
1083	0	33604	
1084	0	33618	
1085	0	33482	
1086	0	33287	
1087	0	33132	
1088	0	33128	
1089	0	32992	
1090	0	32804	
1091	0	32598	
1092	0	32610	
1093	0	32684	
1094	0	32616	
1095	0	32518	
1096	0	32636	
1097	0	32626	
1098	0	32716	
1099	0	32648	
1100	0	32714	
1101	0	32704	
1102	0	32664	
1103	0	32546	
1104	0	32656	
1105	0	32640	
1106	0	32616	
1107	0	32596	
1108	0	32712	
1109	0	32676	
1110	0	32728	
1111	0	32800	
1112	0	33002	
1113	0	32996	
1114	0	32852	
1115	0	32794	
1116	0	32832	
1117	0	32866	
1118	0	32903	
1119	0	32984	
1120	0	33134	
1121	0	33176	
1122	0	33164	
1123	0	33095	
1124	0	33224	
1125	0	33227	
1126	0	33185	
1127	0	33048	
1128	0	33104	
1129	0	33112	
1130	0	33024	
1131	0	32980	
1132	0	33060	
1133	0	33002	
1134	0	33035	
1135	0	33058	
1136	0	33232	
1137	0	33196	
1138	0	33236	
1139	0	33107	
1140	0	33159	
1141	0	33234	
1142	0	33208	
1143	0	33110	
1144	0	33196	
1145	0	33274	
1146	0	33204	
1147	0	33058	
1148	0	33190	
1149	0	33196	
1150	0	33080	
1151	0	33044	
1152	0	33159	
1153	0	33104	
1154	0	33104	
1155	0	33110	
1156	0	33216	
1157	0	33200	
1158	0	33184	
1159	0	33040	
1160	0	33014	
1161	0	33082	
1162	0	33004	
1163	0	32893	
1164	0	32910	
1165	0	32852	
1166	0	32854	
1167	0	32848	
1168	0	33012	
1169	0	32984	
1170	0	33040	
1171	0	33057	
1172	0	33170	
1173	0	33040	
1174	0	32976	
1175	0	32844	
1176	0	33014	
1177	0	33044	
1178	0	33085	
1179	0	32940	
1180	0	32988	
1181	0	33000	
1182	0	33026	
1183	0	32940	
1184	0	33024	
1185	0	32995	
1186	0	32884	
1187	0	32765	
1188	0	32933	
1189	0	33058	
1190	0	33120	
1191	0	33077	
1192	0	33092	
1193	0	33048	
1194	0	33064	
1195	0	32984	
1196	0	33088	
1197	0	33124	
1198	0	33112	
1199	0	33016	
1200	0	33102	
1201	0	33005	
1202	0	32907	
1203	0	32911	
1204	0	33052	
1205	0	33040	
1206	0	32976	
1207	0	32839	
1208	0	32928	
1209	0	32930	
1210	0	32852	
1211	0	32872	
1212	0	32958	
1213	0	32966	
1214	0	32945	
1215	0	32798	
1216	0	32808	
1217	0	32785	
1218	0	32804	
1219	0	32732	
1220	0	32840	
1221	0	32788	
1222	0	32628	
1223	0	32613	
1224	0	32706	
1225	0	32775	
1226	0	32775	
1227	0	32695	
1228	0	32548	
1229	0	32038	
1230	0	31273	
1231	0	30704	
1232	0	31595	
1233	0	34186	
1234	0	38158	
1235	0	41370	
1236	0	43404	
1237	0	41560	
1238	0	37208	
1239	0	33855	
1240	0	32918	
1241	0	32288	
1242	0	31996	
1243	0	31764	
1244	0	31830	
1245	0	31754	
1246	0	31760	
1247	0	31586	
1248	0	31690	
1249	0	31664	
1250	0	31602	
1251	0	31624	
1252	0	31720	
1253	0	31748	
1254	0	31696	
1255	0	31649	
1256	0	31790	
1257	0	31933	
1258	0	32006	
1259	0	31896	
1260	0	31974	
1261	0	31980	
1262	0	31943	
1263	0	31906	
1264	0	32074	
1265	0	31978	
1266	0	31956	
1267	0	31916	
1268	0	32092	
1269	0	32128	
1270	0	32068	
1271	0	32052	
1272	0	32144	
1273	0	32186	
1274	0	32141	
1275	0	32084	
1276	0	32256	
1277	0	32323	
1278	0	32340	
1279	0	32429	
1280	0	32722	
1281	0	32776	
1282	0	32850	
1283	0	32844	
1284	0	32981	
1285	0	33144	
1286	0	33230	
1287	0	33248	
1288	0	33424	
1289	0	33461	
1290	0	33381	
1291	0	33170	
1292	0	33116	
1293	0	33000	
1294	0	32796	
1295	0	32600	
1296	0	32616	
1297	0	32523	
1298	0	32386	
1299	0	32259	
1300	0	32360	
1301	0	32314	
1302	0	32368	
1303	0	32418	
1304	0	32505	
1305	0	32514	
1306	0	32494	
1307	0	32418	
1308	0	32624	
1309	0	32714	
1310	0	32604	
1311	0	32444	
1312	0	32612	
1313	0	32592	
1314	0	32482	
1315	0	32352	
1316	0	32484	
1317	0	32538	
1318	0	32464	
1319	0	32428	
1320	0	32586	
1321	0	32632	
1322	0	32556	
1323	0	32440	
1324	0	32583	
1325	0	32612	
1326	0	32587	
1327	0	32494	
1328	0	32610	
1329	0	32504	
1330	0	32422	
1331	0	32408	
1332	0	32477	
1333	0	32438	
1334	0	32354	
1335	0	32394	
1336	0	32544	
1337	0	32534	
1338	0	32454	
1339	0	32312	
1340	0	32558	
1341	0	32572	
1342	0	32398	
1343	0	32332	
1344	0	32521	
1345	0	32532	
1346	0	32574	
1347	0	32621	
1348	0	32730	
1349	0	32635	
1350	0	32578	
1351	0	32492	
1352	0	32667	
1353	0	32615	
1354	0	32600	
1355	0	32535	
1356	0	32644	
1357	0	32761	
1358	0	32791	
1359	0	32684	
1360	0	32757	
1361	0	32829	
1362	0	32825	
1363	0	32726	
1364	0	32741	
1365	0	32686	
1366	0	32672	
1367	0	32634	
1368	0	32708	
1369	0	32658	
1370	0	32644	
1371	0	32620	
1372	0	32742	
1373	0	32712	
1374	0	32680	
1375	0	32510	
1376	0	32504	
1377	0	32500	
1378	0	32484	
1379	0	32392	
1380	0	32418	
1381	0	32391	
1382	0	32426	
1383	0	32352	
1384	0	32500	
1385	0	32582	
1386	0	32565	
1387	0	32457	
1388	0	32546	
1389	0	32554	
1390	0	32611	
1391	0	32578	
1392	0	32720	
1393	0	32688	
1394	0	32493	
1395	0	32430	
1396	0	32564	
1397	0	32646	
1398	0	32649	
1399	0	32616	
1400	0	32690	
1401	0	32690	
1402	0	32664	
1403	0	32626	
1404	0	32772	
1405	0	32775	
1406	0	32772	
1407	0	32600	
1408	0	32738	
1409	0	32676	
1410	0	32608	
1411	0	32516	
1412	0	32626	
1413	0	32716	
1414	0	32690	
1415	0	32598	
1416	0	32672	
1417	0	32676	
1418	0	32620	
1419	0	32520	
1420	0	32592	
1421	0	32596	
1422	0	32564	
1423	0	32188	
1424	0	31740	
1425	0	30980	
1426	0	30608	
1427	0	31720	
1428	0	34900	
1429	0	38697	
1430	0	41784	
1431	0	42918	
1432	0	40397	
1433	0	36128	
1434	0	33674	
1435	0	32600	
1436	0	32090	
1437	0	31874	
1438	0	31720	
1439	0	31520	
1440	0	31632	
1441	0	31606	
1442	0	31554	
1443	0	31520	
1444	0	31660	
1445	0	31765	
1446	0	31802	
1447	0	31751	
1448	0	31926	
1449	0	31885	
1450	0	31805	
1451	0	31700	
1452	0	31812	
1453	0	31904	
1454	0	31940	
1455	0	31814	
1456	0	31892	
1457	0	31838	
1458	0	31881	
1459	0	31894	
1460	0	31970	
1461	0	31942	
1462	0	31912	
1463	0	31848	
1464	0	31977	
1465	0	32072	
1466	0	32162	
1467	0	32120	
1468	0	32344	
1469	0	32410	
1470	0	32402	
1471	0	32263	
1472	0	32406	
1473	0	32519	
1474	0	32640	
1475	0	32712	
1476	0	32892	
1477	0	33018	
1478	0	33044	
1479	0	33020	
1480	0	33274	
1481	0	33458	
1482	0	33505	
1483	0	33576	
1484	0	33684	
1485	0	33584	
1486	0	33420	
1487	0	33148	
1488	0	33016	
1489	0	32832	
1490	0	32685	
1491	0	32540	
1492	0	32578	
1493	0	32572	
1494	0	32474	
1495	0	32440	
1496	0	32551	
1497	0	32508	
1498	0	32368	
1499	0	32284	
1500	0	32440	
1501	0	32526	
1502	0	32530	
1503	0	32404	
1504	0	32504	
1505	0	32508	
1506	0	32391	
1507	0	32288	
1508	0	32356	
1509	0	32388	
1510	0	32258	
1511	0	32195	
1512	0	32304	
1513	0	32292	
1514	0	32250	
1515	0	32164	
1516	0	32306	
1517	0	32400	
1518	0	32436	
1519	0	32389	
1520	0	32505	
1521	0	32491	
1522	0	32502	
1523	0	32464	
1524	0	32564	
1525	0	32586	
1526	0	32554	
1527	0	32461	
1528	0	32476	
1529	0	32432	
1530	0	32414	
1531	0	32402	
1532	0	32528	
1533	0	32589	
1534	0	32519	
1535	0	32512	
1536	0	32622	
1537	0	32628	
1538	0	32628	
1539	0	32550	
1540	0	32626	
1541	0	32636	
1542	0	32630	
1543	0	32575	
1544	0	32682	
1545	0	32686	
1546	0	32594	
1547	0	32445	
1548	0	32616	
1549	0	32662	
1550	0	32642	
1551	0	32571	
1552	0	32720	
1553	0	32728	
1554	0	32754	
1555	0	32654	
1556	0	32744	
1557	0	32797	
1558	0	32784	
1559	0	32594	
1560	0	32637	
1561	0	32699	
1562	0	32680	
1563	0	32656	
1564	0	32850	
1565	0	32960	
1566	0	32990	
1567	0	32908	
1568	0	33012	
1569	0	33042	
1570	0	32960	
1571	0	32868	
1572	0	32920	
1573	0	32920	
1574	0	32920	
1575	0	32836	
1576	0	32876	
1577	0	32885	
1578	0	32860	
1579	0	32770	
1580	0	32818	
1581	0	32832	
1582	0	32827	
1583	0	32720	
1584	0	32879	
1585	0	32954	
1586	0	32988	
1587	0	32910	
1588	0	33016	
1589	0	32952	
1590	0	32892	
1591	0	32744	
1592	0	32805	
1593	0	32820	
1594	0	32752	
1595	0	32586	
1596	0	32648	
1597	0	32696	
1598	0	32708	
1599	0	32698	
1600	0	32874	
1601	0	32896	
1602	0	32836	
1603	0	32720	
1604	0	32792	
1605	0	32775	
1606	0	32776	
1607	0	32682	
1608	0	32728	
1609	0	32718	
1610	0	32708	
1611	0	32592	
1612	0	32616	
1613	0	32626	
1614	0	32630	
1615	0	32564	
1616	0	32644	
1617	0	32692	
1618	0	32696	
1619	0	32576	
1620	0	32524	
1621	0	32016	
1622	0	31362	
1623	0	30680	
1624	0	31189	
1625	0	33329	
1626	0	37044	
1627	0	40352	
1628	0	42864	
1629	0	41792	
1630	0	38178	
1631	0	34448	
1632	0	33170	
1633	0	32383	
1634	0	32080	
1635	0	31819	
1636	0	31872	
1637	0	31912	
1638	0	31904	
1639	0	31800	
1640	0	31936	
1641	0	31950	
1642	0	31908	
1643	0	31826	
1644	0	31982	
1645	0	31962	
1646	0	31984	
1647	0	31924	
1648	0	32010	
1649	0	32080	
1650	0	32104	
1651	0	32033	
1652	0	32144	
1653	0	32219	
1654	0	32174	
1655	0	32041	
1656	0	32101	
1657	0	32128	
1658	0	32084	
1659	0	31945	
1660	0	32008	
1661	0	32068	
1662	0	32152	
1663	0	32158	
1664	0	32286	
1665	0	32296	
1666	0	32336	
1667	0	32272	
1668	0	32388	
1669	0	32470	
1670	0	32518	
1671	0	32464	
1672	0	32601	
1673	0	32658	
1674	0	32704	
1675	0	32708	
1676	0	32876	
1677	0	32964	
1678	0	33034	
1679	0	33017	
1680	0	33132	
1681	0	33163	
1682	0	33136	
1683	0	32953	
1684	0	32932	
1685	0	32790	
1686	0	32502	
1687	0	32276	
1688	0	32306	
1689	0	32331	
1690	0	32290	
1691	0	32236	
1692	0	32302	
1693	0	32272	
1694	0	32306	
1695	0	32298	
1696	0	32312	
1697	0	32294	
1698	0	32248	
1699	0	32149	
1700	0	32256	
1701	0	32294	
1702	0	32281	
1703	0	32118	
1704	0	32187	
1705	0	32178	
1706	0	32112	
1707	0	32020	
1708	0	32092	
1709	0	32219	
1710	0	32248	
1711	0	32140	
1712	0	32218	
1713	0	32248	
1714	0	32272	
1715	0	32198	
1716	0	32252	
1717	0	32292	
1718	0	32360	
1719	0	32338	
1720	0	32494	
1721	0	32560	
1722	0	32541	
1723	0	32455	
1724	0	32586	
1725	0	32576	
1726	0	32484	
1727	0	32408	
1728	0	32552	
1729	0	32573	
1730	0	32578	
1731	0	32472	
1732	0	32588	
1733	0	32504	
1734	0	32464	
1735	0	32428	
1736	0	32546	
1737	0	32536	
1738	0	32549	
1739	0	32492	
1740	0	32588	
1741	0	32600	
1742	0	32553	
1743	0	32396	
1744	0	32416	
1745	0	32506	
1746	0	32598	
1747	0	32526	
1748	0	32612	
1749	0	32592	
1750	0	32634	
1751	0	32552	
1752	0	32586	
1753	0	32604	
1754	0	32520	
1755	0	32424	
1756	0	32526	
1757	0	32568	
1758	0	32514	
1759	0	32414	
1760	0	32524	
1761	0	32558	
1762	0	32628	
1763	0	32662	
1764	0	32706	
1765	0	32763	
1766	0	32770	
1767	0	32704	
1768	0	32752	
1769	0	32847	
1770	0	32792	
1771	0	32660	
1772	0	32673	
1773	0	32736	
1774	0	32696	
1775	0	32640	
1776	0	32692	
1777	0	32736	
1778	0	32684	
1779	0	32640	
1780	0	32744	
1781	0	32796	
1782	0	32666	
1783	0	32542	
1784	0	32601	
1785	0	32568	
1786	0	32592	
1787	0	32489	
1788	0	32594	
1789	0	32654	
1790	0	32616	
1791	0	32688	
1792	0	32772	
1793	0	32792	
1794	0	32758	
1795	0	32650	
1796	0	32821	
1797	0	32949	
1798	0	32980	
1799	0	32859	
1800	0	32860	
1801	0	32856	
1802	0	32804	
1803	0	32729	
1804	0	32848	
1805	0	32859	
1806	0	32792	
1807	0	32614	
1808	0	32687	
1809	0	32796	
1810	0	32832	
1811	0	32836	
1812	0	32960	
1813	0	32902	
1814	0	32888	
1815	0	32885	
1816	0	32992	
1817	0	32828	
1818	0	32346	
1819	0	31548	
1820	0	31005	
1821	0	31316	
1822	0	33448	
1823	0	37148	
1824	0	40776	
1825	0	43306	
1826	0	41848	
1827	0	37724	
1828	0	34190	
1829	0	33043	
1830	0	32465	
1831	0	32052	
1832	0	31944	
1833	0	31908	
1834	0	31807	
1835	0	31709	
1836	0	31719	
1837	0	31826	
1838	0	31840	
1839	0	31709	
1840	0	31751	
1841	0	31864	
1842	0	32008	
1843	0	31922	
1844	0	32010	
1845	0	32088	
1846	0	32000	
1847	0	31828	
1848	0	31924	
1849	0	32104	
1850	0	32152	
1851	0	32162	
1852	0	32248	
1853	0	32220	
1854	0	32242	
1855	0	32238	
1856	0	32344	
1857	0	32368	
1858	0	32248	
1859	0	32096	
1860	0	32240	
1861	0	32366	
1862	0	32334	
1863	0	32290	
1864	0	32398	
1865	0	32473	
1866	0	32617	
1867	0	32600	
1868	0	32918	
1869	0	33030	
1870	0	33158	
1871	0	33226	
1872	0	33362	
1873	0	33556	
1874	0	33740	
1875	0	33684	
1876	0	33772	
1877	0	33857	
1878	0	33860	
1879	0	33816	
1880	0	33757	
1881	0	33476	
1882	0	33192	
1883	0	32964	
1884	0	32884	
1885	0	32858	
1886	0	32647	
1887	0	32487	
1888	0	32560	
1889	0	32658	
1890	0	32617	
1891	0	32486	
1892	0	32552	
1893	0	32629	
1894	0	32604	
1895	0	32404	
1896	0	32512	
1897	0	32560	
1898	0	32554	
1899	0	32536	
1900	0	32640	
1901	0	32612	
1902	0	32534	
1903	0	32492	
1904	0	32438	
1905	0	32598	
1906	0	32628	
1907	0	32442	
1908	0	32440	
1909	0	32528	
1910	0	32659	
1911	0	32536	
1912	0	32545	
1913	0	32672	
1914	0	32816	
1915	0	32736	
1916	0	32775	
1917	0	32868	
1918	0	32932	
1919	0	32846	
1920	0	32868	
1921	0	32853	
1922	0	32747	
1923	0	32793	
1924	0	32844	
1925	0	32856	
1926	0	32844	
1927	0	32710	
1928	0	32736	
1929	0	32731	
1930	0	32802	
1931	0	32673	
1932	0	32804	
1933	0	32900	
1934	0	32907	
1935	0	32744	
1936	0	32865	
1937	0	32962	
1938	0	32920	
1939	0	32832	
1940	0	32857	
1941	0	32907	
1942	0	32868	
1943	0	32785	
1944	0	32832	
1945	0	32768	
1946	0	32725	
1947	0	32775	
1948	0	32978	
1949	0	33062	
1950	0	33096	
1951	0	33064	
1952	0	33124	
1953	0	33056	
1954	0	33014	
1955	0	32760	
1956	0	32690	
1957	0	32814	
1958	0	32852	
1959	0	32624	
1960	0	32658	
1961	0	32658	
1962	0	32516	
1963	0	32646	
1964	0	32811	
1965	0	32848	
1966	0	32888	
1967	0	32786	
1968	0	32834	
1969	0	32762	
1970	0	32775	
1971	0	32633	
1972	0	32722	
1973	0	32660	
1974	0	32536	
1975	0	32673	
1976	0	32903	
1977	0	32984	
1978	0	32802	
1979	0	32762	
1980	0	32854	
1981	0	32692	
1982	0	32670	
1983	0	32612	
1984	0	32696	
1985	0	32818	
1986	0	32796	
1987	0	32718	
1988	0	32712	
1989	0	32680	
1990	0	32866	
1991	0	32884	
1992	0	32994	
1993	0	32946	
1994	0	32969	
1995	0	33050	
1996	0	33152	
1997	0	32996	
1998	0	32944	
1999	0	32832	
2000	0	32872	
2001	0	32866	
2002	0	32836	
2003	0	32628	
2004	0	32820	
2005	0	32944	
2006	0	32845	
2007	0	32796	
2008	0	32900	
2009	0	33129	
2010	0	33080	
2011	0	32804	
2012	0	32760	
2013	0	32804	
2014	0	32372	
2015	0	31556	
2016	0	31077	
2017	0	31642	
2018	0	34208	
2019	0	38397	
2020	0	42004	
2021	0	43896	
2022	0	41661	
2023	0	36534	
2024	0	33642	
2025	0	32936	
2026	0	32062	
2027	0	31856	
2028	0	31926	
2029	0	31764	
2030	0	31820	
2031	0	31736	
2032	0	31751	
2033	0	31826	
2034	0	31813	
2035	0	31588	
2036	0	31638	
2037	0	31781	
2038	0	31937	
2039	0	31722	
2040	0	31904	
2041	0	31984	
2042	0	31793	
2043	0	31858	
2044	0	32035	
2045	0	32148	
2046	0	32186	
2047	0	32253	
2048	0	32362	
2049	0	32299	
2050	0	32378	
2051	0	32178	
2052	0	32248	
2053	0	32440	
2054	0	32410	
2055	0	32212	
2056	0	32418	
2057	0	32660	
2058	0	32473	
2059	0	32444	
2060	0	32544	
2061	0	32568	
2062	0	32735	
2063	0	32770	
2064	0	33056	
2065	0	33128	
2066	0	33343	
2067	0	33348	
2068	0	33443	
2069	0	33596	
2070	0	33626	
2071	0	33584	
2072	0	33638	
2073	0	33664	
2074	0	33808	
2075	0	33586	
2076	0	33473	
2077	0	33344	
2078	0	33075	
2079	0	32816	
2080	0	32564	
2081	0	32416	
2082	0	32467	
2083	0	32199	
2084	0	32150	
2085	0	32158	
2086	0	32160	
2087	0	32049	
2088	0	32208	
2089	0	32310	
2090	0	32164	
2091	0	32216	
2092	0	32248	
2093	0	32228	
2094	0	32076	
2095	0	32140	
2096	0	32323	
2097	0	32326	
2098	0	32402	
2099	0	32233	
2100	0	32296	
2101	0	32432	
2102	0	32276	
2103	0	32037	
2104	0	32171	
2105	0	32396	
2106	0	32384	
2107	0	32276	
2108	0	32414	
2109	0	32548	
2110	0	32340	
2111	0	32326	
2112	0	32500	
2113	0	32585	
2114	0	32544	
2115	0	32492	
2116	0	32640	
2117	0	32674	
2118	0	32658	
2119	0	32646	
2120	0	32708	
2121	0	32768	
2122	0	32813	
2123	0	32714	
2124	0	32691	
2125	0	32874	
2126	0	32940	
2127	0	32856	
2128	0	32714	
2129	0	32864	
2130	0	32994	
2131	0	32828	
2132	0	32885	
2133	0	32900	
2134	0	32903	
2135	0	32874	
2136	0	32959	
2137	0	32954	
2138	0	32988	
2139	0	33004	
2140	0	33010	
2141	0	33028	
2142	0	32972	
2143	0	32772	
2144	0	32845	
2145	0	32968	
2146	0	32954	
2147	0	32733	
2148	0	32775	
2149	0	32926	
2150	0	32908	
2151	0	32752	
2152	0	32794	
2153	0	32885	
2154	0	32832	
2155	0	32808	
2156	0	32874	
2157	0	32966	
2158	0	32938	
2159	0	32741	
2160	0	32872	
2161	0	32986	
2162	0	32905	
2163	0	32789	
2164	0	32848	
2165	0	32876	
2166	0	32738	
2167	0	32584	
2168	0	32700	
2169	0	32784	
2170	0	32764	
2171	0	32745	
2172	0	32775	
2173	0	32744	
2174	0	32757	
2175	0	32686	
2176	0	32674	
2177	0	32760	
2178	0	32731	
2179	0	32642	
2180	0	32748	
2181	0	32827	
2182	0	32752	
2183	0	32642	
2184	0	32622	
2185	0	32730	
2186	0	32833	
2187	0	32874	
2188	0	32894	
2189	0	32964	
2190	0	32946	
2191	0	32816	
2192	0	32890	
2193	0	32979	
2194	0	32970	
2195	0	32910	
2196	0	32882	
2197	0	32878	
2198	0	32768	
2199	0	32684	
2200	0	32800	
2201	0	32844	
2202	0	32880	
2203	0	32818	
2204	0	32839	
2205	0	32892	
2206	0	32775	
2207	0	32391	
2208	0	31934	
2209	0	31254	
2210	0	30592	
2211	0	30986	
2212	0	33584	
2213	0	37750	
2214	0	41388	
2215	0	43784	
2216	0	42300	
2217	0	38026	
2218	0	34162	
2219	0	32894	
2220	0	32144	
2221	0	31824	
2222	0	31619	
2223	0	31477	
2224	0	31516	
2225	0	31602	
2226	0	31520	
2227	0	31523	
2228	0	31632	
2229	0	31751	
2230	0	31762	
2231	0	31668	
2232	0	31724	
2233	0	31834	
2234	0	31892	
2235	0	31788	
2236	0	31812	
2237	0	31888	
2238	0	31883	
2239	0	31826	
2240	0	31843	
2241	0	31976	
2242	0	31993	
2243	0	31961	
2244	0	32014	
2245	0	32034	
2246	0	32002	
2247	0	32035	
2248	0	32178	
2249	0	32232	
2250	0	32192	
2251	0	32158	
2252	0	32258	
2253	0	32332	
2254	0	32298	
2255	0	32192	
2256	0	32320	
2257	0	32580	
2258	0	32756	
2259	0	32740	
2260	0	32846	
2261	0	33064	
2262	0	33150	
2263	0	33152	
2264	0	33232	
2265	0	33360	
2266	0	33440	
2267	0	33464	
2268	0	33536	
2269	0	33467	
2270	0	33305	
2271	0	33048	
2272	0	32928	
2273	0	32864	
2274	0	32752	
2275	0	32562	
2276	0	32485	
2277	0	32532	
2278	0	32540	
2279	0	32418	
2280	0	32434	
2281	0	32558	
2282	0	32520	
2283	0	32502	
2284	0	32560	
2285	0	32570	
2286	0	32542	
2287	0	32428	
2288	0	32428	
2289	0	32530	
2290	0	32552	
2291	0	32454	
2292	0	32482	
2293	0	32608	
2294	0	32667	
2295	0	32596	
2296	0	32544	
2297	0	32518	
2298	0	32544	
2299	0	32560	
2300	0	32699	
2301	0	32872	
2302	0	32877	
2303	0	32754	
2304	0	32762	
2305	0	32868	
2306	0	32885	
2307	0	32786	
2308	0	32784	
2309	0	32898	
2310	0	32888	
2311	0	32851	
2312	0	32852	
2313	0	32864	
2314	0	32888	
2315	0	32900	
2316	0	32956	
2317	0	32964	
2318	0	32936	
2319	0	32743	
2320	0	32804	
2321	0	32948	
2322	0	32966	
2323	0	32861	
2324	0	32856	
2325	0	32936	
2326	0	32924	
2327	0	32860	
2328	0	32902	
2329	0	32982	
2330	0	32952	
2331	0	32832	
2332	0	32836	
2333	0	32941	
2334	0	33012	
2335	0	32934	
2336	0	32908	
2337	0	32974	
2338	0	32992	
2339	0	32944	
2340	0	32947	
2341	0	32962	
2342	0	32962	
2343	0	32846	
2344	0	32800	
2345	0	33011	
2346	0	33060	
2347	0	32982	
2348	0	32976	
2349	0	33094	
2350	0	33080	
2351	0	32888	
2352	0	32879	
2353	0	33060	
2354	0	33093	
2355	0	32984	
2356	0	32976	
2357	0	33042	
2358	0	33028	
2359	0	32925	
2360	0	32970	
2361	0	33020	
2362	0	33044	
2363	0	32964	
2364	0	33032	
2365	0	33188	
2366	0	33211	
2367	0	33120	
2368	0	33164	
2369	0	33192	
