# OpenSignals Text File Format
# {"00:07:80:3B:46:61": {"sensor": ["cACC", "cACC", "cACC"], "device name": "00:07:80:3B:46:61", "column": ["nSeq", "DI", "PORT4_CHN1", "PORT6_CHN1", "PORT7_CHN1"], "sync interval": 2, "time": "11:23:41.963", "comments": "", "device connection": "BTH00:07:80:3B:46:61", "channels": [4, 6, 7], "date": "2017-1-20", "mode": 0, "digital IO": [0, 1], "firmware version": 772, "device": "channeller", "position": 0, "sampling rate": 1000, "label": ["PORT4_CHN1", "PORT6_CHN1", "PORT7_CHN1"], "resolution": [16, 16, 16], "special": [{"SpO2": [80, 40, 5, 4, 5, 5]}, {"SpO2": [80, 40, 5, 4, 5, 5]}, {"SpO2": [80, 40, 5, 4, 5, 5]}]}}
# EndOfHeader
0	0	31058	28831	35856	
1	0	31044	28820	35847	
2	0	31045	28818	35879	
3	0	31032	28820	35886	
4	0	31008	28826	35900	
5	0	31002	28826	35900	
6	0	30978	28822	35913	
7	0	30965	28832	35920	
8	0	30958	28839	35932	
9	0	30944	28841	35929	
10	0	30922	28847	35947	
11	0	30922	28842	35946	
12	0	30902	28848	35939	
13	0	30882	28863	35938	
14	0	30874	28870	35940	
15	0	30866	28883	35949	
16	0	30852	28896	35938	
17	0	30844	28900	35962	
18	0	30832	28900	35992	
19	0	30824	28898	36008	
20	0	30832	28891	36008	
21	0	30824	28878	36000	
22	0	30823	28881	36034	
23	0	30816	28892	36060	
24	0	30802	28906	36093	
25	0	30794	28924	36086	
26	0	30808	28914	36075	
27	0	30808	28925	36082	
28	0	30804	28924	36090	
29	0	30824	28925	36102	
30	0	30820	28914	36114	
31	0	30824	28909	36114	
32	0	30820	28921	36119	
33	0	30828	28933	36114	
34	0	30836	28935	36131	
35	0	30817	28950	36150	
36	0	30824	28958	36144	
37	0	30830	28953	36174	
38	0	30852	28951	36168	
39	0	30852	28949	36183	
40	0	30875	28939	36186	
41	0	30884	28932	36184	
42	0	30884	28941	36201	
43	0	30896	28951	36206	
44	0	30916	28948	36210	
45	0	30926	28942	36226	
46	0	30940	28950	36230	
47	0	30944	28936	36222	
48	0	30958	28930	36256	
49	0	30964	28920	36248	
50	0	30980	28912	36252	
51	0	30996	28895	36246	
52	0	31000	28878	36242	
53	0	31012	28868	36251	
54	0	31032	28878	36242	
55	0	31040	28873	36231	
56	0	31058	28864	36246	
57	0	31072	28864	36228	
58	0	31084	28866	36246	
59	0	31084	28863	36246	
60	0	31112	28852	36231	
61	0	31112	28850	36210	
62	0	31130	28851	36216	
63	0	31138	28842	36224	
64	0	31152	28853	36223	
65	0	31168	28852	36217	
66	0	31173	28836	36236	
67	0	31180	28855	36210	
68	0	31208	28840	36196	
69	0	31232	28840	36206	
70	0	31222	28840	36179	
71	0	31224	28842	36188	
72	0	31244	28832	36176	
73	0	31256	28836	36180	
74	0	31258	28837	36183	
75	0	31268	28836	36178	
76	0	31272	28836	36170	
77	0	31276	28825	36182	
78	0	31282	28820	36172	
79	0	31305	28816	36158	
80	0	31304	28800	36170	
81	0	31324	28802	36160	
82	0	31328	28807	36142	
83	0	31334	28807	36152	
84	0	31338	28813	36136	
85	0	31352	28798	36134	
86	0	31356	28793	36116	
87	0	31348	28801	36112	
88	0	31344	28796	36102	
89	0	31336	28794	36076	
90	0	31340	28775	36066	
91	0	31346	28777	36060	
92	0	31337	28772	36039	
93	0	31336	28754	36030	
94	0	31328	28762	36046	
95	0	31324	28762	36043	
96	0	31330	28754	36039	
97	0	31328	28747	36003	
98	0	31330	28752	36012	
99	0	31328	28749	36010	
100	0	31324	28745	36009	
101	0	31313	28744	35982	
102	0	31308	28739	35966	
103	0	31304	28739	35966	
104	0	31304	28736	35972	
105	0	31312	28732	35948	
106	0	31304	28734	35947	
107	0	31288	28726	35938	
108	0	31288	28706	35936	
109	0	31290	28708	35924	
110	0	31272	28703	35906	
111	0	31260	28699	35874	
112	0	31258	28692	35878	
113	0	31257	28695	35864	
114	0	31229	28697	35870	
115	0	31212	28706	35869	
116	0	31220	28700	35868	
117	0	31204	28702	35847	
118	0	31200	28706	35847	
119	0	31192	28706	35838	
120	0	31192	28692	35815	
121	0	31169	28690	35814	
122	0	31161	28692	35783	
123	0	31152	28679	35786	
124	0	31144	28672	35792	
125	0	31128	28678	35796	
126	0	31116	28679	35778	
127	0	31090	28678	35786	
128	0	31086	28660	35770	
129	0	31072	28673	35748	
130	0	31062	28658	35760	
131	0	31048	28641	35733	
132	0	31038	28639	35737	
133	0	31028	28634	35754	
134	0	31016	28620	35768	
135	0	31000	28631	35760	
136	0	31002	28626	35750	
137	0	30988	28617	35768	
138	0	30976	28619	35768	
139	0	30952	28602	35754	
140	0	30944	28592	35748	
141	0	30936	28591	35736	
142	0	30906	28602	35724	
143	0	30906	28586	35719	
144	0	30898	28587	35728	
145	0	30882	28585	35719	
146	0	30877	28573	35707	
147	0	30872	28583	35714	
148	0	30848	28584	35718	
149	0	30836	28586	35712	
150	0	30824	28594	35710	
151	0	30808	28586	35702	
152	0	30776	28594	35684	
153	0	30772	28580	35690	
154	0	30789	28576	35687	
155	0	30768	28586	35704	
156	0	30768	28591	35715	
157	0	30776	28602	35719	
158	0	30760	28598	35734	
159	0	30748	28608	35712	
160	0	30742	28622	35700	
161	0	30738	28626	35705	
162	0	30716	28626	35686	
163	0	30732	28622	35684	
164	0	30736	28622	35700	
165	0	30748	28611	35700	
166	0	30726	28618	35719	
167	0	30714	28640	35707	
168	0	30712	28643	35715	
169	0	30712	28646	35708	
170	0	30716	28656	35704	
171	0	30704	28674	35716	
172	0	30704	28676	35700	
173	0	30700	28691	35719	
174	0	30704	28696	35707	
175	0	30720	28704	35704	
176	0	30726	28722	35716	
177	0	30744	28729	35706	
178	0	30736	28739	35718	
179	0	30732	28752	35706	
180	0	30748	28763	35724	
181	0	30748	28773	35738	
182	0	30763	28754	35728	
183	0	30772	28760	35744	
184	0	30788	28741	35753	
185	0	30798	28743	35787	
186	0	30808	28749	35776	
187	0	30816	28752	35766	
188	0	30824	28758	35771	
189	0	30836	28766	35740	
190	0	30848	28762	35734	
191	0	30862	28772	35746	
192	0	30864	28754	35753	
193	0	30880	28767	35748	
194	0	30892	28765	35762	
195	0	30924	28766	35752	
196	0	30922	28770	35776	
197	0	30940	28762	35801	
198	0	30964	28758	35786	
199	0	30980	28747	35766	
200	0	30996	28753	35776	
201	0	31022	28740	35802	
202	0	31030	28739	35824	
203	0	31058	28734	35834	
204	0	31074	28731	35842	
205	0	31100	28743	35846	
206	0	31111	28740	35839	
207	0	31114	28748	35862	
208	0	31136	28745	35842	
209	0	31160	28748	35833	
210	0	31176	28738	35847	
211	0	31186	28744	35842	
212	0	31193	28752	35860	
213	0	31204	28762	35874	
214	0	31228	28759	35896	
215	0	31256	28755	35902	
216	0	31264	28758	35911	
217	0	31264	28762	35922	
218	0	31288	28749	35936	
219	0	31308	28749	35936	
220	0	31314	28747	35951	
221	0	31316	28745	35961	
222	0	31324	28744	35960	
223	0	31336	28742	36000	
224	0	31340	28750	36002	
225	0	31350	28752	36016	
226	0	31356	28744	36030	
227	0	31377	28731	36039	
228	0	31372	28731	36004	
229	0	31380	28710	36038	
230	0	31378	28695	36038	
231	0	31392	28678	36026	
232	0	31384	28682	36040	
233	0	31392	28672	36064	
234	0	31388	28679	36074	
235	0	31393	28670	36072	
236	0	31393	28669	36068	
237	0	31384	28679	36062	
238	0	31376	28695	36077	
239	0	31380	28679	36086	
240	0	31368	28700	36100	
241	0	31376	28695	36112	
242	0	31368	28699	36114	
243	0	31360	28704	36130	
244	0	31376	28724	36142	
245	0	31356	28732	36144	
246	0	31346	28750	36140	
247	0	31360	28736	36133	
248	0	31362	28724	36127	
249	0	31353	28754	36120	
250	0	31348	28771	36131	
251	0	31336	28765	36116	
252	0	31328	28772	36104	
253	0	31324	28792	36090	
254	0	31308	28792	36090	
255	0	31300	28802	36092	
256	0	31300	28807	36069	
257	0	31298	28804	36068	
258	0	31296	28807	36057	
259	0	31304	28804	36062	
260	0	31293	28794	36052	
261	0	31272	28798	36050	
262	0	31264	28806	36036	
263	0	31256	28803	36024	
264	0	31248	28814	36032	
265	0	31242	28807	36039	
266	0	31236	28792	36034	
267	0	31224	28786	36018	
268	0	31206	28793	36007	
269	0	31188	28786	35984	
270	0	31184	28793	35968	
271	0	31172	28783	35968	
272	0	31164	28792	35954	
273	0	31148	28800	35940	
274	0	31138	28806	35930	
275	0	31136	28803	35900	
276	0	31136	28788	35874	
277	0	31128	28780	35878	
278	0	31128	28774	35902	
279	0	31124	28787	35847	
280	0	31112	28783	35869	
281	0	31112	28782	35872	
282	0	31104	28784	35858	
283	0	31096	28782	35835	
284	0	31104	28769	35838	
285	0	31110	28752	35822	
286	0	31098	28740	35812	
287	0	31072	28745	35808	
288	0	31072	28752	35786	
289	0	31072	28747	35774	
290	0	31076	28744	35754	
291	0	31074	28741	35728	
292	0	31074	28739	35712	
293	0	31056	28747	35711	
294	0	31068	28752	35704	
295	0	31072	28743	35696	
296	0	31074	28747	35694	
297	0	31056	28744	35670	
298	0	31064	28722	35650	
299	0	31056	28711	35631	
300	0	31060	28714	35627	
301	0	31068	28716	35634	
302	0	31062	28708	35624	
303	0	31065	28720	35609	
304	0	31076	28720	35618	
305	0	31068	28718	35614	
306	0	31058	28711	35592	
307	0	31052	28718	35602	
308	0	31040	28720	35576	
309	0	31044	28738	35584	
310	0	31044	28718	35564	
311	0	31036	28712	35574	
312	0	31028	28716	35540	
313	0	31032	28736	35524	
314	0	31042	28747	35509	
315	0	31044	28736	35516	
316	0	31045	28722	35536	
317	0	31056	28742	35534	
318	0	31056	28717	35526	
319	0	31068	28706	35530	
320	0	31060	28714	35536	
321	0	31066	28728	35552	
322	0	31062	28736	35548	
323	0	31060	28736	35528	
324	0	31068	28730	35534	
325	0	31076	28731	35539	
326	0	31072	28747	35556	
327	0	31064	28745	35554	
328	0	31080	28744	35556	
329	0	31076	28744	35558	
330	0	31080	28738	35546	
331	0	31090	28726	35547	
332	0	31072	28739	35536	
333	0	31098	28728	35550	
334	0	31096	28731	35572	
335	0	31099	28726	35562	
336	0	31102	28716	35591	
337	0	31096	28717	35606	
338	0	31096	28730	35620	
339	0	31098	28734	35642	
340	0	31098	28739	35614	
341	0	31112	28724	35650	
342	0	31122	28713	35646	
343	0	31126	28728	35656	
344	0	31118	28728	35672	
345	0	31136	28714	35708	
346	0	31136	28719	35728	
347	0	31140	28714	35704	
348	0	31152	28716	35719	
349	0	31160	28707	35724	
350	0	31162	28703	35738	
351	0	31164	28692	35768	
352	0	31154	28694	35764	
353	0	31160	28706	35770	
354	0	31168	28716	35800	
355	0	31164	28720	35818	
356	0	31176	28712	35818	
357	0	31176	28730	35820	
358	0	31182	28740	35875	
359	0	31176	28740	35893	
360	0	31182	28743	35898	
361	0	31192	28737	35914	
362	0	31188	28753	35940	
363	0	31188	28759	35960	
364	0	31204	28742	35986	
365	0	31208	28738	36009	
366	0	31196	28754	36020	
367	0	31202	28752	36028	
368	0	31208	28758	36062	
369	0	31208	28765	36052	
370	0	31196	28771	36057	
371	0	31212	28774	36082	
372	0	31218	28778	36084	
373	0	31216	28784	36078	
374	0	31218	28796	36118	
375	0	31214	28797	36099	
376	0	31222	28812	36120	
377	0	31218	28818	36150	
378	0	31217	28826	36136	
379	0	31216	28838	36140	
380	0	31220	28832	36162	
381	0	31218	28828	36164	
382	0	31222	28825	36188	
383	0	31220	28843	36182	
384	0	31232	28844	36196	
385	0	31239	28852	36191	
386	0	31240	28859	36176	
387	0	31240	28866	36190	
388	0	31256	28862	36194	
389	0	31264	28877	36184	
390	0	31282	28876	36206	
391	0	31284	28877	36214	
392	0	31296	28878	36200	
393	0	31300	28890	36196	
394	0	31304	28880	36211	
395	0	31312	28888	36219	
396	0	31314	28899	36224	
397	0	31325	28903	36231	
398	0	31332	28910	36226	
399	0	31336	28898	36216	
400	0	31341	28892	36228	
401	0	31338	28888	36206	
402	0	31332	28883	36210	
403	0	31352	28873	36217	
404	0	31336	28894	36204	
405	0	31336	28898	36196	
406	0	31355	28902	36178	
407	0	31360	28902	36166	
408	0	31374	28894	36154	
409	0	31372	28896	36137	
410	0	31376	28896	36128	
411	0	31372	28880	36126	
412	0	31376	28878	36101	
413	0	31372	28886	36106	
414	0	31364	28893	36092	
415	0	31372	28888	36088	
416	0	31376	28874	36072	
417	0	31384	28864	36106	
418	0	31371	28866	36103	
419	0	31384	28864	36110	
420	0	31384	28866	36125	
421	0	31396	28858	36100	
422	0	31388	28854	36105	
423	0	31410	28843	36084	
424	0	31404	28838	36101	
425	0	31412	28831	36112	
426	0	31396	28835	36122	
427	0	31390	28834	36118	
428	0	31388	28811	36091	
429	0	31392	28810	36104	
430	0	31392	28792	36090	
431	0	31384	28781	36084	
432	0	31382	28771	36088	
433	0	31378	28772	36075	
434	0	31370	28762	36076	
435	0	31360	28767	36064	
436	0	31360	28758	36061	
437	0	31348	28762	36057	
438	0	31340	28758	36052	
439	0	31338	28756	36043	
440	0	31332	28758	36050	
441	0	31306	28763	36032	
442	0	31300	28765	36034	
443	0	31290	28762	36028	
444	0	31280	28772	36035	
445	0	31280	28774	36030	
446	0	31268	28776	36041	
447	0	31264	28780	36024	
448	0	31264	28771	36001	
449	0	31246	28751	35972	
450	0	31232	28744	35975	
451	0	31208	28744	35951	
452	0	31193	28746	35942	
453	0	31184	28744	35946	
454	0	31184	28738	35946	
455	0	31170	28736	35928	
456	0	31156	28734	35936	
457	0	31168	28739	35935	
458	0	31146	28735	35932	
459	0	31136	28731	35928	
460	0	31122	28747	35892	
461	0	31112	28747	35878	
462	0	31108	28747	35864	
463	0	31108	28744	35847	
464	0	31112	28740	35870	
465	0	31088	28742	35871	
466	0	31096	28739	35847	
467	0	31090	28730	35840	
468	0	31070	28728	35812	
469	0	31072	28712	35807	
470	0	31060	28710	35776	
471	0	31040	28712	35772	
472	0	31044	28709	35768	
473	0	31032	28713	35780	
474	0	31010	28722	35786	
475	0	31018	28722	35779	
476	0	31012	28714	35776	
477	0	31009	28716	35746	
478	0	31004	28708	35728	
479	0	31012	28706	35716	
480	0	31008	28695	35702	
481	0	31008	28690	35656	
482	0	31004	28692	35640	
483	0	31016	28672	35654	
484	0	31012	28678	35656	
485	0	31012	28696	35648	
486	0	31016	28698	35653	
487	0	31024	28699	35642	
488	0	31012	28702	35616	
489	0	31012	28697	35600	
490	0	31017	28674	35602	
491	0	31026	28658	35576	
492	0	31032	28647	35576	
493	0	31032	28656	35552	
494	0	31028	28650	35536	
495	0	31044	28642	35527	
496	0	31040	28648	35520	
497	0	31048	28635	35508	
498	0	31064	28636	35506	
499	0	31080	28634	35488	
500	0	31076	28636	35463	
501	0	31084	28643	35448	
502	0	31098	28632	35446	
503	0	31104	28630	35444	
504	0	31110	28627	35466	
505	0	31117	28626	35442	
506	0	31132	28602	35446	
507	0	31116	28596	35428	
508	0	31120	28587	35416	
509	0	31116	28601	35382	
510	0	31138	28583	35373	
511	0	31145	28566	35352	
512	0	31144	28545	35355	
513	0	31152	28530	35352	
514	0	31152	28548	35335	
515	0	31173	28559	35350	
516	0	31178	28556	35326	
517	0	31192	28570	35324	
518	0	31209	28585	35305	
519	0	31220	28608	35296	
520	0	31236	28856	35316	
521	0	31244	28814	35326	
522	0	31216	28518	35335	
523	0	31176	28310	35352	
524	0	31140	28179	35316	
525	0	31144	28130	35229	
526	0	31129	28180	35079	
527	0	31126	28252	34939	
528	0	31120	28322	34820	
529	0	31133	28372	34735	
530	0	31160	28424	34690	
531	0	31176	28492	34644	
532	0	31192	28546	34702	
533	0	31224	28572	34733	
534	0	31238	28590	34750	
535	0	31244	28596	34774	
536	0	31236	28603	34796	
537	0	31238	28604	34828	
538	0	31256	28588	34864	
539	0	31272	28562	34914	
540	0	31280	28514	34951	
541	0	31288	28485	35013	
542	0	31272	28454	35076	
543	0	31268	28417	35094	
544	0	31273	28404	35118	
545	0	31276	28404	35147	
546	0	31272	28413	35148	
547	0	31265	28406	35150	
548	0	31274	28423	35146	
549	0	31268	28418	35155	
550	0	31272	28424	35148	
551	0	31268	28443	35146	
552	0	31269	28437	35143	
553	0	31268	28464	35160	
554	0	31280	28478	35152	
555	0	31269	28500	35184	
556	0	31274	28515	35188	
557	0	31268	28528	35211	
558	0	31268	28524	35242	
559	0	31264	28511	35266	
560	0	31276	28492	35298	
561	0	31273	28490	35317	
562	0	31280	28483	35335	
563	0	31288	28475	35378	
564	0	31288	28466	35423	
565	0	31288	28470	35463	
566	0	31290	28463	35484	
567	0	31292	28459	35522	
568	0	31302	28452	35528	
569	0	31290	28432	35546	
570	0	31290	28436	35592	
571	0	31296	28427	35608	
572	0	31288	28431	35624	
573	0	31286	28428	35650	
574	0	31280	28428	35682	
575	0	31268	28444	35693	
576	0	31268	28475	35700	
577	0	31269	28472	35724	
578	0	31250	28484	35752	
579	0	31257	28492	35762	
580	0	31250	28498	35784	
581	0	31234	28512	35804	
582	0	31224	28527	35794	
583	0	31224	28532	35834	
584	0	31212	28538	35856	
585	0	31205	28558	35874	
586	0	31196	28574	35910	
587	0	31192	28578	35922	
588	0	31180	28587	35924	
589	0	31170	28596	35958	
590	0	31152	28596	35974	
591	0	31152	28603	35980	
592	0	31136	28612	35990	
593	0	31132	28626	35999	
594	0	31114	28646	36014	
595	0	31122	28667	36019	
596	0	31106	28686	36042	
597	0	31112	28688	36070	
598	0	31120	28702	36066	
599	0	31124	28730	36059	
600	0	31116	28727	36070	
601	0	31114	28740	36080	
602	0	31128	28752	36078	
603	0	31124	28765	36088	
604	0	31124	28788	36104	
605	0	31128	28794	36135	
606	0	31120	28815	36145	
607	0	31124	28821	36150	
608	0	31132	28832	36136	
609	0	31132	28819	36154	
610	0	31144	28828	36149	
611	0	31137	28821	36152	
612	0	31152	28807	36150	
613	0	31152	28801	36159	
614	0	31144	28815	36152	
615	0	31144	28814	36144	
616	0	31152	28822	36114	
617	0	31160	28818	36120	
618	0	31172	28830	36132	
619	0	31182	28829	36136	
620	0	31182	28822	36124	
621	0	31178	28823	36118	
622	0	31176	28820	36096	
623	0	31200	28828	36101	
624	0	31210	28828	36100	
625	0	31220	28805	36103	
626	0	31224	28796	36112	
627	0	31242	28771	36104	
628	0	31248	28775	36094	
629	0	31256	28749	36066	
630	0	31268	28732	36032	
631	0	31280	28723	36026	
632	0	31288	28714	36011	
633	0	31300	28693	35998	
634	0	31312	28684	35987	
635	0	31321	28676	35975	
636	0	31330	28668	35954	
637	0	31354	28666	35926	
638	0	31364	28656	35918	
639	0	31364	28656	35900	
640	0	31376	28668	35847	
641	0	31396	28658	35832	
642	0	31400	28655	35816	
643	0	31420	28650	35780	
644	0	31418	28667	35781	
645	0	31422	28674	35749	
646	0	31420	28666	35730	
647	0	31418	28659	35696	
648	0	31426	28666	35682	
649	0	31432	28660	35646	
650	0	31440	28650	35613	
651	0	31428	28642	35600	
652	0	31430	28618	35565	
653	0	31424	28615	35554	
654	0	31421	28597	35528	
655	0	31424	28584	35491	
656	0	31416	28573	35474	
657	0	31408	28575	35474	
658	0	31418	28546	35452	
659	0	31394	28542	35434	
660	0	31392	28518	35435	
661	0	31388	28503	35399	
662	0	31392	28498	35381	
663	0	31386	28494	35384	
664	0	31370	28494	35373	
665	0	31354	28487	35385	
666	0	31338	28496	35370	
667	0	31330	28500	35335	
668	0	31326	28506	35334	
669	0	31296	28512	35334	
670	0	31276	28520	35312	
671	0	31248	28536	35307	
672	0	31224	28538	35296	
673	0	31208	28553	35301	
674	0	31194	28568	35299	
675	0	31178	28606	35311	
676	0	31164	28618	35304	
677	0	31144	28642	35320	
678	0	31136	28660	35334	
679	0	31106	28670	35332	
680	0	31090	28694	35335	
681	0	31084	28708	35358	
682	0	31080	28744	35376	
683	0	31066	28756	35386	
684	0	31058	28788	35405	
685	0	31036	28806	35438	
686	0	31020	28823	35444	
687	0	31000	28850	35478	
688	0	30988	28873	35514	
689	0	30972	28896	35522	
690	0	30970	28912	35526	
691	0	30968	28938	35548	
692	0	30968	28962	35600	
693	0	30962	28998	35610	
694	0	30956	29031	35653	
695	0	30950	29048	35702	
696	0	30952	29063	35737	
697	0	30944	29094	35758	
698	0	30960	29114	35806	
699	0	30940	29153	35809	
700	0	30960	29176	35842	
701	0	30966	29191	35869	
702	0	30964	29209	35914	
703	0	30964	29230	35948	
704	0	30976	29250	35968	
705	0	30992	29279	36000	
706	0	31008	29279	36032	
707	0	31020	29284	36043	
708	0	31036	29291	36078	
709	0	31048	29290	36130	
710	0	31060	29303	36138	
711	0	31076	29312	36168	
712	0	31088	29326	36192	
713	0	31108	29346	36212	
714	0	31129	29347	36243	
715	0	31160	29347	36263	
716	0	31176	29348	36306	
717	0	31192	29358	36314	
718	0	31224	29361	36344	
719	0	31250	29376	36394	
720	0	31272	29396	36423	
721	0	31298	29408	36466	
722	0	31334	29409	36487	
723	0	31376	29438	36502	
724	0	31404	29460	36532	
725	0	31428	29473	36562	
726	0	31464	29477	36587	
727	0	31500	29478	36630	
728	0	31528	29490	36660	
729	0	31548	29496	36686	
730	0	31594	29498	36703	
731	0	31618	29490	36738	
732	0	31636	29490	36736	
733	0	31672	29490	36756	
734	0	31696	29491	36774	
735	0	31718	29486	36833	
736	0	31748	29487	36864	
737	0	31769	29484	36912	
738	0	31796	29474	36924	
739	0	31828	29458	36954	
740	0	31852	29458	36980	
741	0	31876	29455	37015	
742	0	31880	29462	37044	
743	0	31900	29467	37076	
744	0	31920	29481	37120	
745	0	31918	29488	37163	
746	0	31930	29490	37210	
747	0	31932	29498	37255	
748	0	31940	29491	37242	
749	0	31944	29486	37272	
750	0	31952	29492	37296	
751	0	31944	29478	37326	
752	0	31950	29478	37348	
753	0	31944	29476	37394	
754	0	31944	29464	37446	
755	0	31949	29473	37494	
756	0	31932	29470	37538	
757	0	31932	29458	37582	
758	0	31940	29451	37608	
759	0	31930	29464	37651	
760	0	31916	29466	37683	
761	0	31896	29456	37700	
762	0	31892	29464	37734	
763	0	31874	29470	37762	
764	0	31852	29486	37810	
765	0	31842	29492	37846	
766	0	31816	29533	37907	
767	0	31786	29555	37948	
768	0	31778	29560	37944	
769	0	31758	29580	37963	
770	0	31740	29596	37972	
771	0	31720	29613	37984	
772	0	31688	29619	38022	
773	0	31666	29634	38059	
774	0	31664	29620	38086	
775	0	31636	29612	38118	
776	0	31612	29608	38158	
777	0	31592	29599	38191	
778	0	31556	29596	38202	
779	0	31538	29586	38234	
780	0	31513	29584	38237	
781	0	31476	29575	38288	
782	0	31456	29578	38304	
783	0	31426	29580	38348	
784	0	31380	29590	38344	
785	0	31360	29592	38352	
786	0	31324	29602	38376	
787	0	31268	29617	38390	
788	0	31237	29609	38388	
789	0	31200	29598	38400	
790	0	31160	29574	38402	
791	0	31108	29554	38407	
792	0	31072	29533	38407	
793	0	31020	29515	38441	
794	0	30972	29510	38450	
795	0	30916	29476	38471	
796	0	30870	29437	38456	
797	0	30834	29428	38471	
798	0	30784	29422	38492	
799	0	30747	29425	38482	
800	0	30696	29436	38496	
801	0	30650	29446	38490	
802	0	30604	29442	38496	
803	0	30562	29457	38535	
804	0	30504	29458	38516	
805	0	30450	29493	38526	
806	0	30400	29570	38568	
807	0	30368	29713	38594	
808	0	30313	29654	38607	
809	0	30258	29536	38598	
810	0	30160	29467	38594	
811	0	30042	29411	38654	
812	0	29944	29353	38710	
813	0	29832	29287	38758	
814	0	29740	29237	38790	
815	0	29674	29225	38820	
816	0	29604	29227	38852	
817	0	29540	29245	38872	
818	0	29468	29280	38896	
819	0	29378	29314	38919	
820	0	29278	29319	38983	
821	0	29184	29330	39012	
822	0	29080	29345	39088	
823	0	29014	29340	39189	
824	0	28920	29344	39268	
825	0	28850	29367	39347	
826	0	28760	29404	39431	
827	0	28692	29434	39508	
828	0	28632	29472	39586	
829	0	28572	29508	39664	
830	0	28536	29590	39746	
831	0	28484	29655	39808	
832	0	28448	29703	39896	
833	0	28416	29804	39986	
834	0	28400	29954	40060	
835	0	28394	30052	40162	
836	0	28374	30162	40224	
837	0	28360	30296	40315	
838	0	28346	30444	40415	
839	0	28336	30584	40509	
840	0	28318	30718	40592	
841	0	28298	30816	40690	
842	0	28276	30879	40792	
843	0	28248	30939	40878	
844	0	28216	30988	40962	
845	0	28198	31046	41058	
846	0	28180	31084	41136	
847	0	28166	31111	41198	
848	0	28138	31126	41254	
849	0	28112	31104	41306	
850	0	28076	31126	41338	
851	0	28096	31473	41374	
852	0	28120	31683	41362	
853	0	28126	31784	41362	
854	0	28132	31844	41392	
855	0	28136	31854	41466	
856	0	28148	31840	41583	
857	0	28178	31808	41643	
858	0	28198	31751	41696	
859	0	28240	31760	41742	
860	0	28292	31807	41734	
861	0	28376	31862	41704	
862	0	28452	31964	41642	
863	0	28544	32107	41554	
864	0	28640	32296	41440	
865	0	28752	32478	41346	
866	0	28859	32614	41204	
867	0	28976	32710	41119	
868	0	29088	32832	40997	
869	0	29191	32928	40858	
870	0	29290	32980	40722	
871	0	29412	33037	40583	
872	0	29536	33120	40480	
873	0	29644	33203	40338	
874	0	29752	33287	40201	
875	0	29866	33364	40018	
876	0	30000	33448	39852	
877	0	30120	33520	39703	
878	0	30236	33592	39527	
879	0	30376	33637	39350	
880	0	30492	33702	39188	
881	0	30612	33764	39002	
882	0	30728	33827	38828	
883	0	30840	33884	38650	
884	0	30936	33940	38454	
885	0	31058	34002	38262	
886	0	31186	34054	38032	
887	0	31332	34094	37808	
888	0	31460	34174	37600	
889	0	31596	34246	37394	
890	0	31732	34328	37176	
891	0	31868	34412	36946	
892	0	32016	34521	36682	
893	0	32164	34632	36430	
894	0	32322	34729	36182	
895	0	32464	34843	35920	
896	0	32628	34910	35666	
897	0	32792	34963	35426	
898	0	32950	35020	35168	
899	0	33108	35064	34938	
900	0	33276	35101	34674	
901	0	33416	35148	34424	
902	0	33568	35188	34150	
903	0	33720	35202	33883	
904	0	33878	35184	33644	
905	0	34032	35188	33374	
906	0	34202	35188	33110	
907	0	34344	35182	32836	
908	0	34490	35166	32549	
909	0	34644	35131	32276	
910	0	34788	35068	32018	
911	0	34930	35024	31735	
912	0	35072	34969	31487	
913	0	35236	34928	31224	
914	0	35368	34894	30979	
915	0	35516	34823	30726	
916	0	35656	34772	30461	
917	0	35808	34704	30212	
918	0	35948	34628	29954	
919	0	36090	34574	29698	
920	0	36224	34521	29449	
921	0	36358	34454	29196	
922	0	36502	34406	28940	
923	0	36664	34404	28690	
924	0	36808	34350	28457	
925	0	36944	34284	28212	
926	0	37064	34244	27964	
927	0	37200	34210	27740	
928	0	37328	34160	27496	
929	0	37448	34105	27260	
930	0	37560	34048	27040	
931	0	37680	34000	26822	
932	0	37796	33922	26607	
933	0	37920	33842	26412	
934	0	38036	33771	26226	
935	0	38140	33698	26058	
936	0	38240	33590	25886	
937	0	38348	33501	25724	
938	0	38436	33410	25478	
939	0	38528	33304	25207	
940	0	38612	33226	24996	
941	0	38680	33154	24820	
942	0	38762	33076	24653	
943	0	38844	32992	24475	
944	0	38914	32925	24322	
945	0	39000	32822	24144	
946	0	39088	32712	23982	
947	0	39146	32614	23859	
948	0	39206	32526	23748	
949	0	39248	32427	23622	
950	0	39298	32296	23496	
951	0	39332	32186	23390	
952	0	39379	32070	23286	
953	0	39428	31965	23222	
954	0	39468	31844	23147	
955	0	39488	31734	23065	
956	0	39500	31645	22957	
957	0	39520	31542	22864	
958	0	39532	31430	22773	
959	0	39538	31351	22724	
960	0	39528	31273	22691	
961	0	39521	31211	22668	
962	0	39504	31150	22662	
963	0	39476	31111	22628	
964	0	39448	31106	22608	
965	0	39400	31108	22607	
966	0	39360	31096	22584	
967	0	39296	31086	22572	
968	0	39252	31082	22582	
969	0	39184	31084	22587	
970	0	39128	31090	22630	
971	0	39058	31072	22656	
972	0	38984	31066	22688	
973	0	38888	31055	22728	
974	0	38826	31004	22793	
975	0	38752	30980	22867	
976	0	38656	30962	22922	
977	0	38568	30959	23020	
978	0	38472	30966	23102	
979	0	38372	31020	23188	
980	0	38260	31106	23332	
981	0	38156	31173	23456	
982	0	38058	31225	23571	
983	0	37944	31303	23686	
984	0	37836	31372	23794	
985	0	37722	31450	23910	
986	0	37626	31476	24018	
987	0	37514	31495	24114	
988	0	37396	31493	24214	
989	0	37278	31448	24305	
990	0	37162	31406	24398	
991	0	37052	31340	24500	
992	0	36930	31260	24611	
993	0	36828	31195	24744	
994	0	36724	31111	24870	
995	0	36604	31034	24991	
996	0	36508	30990	25124	
997	0	36400	30926	25254	
998	0	36290	30901	25416	
999	0	36182	30886	25531	
1000	0	36054	30888	25673	
1001	0	35952	30888	25802	
1002	0	35834	30911	25961	
1003	0	35752	30924	26104	
1004	0	35652	30950	26265	
1005	0	35552	30962	26434	
1006	0	35442	30962	26580	
1007	0	35348	30966	26723	
1008	0	35264	30938	26856	
1009	0	35168	30902	27008	
1010	0	35072	30844	27136	
1011	0	35000	30761	27268	
1012	0	34930	30676	27409	
1013	0	34864	30579	27554	
1014	0	34794	30503	27698	
1015	0	34720	30427	27858	
1016	0	34652	30366	28006	
1017	0	34584	30302	28134	
1018	0	34528	30265	28246	
1019	0	34480	30222	28395	
1020	0	34400	30215	28526	
1021	0	34344	30215	28642	
1022	0	34292	30206	28772	
1023	0	34248	30192	28892	
1024	0	34208	30193	29024	
1025	0	34152	30204	29153	
1026	0	34104	30207	29290	
1027	0	34060	30210	29396	
1028	0	34016	30210	29523	
1029	0	33978	30210	29650	
1030	0	33936	30215	29789	
1031	0	33908	30220	29924	
1032	0	33872	30235	30048	
1033	0	33841	30259	30176	
1034	0	33812	30271	30298	
1035	0	33792	30278	30400	
1036	0	33750	30290	30512	
1037	0	33744	30326	30632	
1038	0	33720	30354	30742	
1039	0	33692	30378	30855	
1040	0	33676	30396	30959	
1041	0	33656	30410	31071	
1042	0	33648	30414	31168	
1043	0	33628	30418	31272	
1044	0	33622	30409	31362	
1045	0	33636	30377	31456	
1046	0	33668	30331	31548	
1047	0	33666	30305	31632	
1048	0	33688	30272	31715	
1049	0	33696	30215	31800	
1050	0	33712	30162	31891	
1051	0	33728	30150	31950	
1052	0	33736	30135	32024	
1053	0	33754	30113	32111	
1054	0	33757	30112	32184	
1055	0	33784	30111	32256	
1056	0	33820	30104	32344	
1057	0	33856	30087	32412	
1058	0	33884	30071	32467	
1059	0	33926	30015	32524	
1060	0	33964	29988	32618	
1061	0	34000	29970	32674	
1062	0	34032	29941	32736	
1063	0	34064	29910	32797	
1064	0	34084	29908	32856	
1065	0	34106	29895	32922	
1066	0	34124	29852	32969	
1067	0	34156	29834	33026	
1068	0	34190	29825	33074	
1069	0	34216	29814	33122	
1070	0	34228	29800	33156	
1071	0	34260	29789	33223	
1072	0	34268	29764	33287	
1073	0	34277	29762	33351	
1074	0	34296	29760	33408	
1075	0	34292	29767	33462	
1076	0	34324	29760	33500	
1077	0	34336	29730	33566	
1078	0	34362	29708	33628	
1079	0	34368	29679	33687	
1080	0	34378	29634	33705	
1081	0	34370	29605	33732	
1082	0	34368	29557	33774	
1083	0	34393	29525	33840	
1084	0	34396	29504	33898	
1085	0	34392	29482	33935	
1086	0	34380	29467	33956	
1087	0	34368	29439	33993	
1088	0	34355	29428	34048	
1089	0	34346	29412	34082	
1090	0	34330	29404	34118	
1091	0	34318	29382	34128	
1092	0	34290	29384	34156	
1093	0	34288	29388	34176	
1094	0	34280	29366	34198	
1095	0	34254	29357	34240	
1096	0	34248	29348	34256	
1097	0	34220	29348	34311	
1098	0	34184	29327	34331	
1099	0	34154	29327	34388	
1100	0	34124	29312	34428	
1101	0	34100	29296	34468	
1102	0	34074	29279	34516	
1103	0	34056	29282	34558	
1104	0	34032	29298	34616	
1105	0	33982	29314	34691	
1106	0	33960	29316	34728	
1107	0	33906	29319	34784	
1108	0	33860	29332	34816	
1109	0	33816	29320	34882	
1110	0	33764	29314	34914	
1111	0	33714	29288	34951	
1112	0	33670	29269	35013	
1113	0	33622	29248	35092	
1114	0	33572	29228	35166	
1115	0	33528	29208	35216	
1116	0	33484	29184	35267	
1117	0	33424	29170	35330	
1118	0	33370	29160	35370	
1119	0	33322	29157	35416	
1120	0	33258	29156	35482	
1121	0	33192	29132	35538	
1122	0	33124	29143	35618	
1123	0	33064	29146	35698	
1124	0	32996	29142	35770	
1125	0	32922	29132	35812	
1126	0	32866	29122	35892	
1127	0	32808	29104	35963	
1128	0	32732	29100	36039	
1129	0	32648	29095	36097	
1130	0	32570	29080	36166	
1131	0	32486	29054	36230	
1132	0	32424	29028	36328	
1133	0	32352	28992	36413	
1134	0	32292	28951	36514	
1135	0	32232	28896	36602	
1136	0	32164	28850	36694	
1137	0	32108	28784	36766	
1138	0	32036	28720	36833	
1139	0	31976	28655	36932	
1140	0	31908	28578	37020	
1141	0	31844	28500	37090	
1142	0	31793	28408	37128	
1143	0	31722	28342	37208	
1144	0	31664	28259	37303	
1145	0	31600	28188	37350	
1146	0	31534	28134	37432	
1147	0	31448	28084	37502	
1148	0	31380	28058	37575	
1149	0	31326	28056	37648	
1150	0	31250	28052	37691	
1151	0	31168	28054	37767	
1152	0	31104	28066	37843	
1153	0	31032	28088	37924	
1154	0	30978	28092	38004	
1155	0	30924	28092	38080	
1156	0	30866	28074	38196	
1157	0	30784	28060	38317	
1158	0	30704	28048	38448	
1159	0	30634	28020	38574	
1160	0	30554	27982	38691	
1161	0	30486	27952	38835	
1162	0	30412	27922	38970	
1163	0	30342	27888	39107	
1164	0	30274	27860	39260	
1165	0	30196	27852	39396	
1166	0	30118	27856	39540	
1167	0	30034	27871	39662	
1168	0	29968	27896	39779	
1169	0	29906	27940	39879	
1170	0	29844	27990	39988	
1171	0	29772	28084	40078	
1172	0	29728	28100	40155	
1173	0	29668	28176	40236	
1174	0	29632	28460	40327	
1175	0	29596	28600	40405	
1176	0	29540	28768	40480	
1177	0	29496	28843	40544	
1178	0	29450	28835	40583	
1179	0	29394	28908	40687	
1180	0	29344	28974	40808	
1181	0	29278	29000	40911	
1182	0	29232	29030	41007	
1183	0	29178	29032	41107	
1184	0	29146	29025	41214	
1185	0	29102	29075	41321	
1186	0	29060	29163	41421	
1187	0	29024	29256	41490	
1188	0	28992	29308	41568	
1189	0	28976	29319	41618	
1190	0	28956	29319	41660	
1191	0	28944	29298	41714	
1192	0	28936	29299	41768	
1193	0	28937	29327	41824	
1194	0	28944	29336	41880	
1195	0	28964	29356	41922	
1196	0	28968	29388	41906	
1197	0	29004	29425	41898	
1198	0	29016	29488	41894	
1199	0	29064	29548	41882	
1200	0	29096	29592	41854	
1201	0	29156	29628	41842	
1202	0	29212	29647	41814	
1203	0	29256	29658	41755	
1204	0	29312	29670	41692	
1205	0	29370	29658	41642	
1206	0	29424	29656	41606	
1207	0	29500	29632	41538	
1208	0	29546	29620	41448	
1209	0	29608	29606	41379	
1210	0	29680	29594	41286	
1211	0	29760	29575	41208	
1212	0	29848	29538	41106	
1213	0	29924	29517	41002	
1214	0	30016	29492	40920	
1215	0	30100	29453	40816	
1216	0	30188	29448	40686	
1217	0	30290	29449	40566	
1218	0	30378	29454	40426	
1219	0	30468	29408	40306	
1220	0	30572	29440	40160	
1221	0	30680	29563	40024	
1222	0	30808	29678	39868	
1223	0	30920	29767	39720	
1224	0	31048	29841	39583	
1225	0	31172	29892	39402	
1226	0	31300	29916	39258	
1227	0	31424	29933	39100	
1228	0	31536	29925	38944	
1229	0	31652	29927	38796	
1230	0	31773	29908	38614	
1231	0	31886	29880	38440	
1232	0	32008	29855	38244	
1233	0	32138	29816	38078	
1234	0	32242	29775	37923	
1235	0	32368	29714	37754	
1236	0	32484	29662	37588	
1237	0	32594	29608	37378	
1238	0	32704	29547	37188	
1239	0	32820	29452	37015	
1240	0	32912	29366	36836	
1241	0	33017	29254	36660	
1242	0	33120	29145	36487	
1243	0	33208	29016	36320	
1244	0	33288	28875	36138	
1245	0	33358	28728	35943	
1246	0	33424	28584	35770	
1247	0	33482	28468	35586	
1248	0	33548	28356	35402	
1249	0	33608	28284	35207	
1250	0	33670	28210	35016	
1251	0	33696	28182	34823	
1252	0	33746	28206	34646	
1253	0	33792	28246	34438	
1254	0	33852	28307	34244	
1255	0	33876	28397	34048	
1256	0	33904	28518	33854	
1257	0	33952	28627	33665	
1258	0	33968	28736	33472	
1259	0	34020	28864	33280	
1260	0	34052	29019	33098	
1261	0	34082	29169	32900	
1262	0	34126	29322	32690	
1263	0	34158	29461	32532	
1264	0	34184	29590	32344	
1265	0	34218	29747	32159	
1266	0	34250	29862	31968	
1267	0	34273	29951	31746	
1268	0	34311	30059	31548	
1269	0	34336	30136	31348	
1270	0	34352	30190	31152	
1271	0	34378	30226	30980	
1272	0	34409	30282	30790	
1273	0	34448	30343	30599	
1274	0	34484	30382	30402	
1275	0	34496	30402	30215	
1276	0	34516	30413	30020	
1277	0	34536	30391	29842	
1278	0	34576	30340	29678	
1279	0	34588	30307	29506	
1280	0	34608	30278	29344	
1281	0	34636	30234	29191	
1282	0	34658	30160	29038	
1283	0	34680	30130	28860	
1284	0	34684	30116	28705	
1285	0	34702	30084	28528	
1286	0	34724	29999	28358	
1287	0	34724	29942	28204	
1288	0	34738	29910	28064	
1289	0	34758	29885	27925	
1290	0	34754	29834	27769	
1291	0	34766	29776	27609	
1292	0	34776	29730	27458	
1293	0	34792	29668	27320	
1294	0	34802	29574	27200	
1295	0	34822	29481	27048	
1296	0	34822	29391	26950	
1297	0	34832	29302	26834	
1298	0	34826	29238	26698	
1299	0	34840	29156	26594	
1300	0	34840	29095	26496	
1301	0	34848	29058	26396	
1302	0	34856	29019	26302	
1303	0	34848	29001	26237	
1304	0	34836	29003	26153	
1305	0	34828	29026	26074	
1306	0	34808	29050	26020	
1307	0	34792	29062	25960	
1308	0	34778	29082	25896	
1309	0	34752	29142	25836	
1310	0	34724	29174	25783	
1311	0	34690	29216	25734	
1312	0	34668	29248	25680	
1313	0	34640	29304	25656	
1314	0	34602	29362	25648	
1315	0	34568	29421	25618	
1316	0	34548	29485	25607	
1317	0	34500	29532	25602	
1318	0	34472	29584	25620	
1319	0	34438	29627	25607	
1320	0	34410	29644	25607	
1321	0	34356	29685	25603	
1322	0	34330	29710	25626	
1323	0	34298	29759	25654	
1324	0	34272	29773	25688	
1325	0	34216	29810	25711	
1326	0	34184	29870	25738	
1327	0	34136	29895	25774	
1328	0	34100	29912	25812	
1329	0	34050	29937	25844	
1330	0	34022	29941	25874	
1331	0	33976	29952	25896	
1332	0	33932	29970	25931	
1333	0	33900	30001	25987	
1334	0	33872	30023	26042	
1335	0	33842	29990	26097	
1336	0	33810	30000	26162	
1337	0	33766	30017	26200	
1338	0	33748	30006	26265	
1339	0	33712	30022	26312	
1340	0	33682	30023	26394	
1341	0	33648	30058	26446	
1342	0	33636	30094	26503	
1343	0	33608	30149	26562	
1344	0	33568	30209	26644	
1345	0	33556	30246	26704	
1346	0	33536	30272	26782	
1347	0	33512	30258	26844	
1348	0	33496	30258	26936	
1349	0	33480	30270	27004	
1350	0	33449	30261	27071	
1351	0	33432	30232	27142	
1352	0	33408	30226	27214	
1353	0	33396	30207	27264	
1354	0	33370	30188	27334	
1355	0	33344	30144	27402	
1356	0	33331	30112	27462	
1357	0	33304	30092	27527	
1358	0	33287	30066	27601	
1359	0	33280	30022	27655	
1360	0	33260	29987	27728	
1361	0	33224	29956	27782	
1362	0	33208	29923	27823	
1363	0	33202	29901	27884	
1364	0	33184	29862	27984	
1365	0	33170	29842	28034	
1366	0	33152	29822	28066	
1367	0	33128	29776	28124	
1368	0	33112	29752	28196	
1369	0	33092	29732	28238	
1370	0	33082	29703	28290	
1371	0	33064	29678	28342	
1372	0	33046	29671	28394	
1373	0	33026	29644	28426	
1374	0	33020	29634	28487	
1375	0	32994	29622	28549	
1376	0	32986	29606	28574	
1377	0	32970	29582	28615	
1378	0	32956	29558	28632	
1379	0	32932	29547	28686	
1380	0	32914	29538	28736	
1381	0	32900	29520	28777	
1382	0	32858	29511	28818	
1383	0	32832	29510	28868	
1384	0	32826	29505	28922	
1385	0	32778	29520	28962	
1386	0	32744	29506	28994	
1387	0	32714	29520	29036	
1388	0	32674	29532	29104	
1389	0	32624	29551	29131	
1390	0	32576	29593	29165	
1391	0	32522	29626	29220	
1392	0	32490	29646	29295	
1393	0	32452	29696	29358	
1394	0	32400	29740	29430	
1395	0	32352	29775	29490	
1396	0	32312	29804	29575	
1397	0	32248	29836	29638	
1398	0	32200	29868	29722	
1399	0	32132	29907	29796	
1400	0	32076	29933	29860	
1401	0	32040	29954	29950	
1402	0	31982	29986	30041	
1403	0	31922	29999	30092	
1404	0	31876	30010	30156	
1405	0	31842	30000	30234	
1406	0	31788	29966	30313	
1407	0	31736	29936	30390	
1408	0	31682	29909	30470	
1409	0	31642	29872	30562	
1410	0	31588	29831	30624	
1411	0	31544	29797	30702	
1412	0	31494	29776	30819	
1413	0	31460	29734	30952	
1414	0	31412	29688	31048	
1415	0	31378	29650	31160	
1416	0	31348	29588	31277	
1417	0	31312	29528	31395	
1418	0	31273	29468	31512	
1419	0	31226	29412	31613	
1420	0	31200	29350	31732	
1421	0	31154	29311	31842	
1422	0	31122	29286	31970	
1423	0	31106	29274	32084	
1424	0	31080	29271	32224	
1425	0	31048	29276	32360	
1426	0	31032	29277	32482	
1427	0	31004	29284	32618	
1428	0	30966	29296	32742	
1429	0	30938	29304	32875	
1430	0	30906	29318	33007	
1431	0	30880	29342	33140	
1432	0	30864	29376	33287	
1433	0	30852	29426	33447	
1434	0	30838	29500	33595	
1435	0	30824	29572	33747	
1436	0	30816	29670	33890	
1437	0	30802	29771	34038	
1438	0	30802	29874	34224	
1439	0	30798	30010	34398	
1440	0	30816	30158	34566	
1441	0	30828	30290	34736	
1442	0	30852	30448	34926	
1443	0	30864	30599	35112	
1444	0	30880	30748	35278	
1445	0	30888	30883	35496	
1446	0	30908	31016	35686	
1447	0	30922	31118	35871	
1448	0	30945	31205	36078	
1449	0	30972	31288	36282	
1450	0	30992	31378	36520	
1451	0	31040	31457	36716	
1452	0	31080	31538	36966	
1453	0	31124	31634	37184	
1454	0	31173	31714	37422	
1455	0	31222	31803	37661	
1456	0	31272	31896	37888	
1457	0	31314	31999	38151	
1458	0	31352	32112	38406	
1459	0	31400	32224	38672	
1460	0	31456	32338	38946	
1461	0	31498	32469	39186	
1462	0	31546	32614	39448	
1463	0	31604	32748	39746	
1464	0	31656	32901	40004	
1465	0	31712	33047	40271	
1466	0	31764	33180	40548	
1467	0	31816	33326	40824	
1468	0	31860	33479	41092	
1469	0	31908	33602	41312	
1470	0	31969	33720	41618	
1471	0	32024	33844	41904	
1472	0	32088	33948	42166	
1473	0	32144	34050	42448	
1474	0	32194	34142	42756	
1475	0	32254	34194	43052	
1476	0	32324	34242	43311	
1477	0	32376	34294	43609	
1478	0	32432	34311	43911	
1479	0	32496	34334	44205	
1480	0	32548	34328	44502	
1481	0	32604	34311	44780	
1482	0	32692	34268	45076	
1483	0	32770	34250	45358	
1484	0	32844	34212	45624	
1485	0	32916	34168	45914	
1486	0	32994	34114	46182	
1487	0	33070	34064	46430	
1488	0	33146	34006	46666	
1489	0	33220	33948	46904	
1490	0	33308	33886	47108	
1491	0	33386	33812	47332	
1492	0	33472	33764	47531	
1493	0	33556	33714	47736	
1494	0	33648	33671	47913	
1495	0	33730	33623	48074	
1496	0	33816	33581	48218	
1497	0	33908	33540	48344	
1498	0	33996	33496	48484	
1499	0	34072	33460	48598	
1500	0	34156	33442	48702	
1501	0	34246	33402	48775	
1502	0	34320	33371	48882	
1503	0	34378	33347	48942	
1504	0	34480	33311	48980	
1505	0	34552	33266	49042	
1506	0	34628	33254	49062	
1507	0	34696	33238	49062	
1508	0	34764	33237	49012	
1509	0	34816	33242	48967	
1510	0	34864	33264	48890	
1511	0	34922	33279	48798	
1512	0	34978	33298	48694	
1513	0	35028	33330	48578	
1514	0	35080	33338	48450	
1515	0	35128	33358	48290	
1516	0	35160	33364	48129	
1517	0	35192	33364	47938	
1518	0	35216	33362	47764	
1519	0	35232	33378	47596	
1520	0	35256	33395	47376	
1521	0	35264	33408	47146	
1522	0	35248	33440	46906	
1523	0	35244	33472	46678	
1524	0	35250	33512	46428	
1525	0	35232	33560	46177	
1526	0	35208	33592	45879	
1527	0	35176	33644	45570	
1528	0	35144	33660	45288	
1529	0	35108	33675	45000	
1530	0	35070	33682	44686	
1531	0	35018	33698	44398	
1532	0	34978	33706	44112	
1533	0	34928	33734	43836	
1534	0	34880	33760	43546	
1535	0	34834	33799	43246	
1536	0	34778	33863	42956	
1537	0	34720	33946	42631	
1538	0	34668	34031	42308	
1539	0	34620	34116	41991	
1540	0	34564	34232	41640	
1541	0	34520	34362	41296	
1542	0	34456	34484	40934	
1543	0	34400	34605	40583	
1544	0	34338	34742	40238	
1545	0	34284	34870	39872	
1546	0	34226	35026	39512	
1547	0	34146	35128	39143	
1548	0	34084	35187	38800	
1549	0	34016	35207	38458	
1550	0	33952	35296	38115	
1551	0	33880	35410	37772	
1552	0	33828	35462	37446	
1553	0	33762	35528	37100	
1554	0	33674	35586	36804	
1555	0	33604	35697	36474	
1556	0	33532	35668	36129	
1557	0	33466	35634	35784	
1558	0	33388	35757	35454	
1559	0	33328	35750	35140	
1560	0	33264	35791	34790	
1561	0	33192	35810	34450	
1562	0	33120	35795	34118	
1563	0	33044	35842	33769	
1564	0	32980	35906	33440	
1565	0	32918	35942	33094	
1566	0	32860	35948	32733	
1567	0	32816	35975	32380	
1568	0	32770	36002	32018	
1569	0	32736	36020	31678	
1570	0	32674	36036	31326	
1571	0	32620	36050	30971	
1572	0	32584	36039	30610	
1573	0	32534	35996	30280	
1574	0	32480	35960	29920	
1575	0	32440	35944	29589	
1576	0	32400	35907	29220	
1577	0	32360	35881	28866	
1578	0	32332	35846	28511	
1579	0	32300	35817	28192	
1580	0	32265	35792	27869	
1581	0	32244	35794	27566	
1582	0	32242	35792	27276	
1583	0	32242	35783	26996	
1584	0	32248	35770	26662	
1585	0	32236	35744	26220	
1586	0	32210	35719	25780	
1587	0	32180	35680	25400	
1588	0	32156	35631	25000	
1589	0	32124	35592	24610	
1590	0	32102	35536	24260	
1591	0	32076	35463	23908	
1592	0	32050	35371	23532	
1593	0	32029	35299	23183	
1594	0	32029	35206	22844	
1595	0	32020	35138	22572	
1596	0	32034	35078	22298	
1597	0	32048	35008	21986	
1598	0	32040	34930	21702	
1599	0	32016	34872	21412	
1600	0	31996	34786	21134	
1601	0	31948	34684	20898	
1602	0	31926	34600	20648	
1603	0	31878	34521	20404	
1604	0	31860	34461	20189	
1605	0	31832	34384	19973	
1606	0	31812	34306	19783	
1607	0	31777	34244	19598	
1608	0	31768	34174	19417	
1609	0	31724	34100	19262	
1610	0	31690	34024	19090	
1611	0	31648	33948	18923	
1612	0	31616	33866	18767	
1613	0	31602	33790	18633	
1614	0	31546	33701	18516	
1615	0	31516	33626	18402	
1616	0	31476	33544	18280	
1617	0	31451	33465	18202	
1618	0	31402	33388	18084	
1619	0	31368	33319	17987	
1620	0	31332	33235	17910	
1621	0	31298	33154	17849	
1622	0	31264	33092	17822	
1623	0	31222	33048	17778	
1624	0	31186	33013	17746	
1625	0	31148	32982	17716	
1626	0	31106	32948	17688	
1627	0	31084	32890	17672	
1628	0	31036	32861	17668	
1629	0	31032	32803	17676	
1630	0	30994	32754	17713	
1631	0	30954	32703	17734	
1632	0	30944	32656	17808	
1633	0	30912	32634	17885	
1634	0	30884	32591	17957	
1635	0	30856	32528	18038	
1636	0	30838	32486	18158	
1637	0	30816	32429	18304	
1638	0	30790	32363	18430	
1639	0	30778	32296	18568	
1640	0	30760	32214	18710	
1641	0	30732	32110	18892	
1642	0	30720	32022	19069	
1643	0	30688	31945	19237	
1644	0	30684	31884	19425	
1645	0	30656	31842	19614	
1646	0	30648	31815	19819	
1647	0	30610	31800	20038	
1648	0	30584	31790	20258	
1649	0	30564	31803	20483	
1650	0	30536	31808	20728	
1651	0	30514	31826	20975	
1652	0	30496	31826	21252	
1653	0	30484	31839	21508	
1654	0	30464	31870	21780	
1655	0	30439	31888	22088	
1656	0	30424	31930	22380	
1657	0	30408	31990	22651	
1658	0	30400	32072	22908	
1659	0	30396	32162	23156	
1660	0	30401	32290	23385	
1661	0	30400	32423	23643	
1662	0	30396	32530	23929	
1663	0	30392	32670	24186	
1664	0	30392	32814	24436	
1665	0	30388	32903	24712	
1666	0	30394	32999	24960	
1667	0	30396	33088	25230	
1668	0	30401	33158	25494	
1669	0	30388	33255	25746	
1670	0	30394	33287	26010	
1671	0	30400	33322	26268	
1672	0	30404	33344	26544	
1673	0	30418	33370	26812	
1674	0	30440	33386	27079	
1675	0	30464	33354	27344	
1676	0	30496	33324	27609	
1677	0	30514	33344	27874	
1678	0	30542	33352	28120	
1679	0	30580	33344	28391	
1680	0	30612	33324	28645	
1681	0	30666	33346	28900	
1682	0	30720	33368	29162	
1683	0	30768	33375	29413	
1684	0	30812	33360	29660	
1685	0	30864	33347	29892	
1686	0	30908	33348	30150	
1687	0	30954	33322	30374	
1688	0	31008	33306	30592	
1689	0	31073	33281	30813	
1690	0	31126	33252	31044	
1691	0	31192	33216	31277	
1692	0	31256	33188	31523	
1693	0	31321	33138	31744	
1694	0	31396	33082	31965	
1695	0	31472	33050	32150	
1696	0	31546	33008	32376	
1697	0	31618	32952	32556	
1698	0	31688	32874	32724	
1699	0	31780	32841	32900	
1700	0	31872	32810	33092	
1701	0	31964	32775	33287	
1702	0	32064	32741	33478	
1703	0	32156	32724	33697	
1704	0	32242	32718	33904	
1705	0	32324	32702	34084	
1706	0	32424	32722	34250	
1707	0	32508	32706	34428	
1708	0	32604	32626	34592	
1709	0	32698	32647	34778	
1710	0	32796	32642	34946	
1711	0	32902	32645	35134	
1712	0	33004	32595	35308	
1713	0	33108	32527	35520	
1714	0	33208	32500	35682	
1715	0	33312	32472	35862	
1716	0	33414	32428	36044	
1717	0	33508	32344	36189	
1718	0	33610	32282	36374	
1719	0	33720	32228	36539	
1720	0	33810	32178	36696	
1721	0	33904	32103	36864	
1722	0	34006	32040	37031	
1723	0	34114	31977	37230	
1724	0	34206	31888	37425	
1725	0	34290	31806	37556	
1726	0	34396	31730	37727	
1727	0	34488	31670	37858	
1728	0	34586	31578	38008	
1729	0	34674	31484	38167	
1730	0	34748	31432	38316	
1731	0	34840	31374	38475	
1732	0	34914	31341	38630	
1733	0	34992	31296	38772	
1734	0	35072	31258	38919	
1735	0	35144	31239	39076	
1736	0	35208	31220	39226	
1737	0	35274	31192	39362	
1738	0	35326	31186	39494	
1739	0	35392	31168	39651	
1740	0	35448	31177	39808	
1741	0	35492	31182	39930	
1742	0	35544	31188	40079	
1743	0	35592	31215	40236	
1744	0	35626	31228	40360	
1745	0	35668	31250	40497	
1746	0	35716	31273	40632	
1747	0	35748	31272	40775	
1748	0	35772	31275	40922	
1749	0	35792	31290	41039	
1750	0	35838	31310	41186	
1751	0	35864	31306	41332	
1752	0	35888	31303	41478	
1753	0	35906	31302	41655	
1754	0	35930	31328	41810	
1755	0	35924	31342	41960	
1756	0	35944	31335	42128	
1757	0	35944	31331	42308	
1758	0	35938	31360	42438	
1759	0	35952	31408	42594	
1760	0	35960	31425	42756	
1761	0	35942	31474	42894	
1762	0	35944	31558	43052	
1763	0	35940	31616	43208	
1764	0	35920	31672	43332	
1765	0	35916	31718	43462	
1766	0	35874	31781	43586	
1767	0	35856	31814	43720	
1768	0	35834	31838	43834	
1769	0	35808	31866	43952	
1770	0	35778	31856	44069	
1771	0	35746	31868	44152	
1772	0	35700	31862	44284	
1773	0	35664	31860	44415	
1774	0	35616	31875	44536	
1775	0	35588	31876	44642	
1776	0	35536	31876	44754	
1777	0	35506	31854	44828	
1778	0	35466	31842	44935	
1779	0	35416	31829	45042	
1780	0	35376	31812	45134	
1781	0	35312	31793	45204	
1782	0	35272	31806	45307	
1783	0	35224	31816	45378	
1784	0	35180	31832	45416	
1785	0	35120	31863	45442	
1786	0	35072	31868	45472	
1787	0	35012	31896	45491	
1788	0	34952	31939	45490	
1789	0	34898	31950	45496	
1790	0	34834	31978	45480	
1791	0	34784	31986	45462	
1792	0	34704	32002	45440	
1793	0	34636	32025	45405	
1794	0	34592	32044	45351	
1795	0	34528	32078	45304	
1796	0	34464	32098	45228	
1797	0	34396	32108	45138	
1798	0	34336	32114	45088	
1799	0	34264	32112	44991	
1800	0	34182	32110	44907	
1801	0	34120	32089	44800	
1802	0	34056	32079	44679	
1803	0	33992	32069	44551	
1804	0	33920	32054	44408	
1805	0	33852	32031	44270	
1806	0	33792	32007	44112	
1807	0	33720	32000	43928	
1808	0	33652	31975	43776	
1809	0	33584	31943	43588	
1810	0	33528	31928	43375	
1811	0	33468	31928	43182	
1812	0	33412	31920	42994	
1813	0	33354	31932	42795	
1814	0	33312	31928	42603	
1815	0	33240	31932	42399	
1816	0	33194	31936	42144	
1817	0	33134	31936	41928	
1818	0	33090	31912	41704	
1819	0	33024	31888	41474	
1820	0	32968	31870	41233	
1821	0	32924	31854	40997	
1822	0	32884	31831	40752	
1823	0	32850	31816	40538	
1824	0	32821	31808	40290	
1825	0	32772	31804	40048	
1826	0	32736	31796	39790	
1827	0	32696	31807	39523	
1828	0	32656	31838	39248	
1829	0	32604	31838	38960	
1830	0	32568	31861	38692	
1831	0	32540	31872	38407	
1832	0	32504	31904	38151	
1833	0	32460	31933	37878	
1834	0	32440	31944	37615	
1835	0	32400	31958	37330	
1836	0	32368	31954	37052	
1837	0	32342	31936	36780	
1838	0	32312	31926	36516	
1839	0	32272	31902	36244	
1840	0	32236	31872	35940	
1841	0	32198	31859	35689	
1842	0	32156	31859	35426	
1843	0	32116	31864	35152	
1844	0	32084	31882	34877	
1845	0	32054	31875	34606	
1846	0	32029	31899	34330	
1847	0	32016	31916	34061	
1848	0	31992	31956	33780	
1849	0	31968	32012	33488	
1850	0	31932	32066	33234	
1851	0	31900	32156	32926	
1852	0	31862	32263	32624	
1853	0	31808	32378	32336	
1854	0	31768	32498	32039	
1855	0	31744	32620	31751	
1856	0	31708	32752	31466	
1857	0	31690	32850	31164	
1858	0	31684	32976	30855	
1859	0	31684	33090	30565	
1860	0	31674	33211	30260	
1861	0	31659	33340	29952	
1862	0	31648	33467	29669	
1863	0	31624	33580	29352	
1864	0	31618	33688	29024	
1865	0	31596	33773	28710	
1866	0	31602	33861	28424	
1867	0	31594	33931	28132	
1868	0	31612	34019	27850	
1869	0	31624	34091	27568	
1870	0	31636	34178	27287	
1871	0	31648	34248	27015	
1872	0	31661	34324	26768	
1873	0	31664	34390	26514	
1874	0	31662	34439	26149	
1875	0	31650	34505	25759	
1876	0	31648	34539	25388	
1877	0	31640	34596	25052	
1878	0	31666	34627	24724	
1879	0	31690	34675	24382	
1880	0	31692	34710	24054	
1881	0	31728	34732	23720	
1882	0	31748	34748	23426	
1883	0	31742	34777	23112	
1884	0	31756	34794	22812	
1885	0	31764	34780	22512	
1886	0	31770	34772	22226	
1887	0	31788	34750	21904	
1888	0	31776	34704	21616	
1889	0	31788	34664	21317	
1890	0	31792	34587	21030	
1891	0	31800	34514	20780	
1892	0	31803	34436	20523	
1893	0	31796	34365	20270	
1894	0	31796	34287	20038	
1895	0	31776	34206	19806	
1896	0	31784	34121	19578	
1897	0	31778	34047	19352	
1898	0	31760	33976	19133	
1899	0	31748	33910	18916	
1900	0	31728	33832	18730	
1901	0	31696	33730	18566	
1902	0	31672	33637	18380	
1903	0	31650	33540	18219	
1904	0	31632	33426	18094	
1905	0	31589	33322	17972	
1906	0	31568	33222	17851	
1907	0	31528	33120	17748	
1908	0	31490	33035	17611	
1909	0	31448	32966	17522	
1910	0	31412	32882	17451	
1911	0	31366	32802	17377	
1912	0	31336	32726	17343	
1913	0	31296	32674	17314	
1914	0	31253	32646	17274	
1915	0	31210	32612	17250	
1916	0	31172	32516	17281	
1917	0	31140	32472	17308	
1918	0	31096	32508	17313	
1919	0	31048	32487	17370	
1920	0	31008	32491	17436	
1921	0	30968	32463	17520	
1922	0	30926	32474	17632	
1923	0	30880	32523	17768	
1924	0	30844	32551	17915	
1925	0	30808	32562	18035	
1926	0	30768	32592	18196	
1927	0	30722	32675	18357	
1928	0	30688	32770	18536	
1929	0	30648	32844	18736	
1930	0	30610	32940	18951	
1931	0	30572	33037	19176	
1932	0	30560	33116	19420	
1933	0	30538	33188	19636	
1934	0	30512	33264	19878	
1935	0	30476	33337	20149	
1936	0	30458	33432	20421	
1937	0	30444	33502	20706	
1938	0	30442	33560	21002	
1939	0	30424	33623	21292	
1940	0	30412	33650	21632	
1941	0	30388	33671	21974	
1942	0	30394	33704	22295	
1943	0	30410	33701	22588	
1944	0	30408	33690	22859	
1945	0	30404	33671	23122	
1946	0	30420	33650	23383	
1947	0	30428	33639	23663	
1948	0	30448	33652	23941	
1949	0	30464	33680	24210	
1950	0	30478	33677	24512	
1951	0	30499	33700	24814	
1952	0	30540	33734	25130	
1953	0	30571	33794	25436	
1954	0	30606	33857	25771	
1955	0	30634	33890	26096	
1956	0	30666	33937	26424	
1957	0	30704	34006	26728	
1958	0	30740	34040	27046	
1959	0	30784	34075	27356	
1960	0	30824	34072	27650	
1961	0	30870	34080	27946	
1962	0	30912	34083	28272	
1963	0	30968	34062	28578	
1964	0	30992	34024	28876	
1965	0	31048	33984	29176	
1966	0	31104	33922	29460	
1967	0	31150	33840	29752	
1968	0	31216	33747	30024	
1969	0	31256	33650	30306	
1970	0	31302	33562	30584	
1971	0	31357	33492	30852	
1972	0	31404	33458	31145	
1973	0	31466	33411	31430	
1974	0	31544	33371	31714	
1975	0	31584	33369	32016	
1976	0	31644	33368	32303	
1977	0	31700	33398	32582	
1978	0	31776	33410	32872	
1979	0	31840	33464	33156	
1980	0	31904	33502	33444	
1981	0	31968	33541	33728	
1982	0	32044	33562	34014	
1983	0	32104	33584	34282	
1984	0	32176	33599	34575	
1985	0	32240	33621	34872	
1986	0	32308	33662	35132	
1987	0	32385	33689	35426	
1988	0	32452	33762	35700	
1989	0	32524	33790	35975	
1990	0	32580	33832	36268	
1991	0	32648	33903	36570	
1992	0	32730	33946	36874	
1993	0	32818	34027	37181	
1994	0	32890	34122	37502	
1995	0	32981	34214	37784	
1996	0	33064	34327	38129	
1997	0	33146	34400	38444	
1998	0	33232	34466	38742	
1999	0	33312	34570	39073	
2000	0	33392	34688	39414	
2001	0	33478	34759	39685	
2002	0	33568	34870	40015	
2003	0	33662	34982	40336	
2004	0	33762	35078	40675	
2005	0	33864	35186	40987	
2006	0	33972	35268	41312	
2007	0	34072	35315	41592	
2008	0	34158	35396	41914	
2009	0	34256	35450	42208	
2010	0	34372	35468	42498	
2011	0	34466	35487	42804	
2012	0	34581	35512	43104	
2013	0	34688	35515	43407	
2014	0	34792	35510	43720	
2015	0	34920	35492	44008	
2016	0	35040	35463	44304	
2017	0	35140	35490	44576	
2018	0	35240	35458	44832	
2019	0	35348	35419	45090	
2020	0	35460	35381	45364	
2021	0	35554	35354	45638	
2022	0	35672	35298	45891	
2023	0	35770	35296	46162	
2024	0	35880	35301	46421	
2025	0	35964	35118	46674	
2026	0	36060	34912	46894	
2027	0	36166	34842	47154	
2028	0	36242	34798	47364	
2029	0	36352	34716	47539	
2030	0	36442	34642	47672	
2031	0	36522	34594	47832	
2032	0	36608	34574	47994	
2033	0	36676	34538	48155	
2034	0	36748	34478	48276	
2035	0	36816	34424	48400	
2036	0	36888	34360	48540	
2037	0	36964	34311	48640	
2038	0	37028	34275	48723	
2039	0	37092	34218	48824	
2040	0	37152	34171	48900	
2041	0	37208	34112	48972	
2042	0	37264	34058	49040	
2043	0	37302	34014	49078	
2044	0	37338	33984	49110	
2045	0	37364	33963	49106	
2046	0	37408	33936	49095	
2047	0	37424	33906	49086	
2048	0	37448	33894	49043	
2049	0	37476	33848	48967	
2050	0	37484	33825	48864	
2051	0	37502	33790	48756	
2052	0	37500	33790	48643	
2053	0	37496	33773	48510	
2054	0	37490	33759	48376	
2055	0	37464	33735	48218	
2056	0	37418	33720	48026	
2057	0	37376	33697	47855	
2058	0	37328	33665	47670	
2059	0	37272	33618	47462	
2060	0	37208	33566	47234	
2061	0	37148	33504	47014	
2062	0	37072	33462	46790	
2063	0	36994	33415	46559	
2064	0	36914	33381	46310	
2065	0	36808	33346	46036	
2066	0	36704	33332	45746	
2067	0	36592	33323	45484	
2068	0	36484	33316	45191	
2069	0	36368	33331	44891	
2070	0	36276	33337	44586	
2071	0	36152	33379	44275	
2072	0	36024	33424	43973	
2073	0	35912	33482	43647	
2074	0	35792	33534	43323	
2075	0	35660	33610	43006	
2076	0	35526	33662	42704	
2077	0	35396	33718	42356	
2078	0	35264	33794	42032	
2079	0	35122	33861	41696	
2080	0	34986	33946	41377	
2081	0	34848	34038	41053	
2082	0	34720	34128	40733	
2083	0	34572	34226	40421	
2084	0	34428	34311	40066	
2085	0	34288	34413	39751	
2086	0	34160	34514	39396	
2087	0	34008	34620	39058	
2088	0	33878	34711	38727	
2089	0	33720	34802	38359	
2090	0	33562	34913	38018	
2091	0	33426	35032	37662	
2092	0	33270	35154	37307	
2093	0	33120	35280	36976	
2094	0	32978	35408	36631	
2095	0	32834	35522	36304	
2096	0	32688	35638	35910	
2097	0	32558	35771	35556	
2098	0	32422	35902	35239	
2099	0	32290	36039	34882	
2100	0	32144	36189	34524	
2101	0	32002	36355	34172	
2102	0	31854	36520	33799	
2103	0	31726	36702	33445	
2104	0	31604	36869	33094	
2105	0	31480	37044	32712	
2106	0	31358	37224	32357	
2107	0	31248	37401	31994	
2108	0	31132	37615	31616	
2109	0	31010	37799	31239	
2110	0	30900	37988	30838	
2111	0	30780	38174	30456	
2112	0	30692	38368	30047	
2113	0	30616	38548	29652	
2114	0	30552	38714	29250	
2115	0	30472	38885	28873	
2116	0	30408	39042	28482	
2117	0	30372	39216	28134	
2118	0	30320	39373	27783	
2119	0	30268	39568	27446	
2120	0	30236	39736	26995	
2121	0	30184	39903	26459	
2122	0	30160	40067	25971	
2123	0	30112	40235	25442	
2124	0	30096	40374	24972	
2125	0	30084	40534	24494	
2126	0	30096	40680	24004	
2127	0	30090	40812	23537	
2128	0	30088	40904	23034	
2129	0	30090	40987	22543	
2130	0	30104	41030	22070	
2131	0	30102	41071	21573	
2132	0	30108	41112	21102	
2133	0	30124	41127	20645	
2134	0	30140	41142	20196	
2135	0	30170	41104	19754	
2136	0	30188	41078	19301	
2137	0	30214	41004	18882	
2138	0	30202	40910	18451	
2139	0	30224	40796	18024	
2140	0	30224	40644	17602	
2141	0	30224	40453	17209	
2142	0	30204	40264	16825	
2143	0	30208	40066	16467	
2144	0	30226	39868	16144	
2145	0	30232	39678	15794	
2146	0	30248	39464	15478	
2147	0	30256	39239	15172	
2148	0	30242	39015	14888	
2149	0	30248	38783	14626	
2150	0	30224	38528	14370	
2151	0	30204	38290	14115	
2152	0	30192	38070	13880	
2153	0	30180	37851	13661	
2154	0	30200	37636	13474	
2155	0	30203	37446	13333	
2156	0	30200	37242	13173	
2157	0	30192	37042	13040	
2158	0	30192	36838	12897	
2159	0	30194	36632	12784	
2160	0	30182	36431	12702	
2161	0	30170	36236	12631	
2162	0	30188	36022	12583	
2163	0	30203	35826	12531	
2164	0	30210	35690	12509	
2165	0	30212	35560	12536	
2166	0	30218	35492	12559	
2167	0	30236	35468	12613	
2168	0	30273	35452	12680	
2169	0	30308	35463	12780	
2170	0	30340	35498	12901	
2171	0	30376	35535	13072	
2172	0	30406	35562	13233	
2173	0	30440	35579	13413	
2174	0	30472	35592	13621	
2175	0	30520	35602	13864	
2176	0	30552	35626	14124	
2177	0	30610	35560	14404	
2178	0	30652	35498	14735	
2179	0	30704	35616	15030	
2180	0	30762	35682	15370	
2181	0	30818	35782	15757	
2182	0	30880	35826	16185	
2183	0	30944	35914	16642	
2184	0	31002	36036	17075	
2185	0	31065	36135	17507	
2186	0	31133	36156	17920	
2187	0	31188	36172	18392	
2188	0	31244	36243	18832	
2189	0	31288	36370	19283	
2190	0	31328	36487	19750	
2191	0	31388	36587	20280	
2192	0	31432	36710	20812	
2193	0	31501	36810	21297	
2194	0	31556	36901	21760	
2195	0	31604	36995	22185	
2196	0	31656	37056	22602	
2197	0	31704	37054	23032	
2198	0	31750	37012	23447	
2199	0	31788	36962	23867	
2200	0	31824	36931	24288	
2201	0	31864	36910	24718	
2202	0	31908	36871	25124	
2203	0	31938	36844	25530	
2204	0	31986	36811	25945	
2205	0	32010	36817	26350	
2206	0	32040	36866	26763	
2207	0	32080	36861	27180	
2208	0	32114	36844	27570	
2209	0	32148	36858	27952	
2210	0	32176	36866	28347	
2211	0	32208	36918	28706	
2212	0	32240	36885	29101	
2213	0	32296	36864	29474	
2214	0	32330	36792	29821	
2215	0	32368	36756	30181	
2216	0	32396	36679	30552	
2217	0	32440	36652	30904	
2218	0	32488	36626	31230	
2219	0	32536	36614	31573	
2220	0	32570	36569	31896	
2221	0	32620	36530	32246	
2222	0	32664	36581	32581	
2223	0	32706	36634	32903	
2224	0	32740	36600	33226	
2225	0	32774	36531	33556	
2226	0	32802	36498	33852	
2227	0	32848	36496	34144	
2228	0	32892	36460	34466	
2229	0	32914	36416	34752	
2230	0	32956	36370	35037	
2231	0	33012	36372	35334	
2232	0	33052	36372	35624	
2233	0	33100	36314	35903	
2234	0	33136	36292	36189	
2235	0	33200	36299	36460	
2236	0	33248	36359	36752	
2237	0	33309	36376	37061	
2238	0	33376	36387	37364	
2239	0	33441	36389	37674	
2240	0	33520	36410	37976	
2241	0	33568	36421	38285	
2242	0	33648	36474	38599	
2243	0	33728	36539	38884	
2244	0	33798	36603	39196	
2245	0	33870	36635	39463	
2246	0	33954	36679	39736	
2247	0	34024	36734	40000	
2248	0	34096	36790	40292	
2249	0	34186	36857	40558	
2250	0	34258	36901	40852	
2251	0	34352	36920	41114	
2252	0	34438	36935	41394	
2253	0	34528	36898	41711	
2254	0	34626	36871	41982	
2255	0	34708	36871	42272	
2256	0	34814	36818	42542	
2257	0	34922	36772	42823	
2258	0	34997	36713	43098	
2259	0	35092	36674	43352	
2260	0	35178	36632	43598	
2261	0	35264	36550	43858	
2262	0	35352	36506	44114	
2263	0	35448	36440	44376	
2264	0	35530	36396	44662	
2265	0	35618	36338	44903	
2266	0	35714	36280	45163	
2267	0	35792	36226	45404	
2268	0	35862	36166	45634	
2269	0	35948	36068	45872	
2270	0	36012	35990	46126	
2271	0	36082	35866	46353	
2272	0	36160	35766	46584	
2273	0	36234	35576	46854	
2274	0	36288	35403	47102	
2275	0	36359	35222	47356	
2276	0	36436	35028	47613	
2277	0	36500	34823	47850	
2278	0	36556	34634	48086	
2279	0	36616	34476	48270	
2280	0	36684	34338	48474	
2281	0	36732	34214	48647	
2282	0	36788	34092	48775	
2283	0	36834	33998	48929	
2284	0	36872	33912	49046	
2285	0	36901	33816	49138	
2286	0	36932	33725	49222	
2287	0	36960	33642	49292	
2288	0	36964	33546	49336	
2289	0	36978	33474	49346	
2290	0	36972	33387	49356	
2291	0	36960	33312	49362	
2292	0	36952	33252	49315	
2293	0	36948	33199	49248	
2294	0	36912	33164	49159	
2295	0	36882	33130	49068	
2296	0	36828	33110	48951	
2297	0	36792	33084	48840	
2298	0	36740	33060	48690	
2299	0	36668	33062	48519	
2300	0	36604	33060	48355	
2301	0	36536	33054	48173	
2302	0	36458	33048	47972	
2303	0	36380	33054	47762	
2304	0	36312	33048	47543	
2305	0	36210	33064	47294	
2306	0	36108	33088	47042	
2307	0	36018	33104	46808	
2308	0	35912	33114	46528	
2309	0	35800	33156	46234	
2310	0	35688	33174	45968	
2311	0	35576	33226	45703	
2312	0	35474	33258	45439	
2313	0	35348	33306	45154	
2314	0	35232	33336	44890	
2315	0	35128	33360	44598	
2316	0	34992	33410	44292	
2317	0	34880	33451	44011	
2318	0	34788	33497	43712	
2319	0	34658	33550	43414	
2320	0	34536	33601	43100	
2321	0	34428	33666	42832	
2322	0	34312	33722	42503	
2323	0	34192	33794	42186	
2324	0	34084	33855	41862	
2325	0	33952	33890	41512	
2326	0	33840	33914	41190	
2327	0	33706	33940	40880	
2328	0	33600	33952	40550	
2329	0	33498	33952	40244	
2330	0	33368	33976	39904	
2331	0	33272	33982	39588	
2332	0	33156	34018	39244	
2333	0	33044	34072	38917	
2334	0	32928	34098	38550	
2335	0	32826	34109	38219	
2336	0	32728	34108	37890	
2337	0	32616	34096	37562	
2338	0	32528	34080	37243	
2339	0	32416	34040	36930	
2340	0	32318	34002	36608	
2341	0	32220	33970	36315	
2342	0	32120	33949	36012	
2343	0	32005	33920	35702	
2344	0	31896	33890	35384	
2345	0	31824	33858	35086	
2346	0	31738	33868	34794	
2347	0	31636	33874	34503	
2348	0	31554	33890	34173	
2349	0	31468	33952	33910	
2350	0	31386	34002	33595	
2351	0	31304	34096	33287	
2352	0	31232	34208	32966	
2353	0	31160	34339	32691	
2354	0	31080	34466	32380	
2355	0	31012	34596	32050	
2356	0	30962	34746	31726	
2357	0	30906	34886	31409	
2358	0	30842	35024	31078	
2359	0	30796	35178	30752	
2360	0	30742	35330	30414	
2361	0	30688	35502	30077	
2362	0	30630	35664	29733	
2363	0	30592	35827	29417	
2364	0	30560	36000	29094	
2365	0	30538	36162	28754	
2366	0	30536	36324	28411	
2367	0	30532	36502	28072	
2368	0	30520	36700	27740	
2369	0	30536	36892	27426	
2370	0	30546	37080	27129	
2371	0	30540	37282	26836	
2372	0	30560	37476	26434	
2373	0	30560	37669	25981	
2374	0	30584	37845	25548	
2375	0	30606	37998	25112	
2376	0	30640	38118	24733	
2377	0	30672	38222	24302	
2378	0	30728	38302	23896	
2379	0	30788	38406	23490	
2380	0	30852	38477	23108	
2381	0	30904	38515	22708	
2382	0	30984	38560	22314	
2383	0	31036	38558	21921	
2384	0	31096	38557	21539	
2385	0	31168	38568	21132	
2386	0	31244	38563	20750	
2387	0	31319	38548	20384	
2388	0	31402	38523	20016	
2389	0	31488	38491	19680	
2390	0	31560	38427	19288	
2391	0	31636	38320	18944	
2392	0	31716	38258	18624	
2393	0	31800	38151	18319	
2394	0	31904	38022	17997	
2395	0	31972	37889	17672	
2396	0	32068	37728	17374	
2397	0	32140	37603	17113	
2398	0	32222	37476	16860	
2399	0	32302	37346	16626	
2400	0	32391	37212	16401	
2401	0	32484	37051	16166	
2402	0	32560	36866	15952	
2403	0	32632	36670	15759	
2404	0	32712	36448	15576	
2405	0	32788	36249	15403	
2406	0	32857	36056	15228	
2407	0	32928	35876	15074	
2408	0	33018	35704	14944	
2409	0	33104	35551	14816	
2410	0	33186	35411	14735	
2411	0	33242	35272	14671	
2412	0	33306	35150	14627	
2413	0	33390	35022	14584	
2414	0	33464	34888	14556	
2415	0	33524	34763	14523	
2416	0	33616	34626	14531	
2417	0	33672	34504	14556	
2418	0	33740	34384	14594	
2419	0	33804	34276	14678	
2420	0	33864	34162	14756	
2421	0	33926	34074	14874	
2422	0	33970	33976	14997	
2423	0	34034	33889	15149	
2424	0	34080	33812	15302	
2425	0	34120	33728	15494	
2426	0	34154	33664	15684	
2427	0	34188	33614	15914	
2428	0	34216	33603	16154	
2429	0	34243	33614	16399	
2430	0	34264	33647	16699	
2431	0	34282	33700	16996	
2432	0	34288	33765	17328	
2433	0	34282	33858	17679	
2434	0	34267	33948	18037	
2435	0	34264	34016	18378	
2436	0	34244	34092	18730	
2437	0	34232	34166	19058	
2438	0	34204	34215	19439	
2439	0	34176	34256	19810	
2440	0	34136	34303	20146	
2441	0	34100	34340	20580	
2442	0	34068	34370	21045	
2443	0	34024	34388	21456	
2444	0	33980	34424	21844	
2445	0	33928	34452	22210	
2446	0	33876	34478	22549	
2447	0	33832	34494	22888	
2448	0	33784	34514	23212	
2449	0	33738	34534	23556	
2450	0	33672	34563	23894	
2451	0	33624	34594	24236	
2452	0	33564	34620	24600	
2453	0	33504	34648	24955	
2454	0	33464	34678	25313	
2455	0	33412	34695	25664	
2456	0	33360	34727	26018	
2457	0	33300	34750	26367	
2458	0	33242	34775	26714	
2459	0	33180	34799	27058	
2460	0	33121	34849	27391	
2461	0	33068	34870	27760	
2462	0	33000	34742	28100	
2463	0	32954	34702	28450	
2464	0	32900	34770	28775	
2465	0	32864	34930	29073	
2466	0	32808	34920	29412	
2467	0	32746	34774	29744	
2468	0	32698	34730	30094	
2469	0	32642	34746	30431	
2470	0	32605	34695	30753	
2471	0	32566	34624	31060	
2472	0	32524	34601	31357	
2473	0	32476	34608	31694	
2474	0	32448	34655	32010	
2475	0	32400	34724	32319	
2476	0	32376	34823	32647	
2477	0	32344	34914	32974	
2478	0	32298	34980	33302	
2479	0	32248	35054	33628	
2480	0	32222	35092	33986	
2481	0	32192	35116	34334	
2482	0	32168	35140	34662	
2483	0	32148	35171	34992	
2484	0	32136	35230	35312	
2485	0	32120	35296	35640	
2486	0	32118	35384	35960	
2487	0	32120	35495	36294	
2488	0	32112	35574	36636	
2489	0	32106	35668	36986	
2490	0	32096	35770	37312	
2491	0	32108	35870	37673	
2492	0	32118	36038	38023	
2493	0	32136	36179	38380	
2494	0	32196	36244	38762	
2495	0	32238	36338	39111	
2496	0	32274	36431	39494	
2497	0	32324	36512	39866	
2498	0	32374	36575	40230	
2499	0	32444	36620	40610	
2500	0	32506	36683	40967	
2501	0	32576	36699	41351	
2502	0	32672	36743	41708	
2503	0	32764	36784	42082	
2504	0	32874	36839	42428	
2505	0	32976	36821	42782	
2506	0	33088	36770	43128	
2507	0	33216	36708	43459	
2508	0	33328	36656	43788	
2509	0	33458	36546	44164	
2510	0	33586	36444	44478	
2511	0	33706	36344	44794	
2512	0	33840	36228	45136	
2513	0	33992	36069	45474	
2514	0	34122	35908	45812	
2515	0	34266	35730	46119	
2516	0	34396	35567	46432	
2517	0	34538	35382	46723	
2518	0	34690	35194	47010	
2519	0	34823	35008	47282	
2520	0	34948	34838	47547	
2521	0	35116	34666	47792	
2522	0	35272	34490	48007	
2523	0	35400	34322	48263	
2524	0	35548	34154	48454	
2525	0	35672	33990	48676	
2526	0	35796	33831	48840	
2527	0	35914	33666	48983	
2528	0	36044	33514	49108	
2529	0	36160	33370	49224	
2530	0	36250	33208	49336	
2531	0	36356	33068	49434	
2532	0	36462	32927	49494	
2533	0	36556	32798	49526	
2534	0	36664	32674	49572	
2535	0	36748	32562	49616	
2536	0	36828	32477	49612	
2537	0	36900	32391	49579	
2538	0	36952	32345	49554	
2539	0	37002	32312	49482	
2540	0	37052	32296	49369	
2541	0	37104	32294	49252	
2542	0	37137	32304	49136	
2543	0	37172	32318	48998	
2544	0	37200	32323	48846	
2545	0	37200	32333	48647	
2546	0	37200	32340	48446	
2547	0	37190	32355	48226	
2548	0	37178	32366	47995	
2549	0	37144	32388	47736	
2550	0	37100	32416	47480	
2551	0	37060	32460	47211	
2552	0	37004	32496	46927	
2553	0	36961	32562	46618	
2554	0	36876	32617	46311	
2555	0	36810	32676	45986	
2556	0	36736	32733	45661	
2557	0	36648	32784	45314	
2558	0	36572	32816	44978	
2559	0	36486	32840	44631	
2560	0	36392	32868	44266	
2561	0	36292	32908	43947	
2562	0	36180	32934	43616	
2563	0	36076	32968	43282	
2564	0	35964	32996	42966	
2565	0	35846	33022	42624	
2566	0	35754	33071	42262	
2567	0	35624	33110	41938	
2568	0	35498	33152	41590	
2569	0	35388	33208	41234	
2570	0	35264	33252	40860	
2571	0	35140	33312	40492	
2572	0	35016	33382	40124	
2573	0	34900	33440	39764	
2574	0	34768	33508	39410	
2575	0	34642	33566	39043	
2576	0	34524	33620	38684	
2577	0	34404	33692	38305	
2578	0	34290	33736	37983	
2579	0	34156	33794	37617	
2580	0	34028	33845	37255	
2581	0	33908	33880	36935	
2582	0	33798	33927	36598	
2583	0	33670	33982	36252	
2584	0	33546	34026	35888	
2585	0	33418	34096	35522	
2586	0	33304	34166	35165	
2587	0	33172	34232	34784	
2588	0	33052	34302	34431	
2589	0	32932	34374	34070	
2590	0	32826	34470	33718	
2591	0	32698	34583	33374	
2592	0	32584	34694	33036	
2593	0	32492	34805	32698	
2594	0	32392	34950	32375	
2595	0	32300	35083	32044	
2596	0	32200	35234	31708	
2597	0	32090	35401	31360	
2598	0	31994	35544	30984	
2599	0	31904	35702	30622	
2600	0	31800	35847	30266	
2601	0	31708	36013	29896	
2602	0	31643	36154	29554	
2603	0	31568	36287	29214	
2604	0	31497	36434	28870	
2605	0	31432	36560	28528	
2606	0	31382	36706	28202	
2607	0	31304	36856	27858	
2608	0	31244	36967	27532	
2609	0	31192	37057	27214	
2610	0	31137	37152	26858	
2611	0	31098	37264	26361	
2612	0	31092	37418	25915	
2613	0	31085	37567	25502	
2614	0	31056	37727	25072	
2615	0	31042	37886	24680	
2616	0	31022	38035	24251	
2617	0	31008	38162	23826	
2618	0	30990	38270	23424	
2619	0	30956	38380	22990	
2620	0	30946	38450	22558	
2621	0	30964	38516	22134	
2622	0	30948	38555	21720	
2623	0	30960	38604	21309	
2624	0	30948	38697	20930	
2625	0	30972	38760	20555	
2626	0	30982	38802	20171	
2627	0	30998	38824	19794	
2628	0	31005	38826	19404	
2629	0	30994	38791	19013	
2630	0	30978	38717	18636	
2631	0	30978	38623	18264	
2632	0	30968	38500	17908	
2633	0	30956	38399	17567	
2634	0	30942	38292	17238	
2635	0	30936	38197	16938	
2636	0	30950	38067	16633	
2637	0	30949	37957	16345	
2638	0	30945	37848	16074	
2639	0	30952	37712	15806	
2640	0	30944	37600	15563	
2641	0	30940	37451	15332	
2642	0	30932	37302	15108	
2643	0	30924	37134	14879	
2644	0	30928	36957	14680	
2645	0	30916	36782	14484	
2646	0	30900	36598	14291	
2647	0	30906	36425	14128	
2648	0	30904	36238	13983	
2649	0	30890	36066	13846	
2650	0	30890	35899	13732	
2651	0	30888	35722	13642	
2652	0	30896	35564	13578	
2653	0	30898	35412	13536	
2654	0	30908	35264	13505	
2655	0	30914	35140	13488	
2656	0	30928	35030	13496	
2657	0	30928	34942	13526	
2658	0	30945	34856	13589	
2659	0	30948	34799	13670	
2660	0	30981	34747	13762	
2661	0	31000	34702	13887	
2662	0	31026	34668	14041	
2663	0	31056	34662	14224	
2664	0	31073	34654	14433	
2665	0	31108	34661	14650	
2666	0	31116	34680	14885	
2667	0	31160	34702	15158	
2668	0	31184	34746	15450	
2669	0	31212	34776	15760	
2670	0	31243	34808	16068	
2671	0	31296	34862	16426	
2672	0	31332	34888	16781	
2673	0	31364	34926	17166	
2674	0	31400	34956	17538	
2675	0	31412	34985	17949	
2676	0	31456	35013	18332	
2677	0	31484	35022	18712	
2678	0	31526	35028	19096	
2679	0	31532	35034	19520	
2680	0	31576	35022	19921	
2681	0	31602	35004	20380	
2682	0	31628	34989	20867	
2683	0	31662	34982	21338	
2684	0	31660	34989	21757	
2685	0	31680	34986	22154	
2686	0	31712	34998	22544	
2687	0	31723	35140	22927	
2688	0	31738	35164	23302	
2689	0	31768	35115	23724	
2690	0	31784	35024	24144	
2691	0	31816	35122	24545	
2692	0	31844	35315	24936	
2693	0	31872	35430	25360	
2694	0	31904	35385	25762	
2695	0	31924	35316	26200	
2696	0	31946	35368	26616	
2697	0	31968	35448	27016	
2698	0	31992	35446	27400	
2699	0	32013	35400	27806	
2700	0	32042	35440	28185	
2701	0	32060	35567	28576	
2702	0	32080	35692	28962	
2703	0	32092	35846	29354	
2704	0	32128	36015	29760	
2705	0	32162	36148	30155	
2706	0	32210	36280	30570	
2707	0	32242	36394	30991	
2708	0	32272	36479	31362	
2709	0	32304	36486	31751	
2710	0	32340	36502	32135	
2711	0	32384	36538	32489	
2712	0	32432	36558	32869	
2713	0	32494	36555	33232	
2714	0	32552	36586	33618	
2715	0	32608	36608	33987	
2716	0	32668	36648	34373	
2717	0	32730	36709	34746	
2718	0	32796	36806	35114	
2719	0	32866	36920	35463	
2720	0	32938	37031	35800	
2721	0	33008	37142	36178	
2722	0	33096	37272	36546	
2723	0	33184	37372	36922	
2724	0	33268	37460	37298	
2725	0	33364	37556	37681	
2726	0	33464	37645	38046	
2727	0	33576	37718	38430	
2728	0	33684	37733	38791	
2729	0	33804	37778	39144	
2730	0	33933	37820	39514	
2731	0	34056	37884	39910	
2732	0	34208	37925	40280	
2733	0	34352	37984	40644	
2734	0	34494	38032	41016	
2735	0	34632	38078	41378	
2736	0	34784	38114	41730	
2737	0	34930	38122	42112	
2738	0	35088	38129	42480	
2739	0	35232	38121	42874	
2740	0	35402	38094	43228	
2741	0	35584	38064	43580	
2742	0	35752	38010	43943	
2743	0	35914	37962	44274	
2744	0	36080	37862	44614	
2745	0	36232	37760	44972	
2746	0	36392	37645	45300	
2747	0	36568	37511	45651	
2748	0	36708	37373	45994	
2749	0	36860	37220	46296	
2750	0	37024	37046	46646	
2751	0	37187	36892	46983	
2752	0	37340	36724	47275	
2753	0	37480	36546	47578	
2754	0	37620	36359	47880	
2755	0	37760	36167	48134	
2756	0	37906	35948	48414	
2757	0	38024	35755	48636	
2758	0	38146	35534	48902	
2759	0	38266	35318	49095	
2760	0	38376	35109	49310	
2761	0	38485	34918	49494	
2762	0	38580	34732	49663	
2763	0	38662	34554	49824	
2764	0	38746	34356	49938	
2765	0	38824	34187	50055	
2766	0	38873	34010	50128	
2767	0	38940	33849	50232	
2768	0	38972	33692	50298	
2769	0	38992	33557	50332	
2770	0	39026	33438	50368	
2771	0	39042	33327	50374	
2772	0	39050	33231	50337	
2773	0	39048	33166	50280	
2774	0	39048	33096	50218	
2775	0	39022	33074	50119	
2776	0	38992	33056	49988	
2777	0	38956	33060	49846	
2778	0	38912	33066	49671	
2779	0	38857	33090	49480	
2780	0	38792	33124	49250	
2781	0	38708	33158	49019	
2782	0	38626	33228	48768	
2783	0	38538	33260	48504	
2784	0	38434	33296	48220	
2785	0	38288	33355	47901	
2786	0	38168	33402	47588	
2787	0	38032	33446	47239	
2788	0	37888	33490	46898	
2789	0	37732	33542	46556	
2790	0	37578	33584	46200	
2791	0	37424	33638	45844	
2792	0	37280	33680	45474	
2793	0	37116	33728	45106	
2794	0	36944	33771	44737	
2795	0	36781	33828	44378	
2796	0	36616	33863	43997	
2797	0	36434	33902	43655	
2798	0	36258	33936	43289	
2799	0	36088	33964	42916	
2800	0	35916	34012	42555	
2801	0	35744	34066	42204	
2802	0	35572	34127	41836	
2803	0	35408	34169	41478	
2804	0	35216	34222	41100	
2805	0	35042	34290	40738	
2806	0	34866	34346	40352	
2807	0	34696	34396	39968	
2808	0	34512	34466	39581	
2809	0	34346	34525	39202	
2810	0	34168	34582	38824	
2811	0	33997	34669	38437	
2812	0	33832	34763	38074	
2813	0	33660	34862	37692	
2814	0	33496	34951	37298	
2815	0	33328	35034	36936	
2816	0	33170	35119	36572	
2817	0	33014	35182	36198	
2818	0	32858	35248	35832	
2819	0	32712	35322	35479	
2820	0	32568	35394	35120	
2821	0	32428	35486	34766	
2822	0	32296	35590	34396	
2823	0	32138	35712	34038	
2824	0	32000	35808	33656	
2825	0	31864	35926	33286	
2826	0	31742	36070	32922	
2827	0	31608	36184	32553	
2828	0	31500	36312	32174	
2829	0	31384	36466	31825	
2830	0	31268	36622	31449	
2831	0	31154	36806	31076	
2832	0	31056	36996	30726	
2833	0	30941	37188	30343	
2834	0	30844	37369	29986	
2835	0	30755	37574	29600	
2836	0	30684	37790	29235	
2837	0	30612	38000	28861	
2838	0	30544	38219	28490	
2839	0	30488	38435	28130	
2840	0	30434	38646	27792	
2841	0	30378	38855	27470	
2842	0	30350	39022	27113	
2843	0	30309	39175	26566	
2844	0	30268	39334	26040	
2845	0	30252	39494	25555	
2846	0	30242	39660	25088	
2847	0	30240	39836	24626	
2848	0	30242	39994	24178	
2849	0	30246	40152	23731	
2850	0	30256	40297	23274	
2851	0	30264	40432	22828	
2852	0	30282	40542	22374	
2853	0	30292	40610	21918	
2854	0	30288	40650	21447	
2855	0	30313	40624	20984	
2856	0	30309	40657	20517	
2857	0	30352	40668	20070	
2858	0	30384	40735	19650	
2859	0	30420	40757	19238	
2860	0	30450	40756	18852	
2861	0	30498	40760	18450	
2862	0	30528	40711	18052	
2863	0	30558	40610	17662	
2864	0	30560	40500	17244	
2865	0	30568	40376	16854	
2866	0	30584	40218	16506	
2867	0	30592	40045	16136	
2868	0	30608	39870	15794	
2869	0	30632	39670	15449	
2870	0	30648	39498	15104	
2871	0	30664	39296	14814	
2872	0	30683	39094	14532	
2873	0	30704	38915	14242	
2874	0	30708	38700	13980	
2875	0	30720	38503	13739	
2876	0	30724	38298	13496	
2877	0	30740	38086	13288	
2878	0	30760	37869	13095	
2879	0	30800	37620	12910	
2880	0	30824	37392	12741	
2881	0	30850	37142	12612	
2882	0	30874	36934	12500	
2883	0	30908	36725	12398	
2884	0	30924	36550	12343	
2885	0	30952	36386	12308	
2886	0	30988	36230	12268	
2887	0	31026	36072	12240	
2888	0	31064	35946	12253	
2889	0	31110	35826	12288	
2890	0	31152	35719	12364	
2891	0	31212	35632	12451	
2892	0	31254	35574	12588	
2893	0	31317	35548	12749	
2894	0	31384	35516	12941	
2895	0	31450	35514	13145	
2896	0	31510	35517	13368	
2897	0	31556	35528	13638	
2898	0	31612	35544	13935	
2899	0	31680	35586	14262	
2900	0	31756	35624	14627	
2901	0	31816	35690	14994	
2902	0	31876	35734	15383	
2903	0	31942	35787	15794	
2904	0	32004	35840	16218	
2905	0	32060	35906	16637	
2906	0	32112	35984	17093	
2907	0	32168	36043	17536	
2908	0	32212	36130	17974	
2909	0	32268	36203	18414	
2910	0	32320	36263	18876	
2911	0	32354	36342	19346	
2912	0	32384	36408	19821	
2913	0	32416	36462	20367	
2914	0	32440	36498	20882	
2915	0	32472	36537	21341	
2916	0	32500	36562	21772	
2917	0	32512	36595	22182	
2918	0	32538	36616	22621	
2919	0	32556	36636	23024	
2920	0	32584	36662	23452	
2921	0	32598	36652	23915	
2922	0	32601	36652	24344	
2923	0	32612	36638	24770	
2924	0	32638	36608	25220	
2925	0	32650	36570	25648	
2926	0	32650	36550	26066	
2927	0	32648	36519	26488	
2928	0	32658	36477	26898	
2929	0	32656	36459	27300	
2930	0	32656	36440	27748	
2931	0	32644	36416	28150	
2932	0	32654	36400	28567	
2933	0	32664	36400	28988	
2934	0	32670	36410	29404	
2935	0	32658	36424	29813	
2936	0	32670	36464	30198	
2937	0	32672	36502	30599	
2938	0	32668	36551	31022	
2939	0	32672	36624	31436	
2940	0	32687	36696	31819	
2941	0	32696	36818	32214	
2942	0	32692	36930	32616	
2943	0	32720	37072	33016	
2944	0	32722	37216	33415	
2945	0	32708	37348	33821	
2946	0	32728	37483	34208	
2947	0	32744	37608	34584	
2948	0	32752	37746	34970	
2949	0	32784	37874	35360	
2950	0	32800	38012	35762	
2951	0	32824	38150	36130	
2952	0	32864	38266	36550	
2953	0	32896	38375	36956	
2954	0	32944	38501	37352	
2955	0	32986	38607	37782	
2956	0	33052	38695	38196	
2957	0	33116	38790	38620	
2958	0	33176	38862	39034	
2959	0	33261	38915	39431	
2960	0	33340	38960	39851	
2961	0	33426	39006	40252	
2962	0	33524	39042	40654	
2963	0	33624	39080	41078	
2964	0	33724	39111	41472	
2965	0	33824	39126	41904	
2966	0	33938	39146	42328	
2967	0	34050	39122	42738	
2968	0	34184	39082	43143	
2969	0	34336	39020	43556	
2970	0	34474	38943	43974	
2971	0	34624	38855	44396	
2972	0	34768	38758	44819	
2973	0	34912	38629	45215	
2974	0	35068	38488	45632	
2975	0	35214	38342	46051	
2976	0	35390	38166	46441	
2977	0	35544	37990	46810	
2978	0	35708	37794	47208	
2979	0	35872	37584	47588	
2980	0	36018	37383	47946	
2981	0	36176	37163	48282	
2982	0	36336	36914	48647	
2983	0	36484	36676	48992	
2984	0	36612	36461	49308	
2985	0	36744	36214	49618	
2986	0	36874	35968	49927	
2987	0	36992	35750	50183	
2988	0	37112	35530	50439	
2989	0	37212	35306	50656	
2990	0	37316	35086	50856	
2991	0	37426	34872	51052	
2992	0	37536	34663	51219	
2993	0	37618	34478	51396	
2994	0	37698	34332	51520	
2995	0	37792	34164	51628	
2996	0	37872	34012	51710	
2997	0	37936	33883	51770	
2998	0	38002	33780	51828	
2999	0	38066	33686	51840	
3000	0	38106	33637	51820	
3001	0	38144	33588	51790	
3002	0	38184	33548	51741	
3003	0	38222	33516	51636	
3004	0	38240	33502	51504	
3005	0	38244	33474	51376	
3006	0	38236	33466	51204	
3007	0	38228	33470	50984	
3008	0	38208	33470	50784	
3009	0	38164	33478	50552	
3010	0	38112	33494	50304	
3011	0	38064	33509	50012	
3012	0	38002	33554	49716	
3013	0	37924	33616	49402	
3014	0	37840	33673	49044	
3015	0	37736	33744	48700	
3016	0	37642	33799	48336	
3017	0	37538	33882	47964	
3018	0	37416	33952	47589	
3019	0	37282	34043	47184	
3020	0	37156	34123	46743	
3021	0	37028	34226	46374	
3022	0	36904	34322	45976	
3023	0	36764	34421	45558	
3024	0	36626	34514	45154	
3025	0	36486	34596	44706	
3026	0	36344	34688	44285	
3027	0	36216	34774	43828	
3028	0	36065	34858	43399	
3029	0	35912	34934	42946	
3030	0	35760	34998	42516	
3031	0	35616	35084	42088	
3032	0	35476	35166	41675	
3033	0	35328	35234	41256	
3034	0	35178	35314	40824	
3035	0	35040	35363	40417	
3036	0	34900	35446	39996	
3037	0	34742	35528	39583	
3038	0	34596	35614	39181	
3039	0	34444	35696	38775	
3040	0	34300	35808	38338	
3041	0	34146	35912	37951	
3042	0	34004	36026	37550	
3043	0	33872	36132	37156	
3044	0	33728	36231	36724	
3045	0	33582	36359	36338	
3046	0	33436	36508	35916	
3047	0	33292	36666	35503	
3048	0	33156	36840	35084	
3049	0	33016	37010	34680	
3050	0	32885	37194	34273	
3051	0	32762	37383	33888	
3052	0	32642	37580	33468	
3053	0	32522	37796	33061	
3054	0	32412	38004	32664	
3055	0	32290	38242	32263	
3056	0	32208	38472	31872	
3057	0	32104	38712	31468	
3058	0	32004	38961	31044	
3059	0	31888	39195	30604	
3060	0	31804	39430	30196	
3061	0	31732	39641	29796	
3062	0	31664	39858	29398	
3063	0	31592	40085	29016	
3064	0	31536	40296	28643	
3065	0	31480	40504	28263	
3066	0	31432	40740	27900	
3067	0	31382	40962	27534	
3068	0	31332	41178	27027	
3069	0	31298	41374	26438	
3070	0	31256	41558	25899	
3071	0	31224	41727	25378	
3072	0	31196	41896	24876	
3073	0	31186	42086	24388	
3074	0	31170	42262	23898	
3075	0	31168	42419	23404	
3076	0	31176	42624	22942	
3077	0	31188	42783	22469	
3078	0	31220	42958	21972	
3079	0	31256	43107	21506	
3080	0	31282	43232	21015	
3081	0	31300	43347	20528	
3082	0	31300	43398	20035	
3083	0	31316	43391	19556	
3084	0	31302	43374	19040	
3085	0	31322	43330	18550	
3086	0	31338	43266	18092	
3087	0	31344	43143	17625	
3088	0	31368	43060	17169	
3089	0	31382	42976	16758	
3090	0	31400	42856	16333	
3091	0	31426	42772	15972	
3092	0	31456	42631	15606	
3093	0	31464	42492	15229	
3094	0	31478	42319	14877	
3095	0	31472	42135	14518	
3096	0	31468	41903	14196	
3097	0	31482	41646	13871	
3098	0	31490	41351	13542	
3099	0	31492	41034	13211	
3100	0	31488	40708	12932	
3101	0	31506	40400	12660	
3102	0	31512	40109	12434	
3103	0	31524	39814	12235	
3104	0	31533	39524	12028	
3105	0	31528	39250	11830	
3106	0	31548	38972	11660	
3107	0	31568	38704	11508	
3108	0	31584	38427	11398	
3109	0	31616	38154	11292	
3110	0	31632	37916	11192	
3111	0	31652	37698	11132	
3112	0	31680	37488	11112	
3113	0	31718	37312	11095	
3114	0	31744	37161	11122	
3115	0	31768	37054	11196	
3116	0	31800	36982	11294	
3117	0	31850	36905	11412	
3118	0	31888	36834	11538	
3119	0	31938	36772	11700	
3120	0	31968	36743	11881	
3121	0	32008	36750	12110	
3122	0	32044	36776	12368	
3123	0	32072	36829	12652	
3124	0	32116	36882	12944	
3125	0	32148	36920	13273	
3126	0	32188	36964	13638	
3127	0	32212	37010	14011	
3128	0	32240	37059	14404	
3129	0	32280	37078	14816	
3130	0	32304	37127	15253	
3131	0	32330	37184	15707	
3132	0	32352	37248	16163	
3133	0	32388	37298	16624	
3134	0	32420	37346	17108	
3135	0	32448	37400	17594	
3136	0	32460	37456	18060	
3137	0	32488	37511	18552	
3138	0	32504	37576	19042	
3139	0	32506	37618	19540	
3140	0	32522	37663	20067	
3141	0	32546	37692	20626	
3142	0	32560	37706	21138	
3143	0	32568	37744	21606	
3144	0	32578	37758	22058	
3145	0	32576	37783	22502	
3146	0	32572	37790	22937	
3147	0	32578	37770	23384	
3148	0	32556	37759	23819	
3149	0	32572	37712	24262	
3150	0	32582	37669	24699	
3151	0	32584	37624	25144	
3152	0	32572	37593	25588	
3153	0	32568	37555	26036	
3154	0	32568	37511	26482	
3155	0	32556	37477	26918	
3156	0	32564	37417	27378	
3157	0	32576	37365	27815	
3158	0	32573	37318	28230	
3159	0	32564	37279	28656	
3160	0	32564	37243	29066	
3161	0	32580	37226	29486	
3162	0	32586	37230	29912	
3163	0	32578	37242	30328	
3164	0	32586	37278	30750	
3165	0	32594	37300	31151	
3166	0	32572	37344	31550	
3167	0	32576	37383	31938	
3168	0	32578	37419	32329	
3169	0	32576	37464	32720	
3170	0	32588	37511	33098	
3171	0	32594	37550	33504	
3172	0	32616	37568	33912	
3173	0	32640	37576	34306	
3174	0	32636	37631	34695	
3175	0	32654	37651	35058	
3176	0	32656	37687	35424	
3177	0	32682	37702	35816	
3178	0	32704	37738	36184	
3179	0	32728	37776	36582	
3180	0	32768	37794	36964	
3181	0	32810	37808	37356	
3182	0	32864	37824	37767	
3183	0	32924	37813	38162	
3184	0	32978	37817	38552	
3185	0	33036	37818	38965	
3186	0	33112	37819	39324	
3187	0	33176	37820	39714	
3188	0	33264	37828	40092	
3189	0	33364	37810	40507	
3190	0	33448	37794	40896	
3191	0	33546	37804	41306	
3192	0	33660	37778	41728	
3193	0	33764	37748	42098	
3194	0	33872	37708	42498	
3195	0	33992	37662	42875	
3196	0	34112	37602	43247	
3197	0	34234	37536	43617	
3198	0	34352	37478	43990	
3199	0	34464	37383	44350	
3200	0	34604	37287	44697	
3201	0	34730	37186	45056	
3202	0	34872	37075	45410	
3203	0	35004	36934	45770	
3204	0	35124	36796	46105	
3205	0	35258	36649	46424	
3206	0	35388	36513	46744	
3207	0	35512	36359	47072	
3208	0	35640	36223	47348	
3209	0	35760	36072	47623	
3210	0	35880	35924	47900	
3211	0	36016	35778	48192	
3212	0	36132	35632	48472	
3213	0	36264	35452	48730	
3214	0	36384	35263	48952	
3215	0	36492	35079	49195	
3216	0	36604	34891	49418	
3217	0	36714	34722	49618	
3218	0	36820	34540	49808	
3219	0	36916	34360	49979	
3220	0	37004	34180	50130	
3221	0	37092	34014	50290	
3222	0	37184	33840	50390	
3223	0	37264	33664	50484	
3224	0	37352	33516	50583	
3225	0	37408	33366	50644	
3226	0	37472	33232	50684	
3227	0	37524	33112	50680	
3228	0	37588	33005	50658	
3229	0	37620	32930	50608	
3230	0	37668	32862	50556	
3231	0	37704	32793	50443	
3232	0	37736	32730	50328	
3233	0	37766	32683	50182	
3234	0	37768	32642	50023	
3235	0	37770	32580	49820	
3236	0	37752	32549	49634	
3237	0	37728	32508	49412	
3238	0	37688	32498	49159	
3239	0	37646	32494	48888	
3240	0	37594	32495	48624	
3241	0	37520	32504	48327	
3242	0	37440	32524	48024	
3243	0	37346	32550	47711	
3244	0	37236	32582	47371	
3245	0	37140	32610	47008	
3246	0	37040	32647	46656	
3247	0	36924	32686	46278	
3248	0	36824	32734	45904	
3249	0	36696	32788	45508	
3250	0	36560	32856	45127	
3251	0	36452	32930	44744	
3252	0	36336	33002	44378	
3253	0	36218	33062	43986	
3254	0	36076	33154	43593	
3255	0	35968	33234	43184	
3256	0	35842	33307	42796	
3257	0	35704	33376	42402	
3258	0	35564	33452	42008	
3259	0	35424	33518	41623	
3260	0	35296	33577	41228	
3261	0	35160	33654	40828	
3262	0	35032	33748	40425	
3263	0	34898	33826	40030	
3264	0	34756	33926	39634	
3265	0	34610	34016	39239	
3266	0	34480	34116	38834	
3267	0	34344	34214	38420	
3268	0	34192	34308	38046	
3269	0	34048	34412	37638	
3270	0	33896	34522	37248	
3271	0	33756	34635	36850	
3272	0	33614	34758	36470	
3273	0	33474	34874	36091	
3274	0	33354	35000	35704	
3275	0	33216	35122	35310	
3276	0	33080	35250	34951	
3277	0	32952	35385	34569	
3278	0	32832	35520	34172	
3279	0	32714	35632	33775	
3280	0	32580	35786	33406	
3281	0	32472	35950	33034	
3282	0	32369	36098	32654	
3283	0	32256	36272	32290	
3284	0	32156	36448	31902	
3285	0	32040	36634	31516	
3286	0	31948	36818	31119	
3287	0	31846	37023	30704	
3288	0	31742	37225	30305	
3289	0	31666	37424	29916	
3290	0	31580	37637	29526	
3291	0	31508	37848	29144	
3292	0	31456	38065	28768	
3293	0	31392	38295	28406	
3294	0	31340	38514	28052	
3295	0	31288	38746	27713	
3296	0	31252	38984	27380	
3297	0	31222	39207	26926	
3298	0	31192	39397	26386	
3299	0	31168	39572	25842	
3300	0	31156	39751	25362	
3301	0	31128	39910	24898	
3302	0	31102	40086	24457	
3303	0	31100	40278	24002	
3304	0	31112	40428	23542	
3305	0	31118	40543	23086	
3306	0	31120	40672	22634	
3307	0	31144	40786	22188	
3308	0	31162	40897	21736	
3309	0	31204	40986	21292	
3310	0	31245	41079	20861	
3311	0	31288	41128	20424	
3312	0	31324	41148	19979	
3313	0	31340	41135	19539	
3314	0	31346	41106	19097	
3315	0	31378	41067	18682	
3316	0	31396	40967	18272	
3317	0	31426	40876	17879	
3318	0	31460	40768	17478	
3319	0	31492	40616	17094	
3320	0	31524	40447	16720	
3321	0	31556	40304	16368	
3322	0	31604	40152	16033	
3323	0	31640	40004	15702	
3324	0	31660	39862	15403	
3325	0	31704	39698	15106	
3326	0	31732	39526	14822	
3327	0	31755	39330	14530	
3328	0	31784	39128	14248	
3329	0	31812	38904	13994	
3330	0	31858	38670	13750	
3331	0	31884	38454	13545	
3332	0	31912	38252	13345	
3333	0	31950	38048	13176	
3334	0	31974	37850	13017	
3335	0	32016	37668	12874	
3336	0	32060	37488	12757	
3337	0	32084	37310	12634	
3338	0	32130	37152	12526	
3339	0	32178	36976	12486	
3340	0	32228	36832	12426	
3341	0	32268	36690	12409	
3342	0	32314	36572	12416	
3343	0	32360	36480	12452	
3344	0	32410	36381	12516	
3345	0	32454	36274	12592	
3346	0	32522	36167	12662	
3347	0	32560	36089	12819	
3348	0	32612	36011	12976	
3349	0	32660	35970	13194	
3350	0	32690	35954	13428	
3351	0	32740	35954	13670	
3352	0	32804	35982	13969	
3353	0	32866	36007	14276	
3354	0	32914	36020	14626	
3355	0	32970	36036	14989	
3356	0	33020	36068	15386	
3357	0	33056	36107	15774	
3358	0	33090	36144	16176	
3359	0	33136	36196	16584	
3360	0	33168	36244	17040	
3361	0	33200	36287	17461	
3362	0	33226	36325	17902	
3363	0	33252	36359	18342	
3364	0	33266	36431	18794	
3365	0	33286	36487	19268	
3366	0	33308	36535	19723	
3367	0	33318	36576	20185	
3368	0	33312	36590	20674	
3369	0	33316	36598	21152	
3370	0	33306	36591	21596	
3371	0	33312	36578	22023	
3372	0	33312	36552	22431	
3373	0	33317	36496	22851	
3374	0	33312	36448	23266	
3375	0	33290	36407	23662	
3376	0	33272	36335	24059	
3377	0	33260	36239	24459	
3378	0	33240	36138	24870	
3379	0	33220	36040	25266	
3380	0	33192	35950	25680	
3381	0	33182	35867	26087	
3382	0	33170	35768	26507	
3383	0	33138	35685	26928	
3384	0	33132	35616	27332	
3385	0	33114	35546	27732	
3386	0	33072	35504	28120	
3387	0	33029	35478	28501	
3388	0	33004	35434	28900	
3389	0	32976	35402	29310	
3390	0	32934	35358	29681	
3391	0	32914	35318	30062	
3392	0	32880	35282	30442	
3393	0	32848	35216	30812	
3394	0	32816	35168	31164	
3395	0	32784	35142	31550	
3396	0	32768	35114	31918	
3397	0	32728	35112	32282	
3398	0	32698	35124	32640	
3399	0	32672	35133	32984	
3400	0	32648	35150	33368	
3401	0	32624	35212	33732	
3402	0	32602	35307	34118	
3403	0	32564	35376	34486	
3404	0	32526	35411	34832	
3405	0	32524	35376	35181	
3406	0	32492	35419	35540	
3407	0	32480	35584	35863	
3408	0	32468	35734	36208	
3409	0	32468	35807	36552	
3410	0	32458	35847	36931	
3411	0	32448	35962	37276	
3412	0	32460	35986	37661	
3413	0	32472	36016	38023	
3414	0	32496	36054	38383	
3415	0	32536	36150	38744	
3416	0	32576	36266	39128	
3417	0	32610	36396	39520	
3418	0	32656	36464	39883	
3419	0	32699	36560	40259	
3420	0	32744	36638	40646	
3421	0	32817	36715	41004	
3422	0	32880	36756	41380	
3423	0	32956	36743	41742	
3424	0	33032	36752	42111	
3425	0	33108	36755	42464	
3426	0	33200	36750	42828	
3427	0	33296	36743	43161	
3428	0	33392	36764	43494	
3429	0	33476	36772	43834	
3430	0	33600	36756	44191	
3431	0	33712	36759	44530	
3432	0	33824	36758	44840	
3433	0	33924	36730	45176	
3434	0	34034	36678	45502	
3435	0	34164	36596	45852	
3436	0	34294	36487	46157	
3437	0	34408	36389	46471	
3438	0	34523	36261	46798	
3439	0	34660	36148	47106	
3440	0	34788	36032	47391	
3441	0	34920	35928	47680	
3442	0	35058	35794	47950	
3443	0	35202	35640	48206	
3444	0	35320	35500	48443	
3445	0	35452	35352	48688	
3446	0	35580	35203	48882	
3447	0	35712	35035	49091	
3448	0	35846	34859	49308	
3449	0	35968	34707	49468	
3450	0	36092	34536	49616	
3451	0	36230	34363	49776	
3452	0	36348	34200	49909	
3453	0	36468	34050	50032	
3454	0	36584	33892	50114	
3455	0	36704	33752	50183	
3456	0	36812	33634	50252	
3457	0	36912	33518	50270	
3458	0	36992	33430	50269	
3459	0	37076	33345	50250	
3460	0	37170	33286	50226	
3461	0	37254	33230	50157	
3462	0	37324	33181	50066	
3463	0	37397	33136	49952	
3464	0	37450	33097	49790	
3465	0	37488	33038	49607	
3466	0	37514	32992	49421	
3467	0	37526	32946	49211	
3468	0	37540	32880	48994	
3469	0	37556	32822	48750	
3470	0	37552	32772	48491	
3471	0	37536	32747	48207	
3472	0	37520	32712	47882	
3473	0	37482	32698	47584	
3474	0	37456	32684	47264	
3475	0	37401	32685	46944	
3476	0	37344	32706	46584	
3477	0	37296	32734	46215	
3478	0	37204	32766	45874	
3479	0	37140	32800	45488	
3480	0	37064	32832	45080	
3481	0	36976	32890	44710	
3482	0	36904	32941	44312	
3483	0	36808	32999	43911	
3484	0	36728	33061	43516	
3485	0	36633	33142	43094	
3486	0	36528	33210	42680	
3487	0	36440	33279	42260	
3488	0	36332	33362	41872	
3489	0	36220	33458	41444	
3490	0	36124	33552	41011	
3491	0	36012	33671	40579	
3492	0	35904	33810	40164	
3493	0	35784	33969	39725	
3494	0	35664	34128	39302	
3495	0	35549	34306	38864	
3496	0	35426	34483	38424	
3497	0	35288	34686	37992	
3498	0	35172	34880	37584	
3499	0	35042	35080	37143	
3500	0	34912	35284	36728	
3501	0	34784	35518	36304	
3502	0	34660	35755	35824	
3503	0	34532	35986	35410	
3504	0	34403	36226	34998	
3505	0	34268	36486	34548	
3506	0	34144	36772	34085	
3507	0	33992	37080	33671	
3508	0	33864	37383	33225	
3509	0	33744	37728	32775	
3510	0	33628	38099	32356	
3511	0	33504	38471	31942	
3512	0	33408	38848	31524	
3513	0	33304	39242	31077	
3514	0	33188	39676	30644	
3515	0	33074	40096	30192	
3516	0	32980	40506	29716	
3517	0	32888	40915	29256	
3518	0	32796	41322	28836	
3519	0	32698	41740	28413	
3520	0	32620	42159	28029	
3521	0	32564	42606	27643	
3522	0	32510	43015	27068	
3523	0	32468	43422	26498	
3524	0	32420	43808	25896	
3525	0	32384	44180	25346	
3526	0	32344	44547	24805	
3527	0	32308	44870	24242	
3528	0	32272	45170	23669	
3529	0	32250	45422	23098	
3530	0	32228	45651	22548	
3531	0	32214	45880	21996	
3532	0	32236	46087	21469	
3533	0	32262	46264	20914	
3534	0	32292	46440	20416	
3535	0	32288	46572	19880	
3536	0	32320	46635	19311	
3537	0	32322	46619	18756	
3538	0	32326	46526	18205	
3539	0	32328	46409	17635	
3540	0	32330	46288	17122	
3541	0	32338	46160	16619	
3542	0	32352	46044	16124	
3543	0	32390	45908	15658	
3544	0	32414	45742	15200	
3545	0	32436	45530	14746	
3546	0	32444	45294	14295	
3547	0	32434	45034	13830	
3548	0	32410	44693	13380	
3549	0	32388	44328	12945	
3550	0	32376	43932	12538	
3551	0	32360	43527	12137	
3552	0	32344	43112	11774	
3553	0	32328	42631	11433	
3554	0	32306	42218	11126	
3555	0	32296	41832	10835	
3556	0	32288	41462	10600	
3557	0	32286	41116	10395	
3558	0	32274	40775	10217	
3559	0	32260	40442	10046	
3560	0	32262	40112	9912	
3561	0	32244	39781	9804	
3562	0	32242	39430	9707	
3563	0	32233	39104	9627	
3564	0	32216	38770	9572	
3565	0	32216	38432	9524	
3566	0	32212	38140	9491	
3567	0	32208	37858	9505	
3568	0	32210	37588	9544	
3569	0	32220	37346	9601	
3570	0	32252	37144	9690	
3571	0	32266	36948	9825	
3572	0	32284	36796	9960	
3573	0	32316	36666	10148	
3574	0	32352	36544	10365	
3575	0	32392	36454	10627	
3576	0	32420	36412	10951	
3577	0	32464	36380	11307	
3578	0	32492	36382	11697	
3579	0	32536	36402	12143	
3580	0	32578	36448	12636	
3581	0	32604	36520	13146	
3582	0	32644	36574	13648	
3583	0	32664	36642	14184	
3584	0	32706	36706	14710	
3585	0	32732	36754	15263	
3586	0	32741	36810	15827	
3587	0	32768	36871	16398	
3588	0	32786	36952	16966	
3589	0	32798	37016	17543	
3590	0	32804	37092	18134	
3591	0	32800	37179	18736	
3592	0	32812	37259	19406	
3593	0	32810	37343	20057	
3594	0	32808	37412	20652	
3595	0	32800	37474	21218	
3596	0	32772	37580	21763	
3597	0	32760	37678	22326	
3598	0	32744	37783	22870	
3599	0	32722	37878	23430	
3600	0	32716	37980	23988	
3601	0	32684	38091	24532	
3602	0	32664	38214	25108	
3603	0	32646	38343	25670	
3604	0	32608	38487	26226	
3605	0	32584	38612	26754	
3606	0	32552	38753	27288	
3607	0	32514	38884	27794	
3608	0	32480	39007	28312	
3609	0	32446	39122	28816	
3610	0	32404	39219	29315	
3611	0	32353	39366	29798	
3612	0	32312	39544	30270	
3613	0	32280	39747	30760	
3614	0	32248	39916	31224	
3615	0	32210	40015	31730	
3616	0	32184	39973	32236	
3617	0	32156	40083	32723	
3618	0	32124	40255	33208	
3619	0	32114	40488	33682	
3620	0	32112	40634	34164	
3621	0	32108	40696	34632	
3622	0	32100	40786	35092	
3623	0	32104	40839	35552	
3624	0	32100	40775	36017	
3625	0	32120	40784	36470	
3626	0	32140	40893	36926	
3627	0	32154	40999	37367	
3628	0	32178	41106	37810	
3629	0	32208	41164	38238	
3630	0	32248	41252	38708	
3631	0	32318	41334	39179	
3632	0	32376	41408	39626	
3633	0	32458	41408	40082	
3634	0	32552	41351	40544	
3635	0	32640	41261	41005	
3636	0	32744	41190	41467	
3637	0	32865	41127	41954	
3638	0	32992	41023	42426	
3639	0	33112	40924	42864	
3640	0	33252	40791	43308	
3641	0	33403	40676	43754	
3642	0	33568	40550	44191	
3643	0	33722	40413	44640	
3644	0	33916	40258	45084	
3645	0	34092	40076	45536	
3646	0	34256	39884	45934	
3647	0	34436	39649	46327	
3648	0	34624	39410	46727	
3649	0	34800	39160	47126	
3650	0	34988	38894	47510	
3651	0	35169	38639	47904	
3652	0	35342	38371	48284	
3653	0	35530	38093	48618	
3654	0	35708	37807	48962	
3655	0	35896	37532	49279	
3656	0	36068	37252	49610	
3657	0	36252	36990	49902	
3658	0	36428	36730	50176	
3659	0	36604	36484	50412	
3660	0	36766	36246	50626	
3661	0	36932	36000	50860	
3662	0	37088	35734	51040	
3663	0	37236	35463	51199	
3664	0	37382	35206	51346	
3665	0	37524	34935	51466	
3666	0	37652	34680	51568	
3667	0	37776	34450	51642	
3668	0	37888	34220	51731	
3669	0	37986	33998	51746	
3670	0	38092	33782	51740	
3671	0	38218	33582	51712	
3672	0	38322	33390	51680	
3673	0	38420	33202	51613	
3674	0	38492	33044	51490	
3675	0	38578	32894	51362	
3676	0	38632	32775	51207	
3677	0	38674	32685	50994	
3678	0	38720	32606	50766	
3679	0	38760	32550	50496	
3680	0	38764	32520	50226	
3681	0	38758	32492	49924	
3682	0	38736	32486	49608	
3683	0	38700	32472	49259	
3684	0	38656	32471	48888	
3685	0	38608	32466	48512	
3686	0	38532	32459	48098	
3687	0	38444	32472	47694	
3688	0	38368	32483	47278	
3689	0	38264	32502	46836	
3690	0	38176	32546	46407	
3691	0	38080	32604	45959	
3692	0	37972	32687	45522	
3693	0	37840	32775	45063	
3694	0	37748	32880	44608	
3695	0	37630	32996	44158	
3696	0	37506	33124	43715	
3697	0	37372	33268	43229	
3698	0	37258	33411	42775	
3699	0	37130	33546	42300	
3700	0	37000	33714	41832	
3701	0	36880	33896	41364	
3702	0	36748	34077	40896	
3703	0	36600	34271	40429	
3704	0	36452	34482	39966	
3705	0	36306	34670	39496	
3706	0	36152	34862	39021	
3707	0	36002	35075	38559	
3708	0	35858	35268	38131	
3709	0	35706	35463	37661	
3710	0	35554	35682	37208	
3711	0	35410	35889	36776	
3712	0	35248	36119	36332	
3713	0	35116	36352	35906	
3714	0	34972	36588	35466	
3715	0	34830	36831	35026	
3716	0	34666	37112	34584	
3717	0	34514	37383	34136	
3718	0	34382	37652	33723	
3719	0	34242	37932	33272	
3720	0	34112	38223	32838	
3721	0	33984	38523	32428	
3722	0	33860	38838	32002	
3723	0	33736	39162	31576	
3724	0	33602	39494	31132	
3725	0	33480	39833	30678	
3726	0	33380	40176	30210	
3727	0	33276	40518	29763	
3728	0	33148	40868	29318	
3729	0	33060	41220	28888	
3730	0	32960	41581	28484	
3731	0	32892	41968	28106	
3732	0	32832	42345	27752	
3733	0	32784	42736	27378	
3734	0	32736	43143	26807	
3735	0	32704	43514	26192	
3736	0	32662	43847	25616	
3737	0	32626	44167	25070	
3738	0	32586	44454	24540	
3739	0	32544	44716	23976	
3740	0	32516	44999	23462	
3741	0	32532	45288	22950	
3742	0	32554	45575	22448	
3743	0	32592	45844	21956	
3744	0	32618	46082	21424	
3745	0	32652	46232	20882	
3746	0	32690	46312	20332	
3747	0	32712	46319	19768	
3748	0	32728	46283	19222	
3749	0	32776	46215	18690	
3750	0	32818	46148	18165	
3751	0	32878	46137	17679	
3752	0	32938	46084	17208	
3753	0	33012	46035	16774	
3754	0	33116	45927	16289	
3755	0	33192	45760	15808	
3756	0	33264	45564	15337	
3757	0	33320	45304	14886	
3758	0	33374	44994	14402	
3759	0	33448	44660	13940	
3760	0	33480	44291	13502	
3761	0	33536	43911	13099	
3762	0	33596	43500	12699	
3763	0	33626	43090	12317	
3764	0	33664	42678	11941	
3765	0	33730	42260	11616	
3766	0	33768	41870	11333	
3767	0	33820	41478	11054	
3768	0	33880	41106	10805	
3769	0	33920	40740	10620	
3770	0	33962	40372	10430	
3771	0	34002	40044	10285	
3772	0	34050	39693	10172	
3773	0	34096	39358	10079	
3774	0	34130	39012	9996	
3775	0	34170	38699	9945	
3776	0	34208	38378	9887	
3777	0	34242	38106	9839	
3778	0	34272	37840	9837	
3779	0	34296	37602	9872	
3780	0	34338	37382	9933	
3781	0	34384	37211	10028	
3782	0	34432	37058	10124	
3783	0	34456	36930	10257	
3784	0	34504	36832	10405	
3785	0	34552	36761	10635	
3786	0	34572	36726	10872	
3787	0	34608	36696	11127	
3788	0	34648	36692	11466	
3789	0	34668	36712	11813	
3790	0	34698	36767	12218	
3791	0	34718	36840	12655	
3792	0	34744	36932	13106	
3793	0	34766	37042	13578	
3794	0	34762	37148	14081	
3795	0	34780	37275	14587	
3796	0	34792	37399	15110	
3797	0	34798	37516	15654	
3798	0	34796	37626	16193	
3799	0	34788	37743	16744	
3800	0	34770	37850	17296	
3801	0	34744	37963	17866	
3802	0	34728	38066	18446	
3803	0	34690	38172	19008	
3804	0	34668	38244	19604	
3805	0	34624	38338	20218	
3806	0	34584	38436	20792	
3807	0	34540	38510	21333	
3808	0	34500	38616	21842	
3809	0	34440	38726	22360	
3810	0	34408	39178	22858	
3811	0	34360	39394	23402	
3812	0	34322	39642	23961	
3813	0	34244	39421	24544	
3814	0	34196	39303	25095	
3815	0	34138	39290	25594	
3816	0	34080	39271	26100	
3817	0	34016	39392	26541	
3818	0	33940	39538	27002	
3819	0	33872	39768	27468	
3820	0	33794	40024	27985	
3821	0	33720	40144	28540	
3822	0	33648	40180	29058	
3823	0	33584	40318	29568	
3824	0	33530	40508	30055	
3825	0	33458	40700	30506	
3826	0	33390	40888	30955	
3827	0	33304	41074	31414	
3828	0	33232	41336	31858	
3829	0	33158	41599	32278	
3830	0	33084	41762	32752	
3831	0	33016	41863	33213	
3832	0	32944	41960	33705	
3833	0	32874	42046	34170	
3834	0	32828	42142	34628	
3835	0	32772	42172	35088	
3836	0	32732	42182	35536	
3837	0	32692	42232	35978	
3838	0	32652	42301	36434	
3839	0	32612	42387	36876	
3840	0	32598	42503	37344	
3841	0	32572	42676	37816	
3842	0	32560	42855	38292	
3843	0	32532	43041	38768	
3844	0	32514	43175	39229	
3845	0	32544	43229	39702	
3846	0	32568	43250	40174	
3847	0	32590	43257	40647	
3848	0	32618	43244	41124	
3849	0	32677	43237	41588	
3850	0	32736	43206	42090	
3851	0	32800	43196	42602	
3852	0	32884	43169	43100	
3853	0	32946	43156	43606	
3854	0	33036	43115	44079	
3855	0	33126	43083	44544	
3856	0	33228	43028	45024	
3857	0	33340	42951	45490	
3858	0	33480	42848	45986	
3859	0	33608	42718	46476	
3860	0	33740	42568	46952	
3861	0	33872	42375	47458	
3862	0	34040	42176	47922	
3863	0	34176	41940	48382	
3864	0	34330	41695	48808	
3865	0	34488	41426	49252	
3866	0	34648	41138	49691	
3867	0	34800	40854	50104	
3868	0	34970	40562	50503	
3869	0	35144	40218	50866	
3870	0	35304	39884	51244	
3871	0	35484	39536	51610	
3872	0	35642	39181	51958	
3873	0	35808	38815	52287	
3874	0	35954	38454	52575	
3875	0	36118	38091	52840	
3876	0	36274	37726	53110	
3877	0	36408	37399	53318	
3878	0	36544	37086	53488	
3879	0	36674	36778	53673	
3880	0	36802	36487	53783	
3881	0	36932	36218	53892	
3882	0	37058	35964	53984	
3883	0	37170	35706	54038	
3884	0	37260	35462	54020	
3885	0	37368	35208	54016	
3886	0	37450	34975	53958	
3887	0	37548	34750	53874	
3888	0	37640	34520	53786	
3889	0	37712	34328	53634	
3890	0	37780	34163	53444	
3891	0	37844	34015	53241	
3892	0	37884	33883	53021	
3893	0	37920	33762	52743	
3894	0	37944	33664	52422	
3895	0	37952	33594	52079	
3896	0	37946	33557	51719	
3897	0	37920	33532	51335	
3898	0	37892	33522	50916	
3899	0	37854	33516	50482	
3900	0	37800	33542	50038	
3901	0	37746	33575	49572	
3902	0	37692	33610	49118	
3903	0	37593	33665	48592	
3904	0	37520	33724	48084	
3905	0	37424	33799	47584	
3906	0	37324	33886	47051	
3907	0	37228	33993	46528	
3908	0	37125	34109	46019	
3909	0	37001	34227	45480	
3910	0	36904	34358	44960	
3911	0	36802	34484	44440	
3912	0	36692	34618	43938	
3913	0	36586	34760	43440	
3914	0	36448	34894	42938	
3915	0	36322	35034	42398	
3916	0	36204	35190	41886	
3917	0	36072	35335	41380	
3918	0	35956	35520	40880	
3919	0	35812	35706	40374	
3920	0	35680	35906	39855	
3921	0	35556	36112	39342	
3922	0	35428	36316	38848	
3923	0	35296	36502	38350	
3924	0	35154	36686	37868	
3925	0	35024	36864	37362	
3926	0	34880	37060	36900	
3927	0	34752	37251	36416	
3928	0	34610	37442	35956	
3929	0	34456	37640	35485	
3930	0	34354	37842	35004	
3931	0	34224	38074	34544	
3932	0	34112	38296	34086	
3933	0	33984	38535	33636	
3934	0	33866	38763	33179	
3935	0	33744	38992	32739	
3936	0	33620	39225	32290	
3937	0	33516	39478	31832	
3938	0	33412	39691	31396	
3939	0	33300	39916	30962	
3940	0	33204	40152	30514	
3941	0	33120	40374	30066	
3942	0	33042	40571	29629	
3943	0	32946	40765	29186	
3944	0	32880	40952	28773	
3945	0	32812	41132	28376	
3946	0	32746	41374	27998	
3947	0	32698	41583	27630	
3948	0	32660	41803	27130	
3949	0	32616	42002	26552	
3950	0	32596	42178	25986	
3951	0	32560	42365	25466	
3952	0	32544	42494	24924	
3953	0	32532	42610	24403	
3954	0	32534	42743	23896	
3955	0	32516	42846	23380	
3956	0	32536	42986	22891	
3957	0	32562	43130	22392	
3958	0	32610	43271	21925	
3959	0	32636	43380	21435	
3960	0	32662	43480	20924	
3961	0	32708	43516	20404	
3962	0	32748	43495	19889	
3963	0	32778	43414	19357	
3964	0	32800	43330	18842	
3965	0	32836	43218	18338	
3966	0	32858	43096	17874	
3967	0	32892	42985	17429	
3968	0	32939	42860	16962	
3969	0	32988	42710	16519	
3970	0	33032	42582	16102	
3971	0	33072	42416	15723	
3972	0	33125	42242	15316	
3973	0	33168	42045	14938	
3974	0	33208	41824	14562	
3975	0	33244	41595	14202	
3976	0	33276	41316	13846	
3977	0	33312	41066	13498	
3978	0	33352	40808	13173	
3979	0	33380	40537	12883	
3980	0	33424	40260	12632	
3981	0	33464	40007	12380	
3982	0	33500	39732	12130	
3983	0	33536	39472	11923	
3984	0	33566	39201	11721	
3985	0	33602	38946	11534	
3986	0	33642	38674	11355	
3987	0	33690	38407	11233	
3988	0	33728	38166	11114	
3989	0	33782	37924	11024	
3990	0	33840	37720	10977	
3991	0	33904	37512	10941	
3992	0	33970	37360	10953	
3993	0	34028	37226	10980	
3994	0	34088	37106	11033	
3995	0	34152	37014	11120	
3996	0	34218	36984	11204	
3997	0	34280	36965	11352	
3998	0	34352	36960	11534	
3999	0	34414	36994	11746	
4000	0	34492	37038	12007	
4001	0	34553	37069	12309	
4002	0	34611	37122	12646	
4003	0	34664	37174	13002	
4004	0	34714	37220	13371	
4005	0	34758	37261	13764	
4006	0	34802	37319	14182	
4007	0	34848	37368	14656	
4008	0	34885	37434	15122	
4009	0	34916	37489	15601	
4010	0	34938	37558	16083	
4011	0	34976	37634	16586	
4012	0	34992	37696	17091	
4013	0	35010	37767	17596	
4014	0	35018	37834	18116	
4015	0	35048	37895	18627	
4016	0	35048	37959	19149	
4017	0	35048	38002	19730	
4018	0	35050	38048	20315	
4019	0	35036	38089	20853	
4020	0	35018	38106	21341	
4021	0	35028	38122	21806	
4022	0	35016	38114	22269	
4023	0	35010	38117	22730	
4024	0	34976	38120	23179	
4025	0	34944	38127	23636	
4026	0	34914	38110	24082	
4027	0	34880	38080	24523	
4028	0	34852	38034	24967	
4029	0	34816	37963	25392	
4030	0	34788	37878	25830	
4031	0	34742	37779	26271	
4032	0	34712	37690	26688	
4033	0	34664	37580	27118	
4034	0	34634	37471	27518	
4035	0	34588	37370	27958	
4036	0	34554	37282	28383	
4037	0	34524	37202	28800	
4038	0	34476	37138	29216	
4039	0	34436	37068	29604	
4040	0	34372	36999	30012	
4041	0	34324	36952	30416	
4042	0	34280	36893	30803	
4043	0	34230	36839	31188	
4044	0	34184	36788	31589	
4045	0	34104	36722	31939	
4046	0	34069	36664	32302	
4047	0	33994	36624	32668	
4048	0	33952	36548	33022	
4049	0	33888	36494	33402	
4050	0	33840	36457	33762	
4051	0	33792	36434	34118	
4052	0	33736	36406	34466	
4053	0	33680	36384	34823	
4054	0	33620	36386	35170	
4055	0	33574	36374	35536	
4056	0	33528	36359	35903	
4057	0	33492	36343	36266	
4058	0	33434	36328	36620	
4059	0	33398	36314	36960	
4060	0	33352	36295	37314	
4061	0	33328	36268	37702	
4062	0	33304	36243	38068	
4063	0	33286	36180	38394	
4064	0	33248	36142	38744	
4065	0	33226	36088	39084	
4066	0	33210	36028	39431	
4067	0	33204	35969	39796	
4068	0	33194	35901	40153	
4069	0	33188	35824	40502	
4070	0	33200	35744	40854	
4071	0	33208	35682	41202	
4072	0	33210	35652	41536	
4073	0	33208	35586	41870	
4074	0	33240	35512	42212	
4075	0	33260	35434	42527	
4076	0	33276	35379	42868	
4077	0	33292	35322	43191	
4078	0	33322	35250	43508	
4079	0	33352	35191	43818	
4080	0	33382	35128	44120	
4081	0	33427	35080	44406	
4082	0	33464	35026	44728	
4083	0	33504	34975	44986	
4084	0	33538	34907	45255	
4085	0	33592	34823	45511	
4086	0	33626	34746	45789	
4087	0	33674	34638	46039	
4088	0	33700	34555	46272	
4089	0	33744	34446	46500	
4090	0	33806	34336	46738	
4091	0	33853	34232	46966	
4092	0	33926	34126	47184	
4093	0	33988	34038	47378	
4094	0	34064	33901	47570	
4095	0	34130	33772	47751	
4096	0	34200	33650	47912	
4097	0	34280	33530	48071	
4098	0	34368	33406	48224	
4099	0	34428	33287	48356	
4100	0	34528	33174	48464	
4101	0	34592	33051	48608	
4102	0	34666	32936	48711	
4103	0	34744	32822	48774	
4104	0	34816	32712	48818	
4105	0	34877	32600	48838	
4106	0	34964	32489	48840	
4107	0	35028	32406	48835	
4108	0	35100	32322	48798	
4109	0	35152	32224	48763	
4110	0	35220	32144	48710	
4111	0	35278	32080	48646	
4112	0	35328	32007	48554	
4113	0	35380	31942	48440	
4114	0	35416	31890	48314	
4115	0	35464	31821	48135	
4116	0	35488	31762	48007	
4117	0	35512	31716	47816	
4118	0	35522	31683	47623	
4119	0	35538	31634	47396	
4120	0	35560	31608	47186	
4121	0	35556	31586	46938	
4122	0	35564	31572	46685	
4123	0	35562	31552	46410	
4124	0	35544	31554	46137	
4125	0	35520	31582	45826	
4126	0	35492	31596	45511	
4127	0	35488	31614	45206	
4128	0	35454	31633	44870	
4129	0	35432	31660	44544	
4130	0	35404	31684	44230	
4131	0	35368	31699	43894	
4132	0	35352	31711	43542	
4133	0	35324	31730	43196	
4134	0	35308	31742	42858	
4135	0	35264	31773	42518	
4136	0	35226	31800	42164	
4137	0	35184	31834	41816	
4138	0	35132	31879	41456	
4139	0	35090	31936	41104	
4140	0	35042	31994	40746	
4141	0	34994	32052	40356	
4142	0	34954	32100	40024	
4143	0	34904	32182	39676	
4144	0	34856	32256	39293	
4145	0	34786	32336	38919	
4146	0	34716	32410	38547	
4147	0	34648	32502	38152	
4148	0	34586	32586	37760	
4149	0	34540	32677	37374	
4150	0	34472	32788	37021	
4151	0	34412	32900	36658	
4152	0	34352	33006	36292	
4153	0	34296	33096	35928	
4154	0	34248	33202	35546	
4155	0	34178	33287	35169	
4156	0	34122	33402	34788	
4157	0	34052	33516	34438	
4158	0	34000	33638	34061	
4159	0	33952	33756	33728	
4160	0	33892	33882	33390	
4161	0	33856	34016	33024	
4162	0	33808	34179	32660	
4163	0	33760	34311	32306	
4164	0	33704	34471	31952	
4165	0	33660	34640	31593	
4166	0	33600	34794	31228	
4167	0	33552	34963	30855	
4168	0	33504	35130	30488	
4169	0	33472	35298	30140	
4170	0	33442	35462	29768	
4171	0	33402	35648	29412	
4172	0	33384	35822	29049	
4173	0	33368	36000	28718	
4174	0	33344	36198	28366	
4175	0	33318	36416	28035	
4176	0	33304	36631	27719	
4177	0	33292	36850	27401	
4178	0	33288	37062	27101	
4179	0	33287	37254	26708	
4180	0	33296	37440	26223	
4181	0	33308	37578	25767	
4182	0	33330	37718	25324	
4183	0	33352	37858	24888	
4184	0	33352	38008	24474	
4185	0	33388	38160	24066	
4186	0	33410	38318	23680	
4187	0	33444	38459	23320	
4188	0	33482	38584	22922	
4189	0	33532	38704	22510	
4190	0	33586	38783	22116	
4191	0	33636	38826	21716	
4192	0	33704	38831	21315	
4193	0	33754	38846	20929	
4194	0	33792	38821	20550	
4195	0	33832	38826	20184	
4196	0	33888	38806	19828	
4197	0	33944	38780	19463	
4198	0	34008	38738	19126	
4199	0	34060	38668	18795	
4200	0	34154	38608	18468	
4201	0	34226	38531	18148	
4202	0	34280	38450	17826	
4203	0	34360	38364	17538	
4204	0	34410	38248	17238	
4205	0	34464	38119	16942	
4206	0	34528	37990	16677	
4207	0	34596	37848	16428	
4208	0	34650	37703	16176	
4209	0	34708	37542	15964	
4210	0	34778	37401	15760	
4211	0	34836	37240	15599	
4212	0	34888	37087	15406	
4213	0	34958	36936	15244	
4214	0	35006	36774	15083	
4215	0	35068	36624	14936	
4216	0	35132	36506	14820	
4217	0	35168	36380	14732	
4218	0	35224	36230	14652	
4219	0	35294	36096	14561	
4220	0	35352	35978	14511	
4221	0	35404	35867	14486	
4222	0	35456	35758	14462	
4223	0	35504	35650	14464	
4224	0	35544	35543	14472	
4225	0	35572	35439	14518	
4226	0	35606	35330	14566	
4227	0	35658	35258	14664	
4228	0	35670	35171	14760	
4229	0	35716	35104	14896	
4230	0	35736	35050	15075	
4231	0	35766	35006	15258	
4232	0	35784	34983	15457	
4233	0	35796	34962	15688	
4234	0	35812	34933	15944	
4235	0	35816	34915	16210	
4236	0	35812	34916	16519	
4237	0	35832	34927	16838	
4238	0	35816	34944	17170	
4239	0	35808	34944	17508	
4240	0	35794	34970	17856	
4241	0	35792	34986	18240	
4242	0	35778	34994	18598	
4243	0	35744	35019	18971	
4244	0	35708	35024	19351	
4245	0	35688	35048	19738	
4246	0	35652	35053	20138	
4247	0	35616	35068	20574	
4248	0	35576	35072	21023	
4249	0	35524	35071	21437	
4250	0	35488	35094	21834	
4251	0	35448	35094	22212	
4252	0	35392	35080	22560	
4253	0	35360	35068	22910	
4254	0	35304	35055	23278	
4255	0	35268	35046	23643	
4256	0	35220	35026	24010	
4257	0	35164	35015	24368	
4258	0	35116	35010	24762	
4259	0	35056	34978	25140	
4260	0	35010	34951	25528	
4261	0	34960	34913	25911	
4262	0	34904	34850	26264	
4263	0	34856	34774	26618	
4264	0	34778	34706	26989	
4265	0	34712	34624	27344	
4266	0	34642	34554	27700	
4267	0	34584	34480	28047	
4268	0	34516	34390	28410	
4269	0	34460	34296	28765	
4270	0	34400	34208	29121	
4271	0	34348	34114	29495	
4272	0	34273	34021	29846	
4273	0	34208	33916	30172	
4274	0	34144	33827	30520	
4275	0	34080	33732	30866	
4276	0	34000	33658	31200	
4277	0	33936	33580	31546	
4278	0	33848	33512	31884	
4279	0	33765	33468	32212	
4280	0	33700	33426	32536	
4281	0	33626	33386	32872	
4282	0	33540	33348	33170	
4283	0	33464	33332	33513	
4284	0	33386	33302	33838	
4285	0	33304	33300	34150	
4286	0	33208	33307	34464	
4287	0	33133	33310	34762	
4288	0	33056	33312	35072	
4289	0	32964	33338	35376	
4290	0	32890	33360	35698	
4291	0	32811	33396	36020	
4292	0	32740	33410	36332	
4293	0	32684	33410	36640	
4294	0	32610	33415	36932	
4295	0	32550	33411	37252	
4296	0	32480	33432	37560	
4297	0	32422	33451	37873	
4298	0	32368	33486	38184	
4299	0	32324	33498	38512	
4300	0	32272	33554	38819	
4301	0	32234	33611	39143	
4302	0	32202	33642	39452	
4303	0	32170	33667	39748	
4304	0	32140	33683	40066	
4305	0	32118	33692	40378	
4306	0	32100	33678	40668	
4307	0	32072	33671	40925	
4308	0	32054	33661	41213	
4309	0	32048	33643	41512	
4310	0	32062	33634	41796	
4311	0	32060	33610	42105	
4312	0	32066	33575	42387	
4313	0	32066	33559	42644	
4314	0	32072	33542	42908	
4315	0	32092	33528	43148	
4316	0	32116	33515	43399	
4317	0	32140	33490	43664	
4318	0	32162	33478	43875	
4319	0	32194	33451	44112	
4320	0	32228	33426	44345	
4321	0	32272	33396	44566	
4322	0	32318	33351	44816	
4323	0	32360	33314	45010	
4324	0	32408	33275	45242	
4325	0	32460	33215	45414	
4326	0	32516	33147	45588	
4327	0	32586	33080	45770	
4328	0	32656	32986	45944	
4329	0	32722	32903	46116	
4330	0	32818	32810	46278	
4331	0	32908	32712	46405	
4332	0	32986	32616	46552	
4333	0	33060	32529	46685	
4334	0	33164	32434	46786	
4335	0	33258	32322	46904	
4336	0	33356	32222	46983	
4337	0	33456	32124	47079	
4338	0	33552	32030	47134	
4339	0	33640	31943	47183	
4340	0	33742	31849	47217	
4341	0	33841	31767	47259	
4342	0	33945	31670	47272	
4343	0	34028	31573	47250	
4344	0	34106	31480	47206	
4345	0	34184	31408	47176	
4346	0	34262	31312	47111	
4347	0	34336	31239	47034	
4348	0	34412	31162	46940	
4349	0	34488	31082	46796	
4350	0	34540	31036	46669	
4351	0	34612	30991	46542	
4352	0	34674	30955	46394	
4353	0	34738	30921	46214	
4354	0	34784	30912	46020	
4355	0	34823	30902	45793	
4356	0	34850	30893	45591	
4357	0	34882	30886	45333	
4358	0	34924	30880	45092	
4359	0	34952	30873	44844	
4360	0	34984	30876	44592	
4361	0	34992	30888	44333	
4362	0	35028	30888	44050	
4363	0	35032	30922	43768	
4364	0	35032	30940	43450	
4365	0	35048	30982	43143	
4366	0	35058	31034	42831	
4367	0	35052	31072	42516	
4368	0	35040	31127	42196	
4369	0	35044	31172	41856	
4370	0	35044	31222	41542	
4371	0	35044	31288	41212	
4372	0	35032	31367	40896	
4373	0	35016	31436	40558	
4374	0	34992	31523	40200	
4375	0	34968	31584	39852	
4376	0	34940	31648	39502	
4377	0	34912	31717	39140	
4378	0	34890	31790	38778	
4379	0	34858	31876	38423	
4380	0	34841	31966	38070	
4381	0	34820	32060	37720	
4382	0	34786	32170	37368	
4383	0	34748	32298	36998	
4384	0	34710	32424	36626	
4385	0	34672	32554	36242	
4386	0	34624	32686	35860	
4387	0	34600	32834	35498	
4388	0	34552	32995	35128	
4389	0	34498	33159	34754	
4390	0	34472	33334	34374	
4391	0	34428	33532	33991	
4392	0	34392	33720	33633	
4393	0	34360	33908	33268	
4394	0	34324	34126	32903	
4395	0	34298	34338	32516	
4396	0	34272	34572	32148	
4397	0	34241	34802	31778	
4398	0	34212	35044	31406	
4399	0	34184	35288	31063	
4400	0	34170	35543	30698	
4401	0	34140	35787	30328	
4402	0	34130	36039	29970	
4403	0	34096	36272	29588	
4404	0	34080	36513	29191	
4405	0	34060	36743	28831	
4406	0	34056	36967	28456	
4407	0	34066	37209	28096	
4408	0	34072	37447	27747	
4409	0	34072	37706	27430	
4410	0	34080	37958	27110	
4411	0	34104	38171	26631	
4412	0	34124	38380	26128	
4413	0	34162	38570	25638	
4414	0	34192	38749	25184	
4415	0	34220	38903	24739	
4416	0	34260	39090	24314	
4417	0	34304	39290	23894	
4418	0	34362	39480	23502	
4419	0	34420	39662	23088	
4420	0	34484	39830	22660	
4421	0	34546	39984	22254	
4422	0	34612	40071	21813	
4423	0	34680	40135	21399	
4424	0	34742	40180	20957	
4425	0	34804	40189	20514	
4426	0	34880	40186	20106	
4427	0	34936	40180	19709	
4428	0	35018	40156	19322	
4429	0	35116	40134	18950	
4430	0	35196	40071	18594	
4431	0	35302	39997	18217	
4432	0	35420	39908	17858	
4433	0	35512	39812	17526	
4434	0	35620	39670	17198	
4435	0	35736	39550	16901	
4436	0	35832	39429	16588	
4437	0	35932	39290	16296	
4438	0	36032	39139	16009	
4439	0	36128	38990	15764	
4440	0	36208	38821	15520	
4441	0	36280	38652	15258	
4442	0	36358	38450	15030	
4443	0	36440	38234	14786	
4444	0	36504	38005	14559	
4445	0	36564	37766	14338	
4446	0	36636	37528	14183	
4447	0	36684	37308	14018	
4448	0	36740	37080	13864	
4449	0	36796	36871	13716	
4450	0	36852	36672	13624	
4451	0	36896	36487	13553	
4452	0	36936	36334	13496	
4453	0	36976	36204	13470	
4454	0	37012	36098	13458	
4455	0	37021	36014	13470	
4456	0	37052	35931	13506	
4457	0	37074	35858	13580	
4458	0	37074	35783	13666	
4459	0	37080	35702	13808	
4460	0	37080	35620	13950	
4461	0	37076	35562	14114	
4462	0	37064	35510	14285	
4463	0	37048	35458	14502	
4464	0	37024	35426	14736	
4465	0	36998	35394	15002	
4466	0	36976	35374	15296	
4467	0	36942	35383	15614	
4468	0	36890	35390	15940	
4469	0	36836	35389	16275	
4470	0	36802	35402	16637	
4471	0	36744	35424	17022	
4472	0	36684	35435	17380	
4473	0	36636	35442	17776	
4474	0	36572	35435	18168	
4475	0	36512	35432	18578	
4476	0	36448	35419	18989	
4477	0	36384	35408	19392	
4478	0	36304	35406	19812	
4479	0	36212	35410	20264	
4480	0	36156	35400	20712	
4481	0	36088	35418	21200	
4482	0	36008	35422	21632	
4483	0	35904	35433	22034	
4484	0	35820	35456	22432	
4485	0	35728	35477	22836	
4486	0	35650	35486	23226	
4487	0	35560	35522	23638	
4488	0	35456	35538	24056	
4489	0	35368	35547	24474	
4490	0	35276	35570	24878	
4491	0	35190	35587	25298	
4492	0	35088	35591	25739	
4493	0	34994	35588	26141	
4494	0	34882	35591	26526	
4495	0	34792	35584	26949	
4496	0	34704	35563	27346	
4497	0	34612	35570	27744	
4498	0	34506	35570	28162	
4499	0	34416	35589	28551	
4500	0	34311	35620	28918	
4501	0	34216	35654	29328	
4502	0	34096	35696	29747	
4503	0	33972	35746	30131	
4504	0	33864	35782	30504	
4505	0	33750	35812	30895	
4506	0	33628	35868	31274	
4507	0	33512	35911	31640	
4508	0	33404	35996	31992	
4509	0	33278	36090	32380	
4510	0	33170	36193	32766	
4511	0	33074	36319	33156	
4512	0	32964	36476	33563	
4513	0	32840	36630	33970	
4514	0	32724	36808	34346	
4515	0	32624	36990	34731	
4516	0	32512	37173	35143	
4517	0	32404	37360	35542	
4518	0	32308	37540	35960	
4519	0	32200	37716	36359	
4520	0	32108	37885	36776	
4521	0	32032	38034	37191	
4522	0	31960	38186	37591	
4523	0	31904	38312	38002	
4524	0	31848	38407	38418	
4525	0	31790	38506	38808	
4526	0	31744	38585	39234	
4527	0	31696	38656	39653	
4528	0	31658	38718	40070	
4529	0	31640	38756	40492	
4530	0	31616	38791	40946	
4531	0	31584	38832	41366	
4532	0	31594	38854	41819	
4533	0	31584	38895	42260	
4534	0	31585	38918	42707	
4535	0	31604	38943	43143	
4536	0	31618	38930	43542	
4537	0	31652	38918	43971	
4538	0	31684	38892	44388	
4539	0	31726	38838	44815	
4540	0	31792	38754	45266	
4541	0	31852	38656	45691	
4542	0	31932	38514	46121	
4543	0	32004	38328	46500	
4544	0	32092	38118	46935	
4545	0	32184	37895	47338	
4546	0	32272	37668	47712	
4547	0	32364	37421	48096	
4548	0	32460	37162	48474	
4549	0	32578	36908	48826	
4550	0	32696	36654	49158	
4551	0	32832	36386	49490	
4552	0	32960	36134	49799	
4553	0	33090	35864	50074	
4554	0	33216	35606	50347	
4555	0	33354	35335	50586	
4556	0	33482	35065	50823	
4557	0	33616	34793	51040	
4558	0	33744	34551	51206	
4559	0	33876	34338	51352	
4560	0	34020	34106	51516	
4561	0	34152	33892	51634	
4562	0	34284	33680	51704	
4563	0	34412	33470	51783	
4564	0	34533	33286	51816	
4565	0	34652	33108	51824	
4566	0	34762	32931	51814	
4567	0	34880	32760	51778	
4568	0	35000	32604	51698	
4569	0	35084	32472	51606	
4570	0	35168	32355	51488	
4571	0	35264	32234	51348	
4572	0	35348	32135	51186	
4573	0	35426	32051	50988	
4574	0	35502	31982	50752	
4575	0	35548	31943	50508	
4576	0	35594	31909	50212	
4577	0	35636	31905	49889	
4578	0	35668	31912	49540	
4579	0	35684	31924	49198	
4580	0	35696	31965	48802	
4581	0	35704	32036	48425	
4582	0	35712	32110	47984	
4583	0	35692	32202	47554	
4584	0	35674	32298	47111	
4585	0	35652	32398	46685	
4586	0	35640	32527	46240	
4587	0	35612	32646	45762	
4588	0	35596	32775	45294	
4589	0	35562	32912	44800	
4590	0	35528	33054	44328	
4591	0	35512	33186	43841	
4592	0	35480	33336	43350	
4593	0	35462	33481	42850	
4594	0	35424	33656	42375	
4595	0	35378	33832	41882	
4596	0	35356	34012	41410	
4597	0	35312	34210	40921	
4598	0	35264	34416	40427	
4599	0	35226	34638	39962	
4600	0	35184	34851	39482	
4601	0	35140	35086	38992	
4602	0	35098	35318	38527	
4603	0	35058	35554	38032	
4604	0	35008	35807	37540	
4605	0	34948	36075	37028	
4606	0	34900	36338	36552	
4607	0	34848	36605	36071	
4608	0	34780	36897	35576	
4609	0	34716	37184	35118	
4610	0	34672	37472	34636	
4611	0	34626	37782	34156	
4612	0	34578	38065	33678	
4613	0	34536	38365	33194	
4614	0	34500	38653	32720	
4615	0	34452	38978	32263	
4616	0	34420	39290	31812	
4617	0	34392	39596	31355	
4618	0	34364	39911	30888	
4619	0	34344	40249	30459	
4620	0	34308	40572	29988	
4621	0	34304	40875	29514	
4622	0	34288	41144	29072	
4623	0	34288	41430	28640	
4624	0	34288	41706	28244	
4625	0	34290	41988	27867	
4626	0	34300	42266	27446	
4627	0	34330	42537	26851	
4628	0	34368	42781	26260	
4629	0	34400	43002	25686	
4630	0	34436	43196	25128	
4631	0	34468	43372	24590	
4632	0	34528	43556	24067	
