# OpenSignals Text File Format
# {"00:07:80:4D:2E:AD": {"sensor": ["XYZ", "XYZ", "XYZ"], "device name": "00:07:80:4D:2E:AD", "column": ["nSeq", "DI", "CH1", "CH2", "CH3"], "sync interval": 2, "time": "13:55:4.491", "comments": "", "device connection": "BTH00:07:80:4D:2E:AD", "channels": [1, 2, 3], "keywords": "", "mode": 0, "digital IO": [0, 1], "firmware version": 773, "device": "biosignalsplux", "position": 0, "sampling rate": 1000, "label": ["CH1", "CH2", "CH3"], "resolution": [16, 16, 16], "date": "2019-3-29", "special": [{}, {}, {}]}}
# EndOfHeader
0	0	32988	32840	37980	
1	0	33004	32832	37980	
2	0	32996	32836	37992	
3	0	32984	32860	38000	
4	0	32986	32868	37996	
5	0	32984	32854	38000	
6	0	32992	32844	37988	
7	0	32996	32844	38012	
8	0	33002	32840	38000	
9	0	32992	32844	38016	
10	0	32993	32836	37992	
11	0	32992	32832	37984	
12	0	33000	32832	37972	
13	0	32992	32836	38004	
14	0	32996	32824	37988	
15	0	33000	32836	37988	
16	0	33000	32828	37996	
17	0	33004	32828	38000	
18	0	33000	32844	37980	
19	0	33000	32838	37980	
20	0	32976	32840	37972	
21	0	32988	32836	37956	
22	0	32980	32848	37972	
23	0	32976	32852	37993	
24	0	32978	32852	37996	
25	0	32976	32848	37980	
26	0	32978	32852	37984	
27	0	32992	32844	37977	
28	0	32988	32840	37988	
29	0	32980	32833	37980	
30	0	32980	32841	37976	
31	0	32980	32837	37964	
32	0	32992	32840	37964	
33	0	32984	32840	37960	
34	0	32992	32832	37968	
35	0	33004	32840	37996	
36	0	33004	32840	37984	
37	0	33016	32841	37980	
38	0	32992	32832	37992	
39	0	33004	32832	37980	
40	0	32996	32828	37993	
41	0	32993	32828	38000	
42	0	32984	32852	37992	
43	0	32993	32836	37997	
44	0	32988	32832	38000	
45	0	32988	32844	37984	
46	0	33000	32832	37968	
47	0	33005	32828	37972	
48	0	33000	32828	37992	
49	0	32996	32832	37976	
50	0	32996	32832	37992	
51	0	33008	32824	37984	
52	0	33020	32824	37984	
53	0	33008	32820	38000	
54	0	32996	32832	37984	
55	0	32992	32836	37984	
56	0	32986	32832	37956	
57	0	32976	32840	37960	
58	0	32996	32844	37976	
59	0	32992	32828	37992	
60	0	33000	32832	37984	
61	0	32992	32840	37981	
62	0	32992	32836	37973	
63	0	33000	32824	37976	
64	0	32992	32832	37980	
65	0	32980	32832	37988	
66	0	32980	32836	37976	
67	0	32988	32836	37976	
68	0	32984	32832	38000	
69	0	32988	32844	38000	
70	0	32992	32840	37994	
71	0	32992	32836	37988	
72	0	33000	32832	37976	
73	0	32996	32834	38004	
74	0	32996	32848	38000	
75	0	32984	32848	38004	
76	0	32992	32856	37981	
77	0	32972	32868	37992	
78	0	32988	32860	37980	
79	0	32978	32868	37976	
80	0	32988	32860	37994	
81	0	32976	32866	37996	
82	0	32984	32856	37996	
83	0	32996	32848	37992	
84	0	33016	32832	37988	
85	0	33008	32849	37996	
86	0	33004	32850	38000	
87	0	33004	32842	37996	
88	0	33004	32836	37988	
89	0	33000	32840	37992	
90	0	33000	32832	37976	
91	0	33000	32848	37964	
92	0	32996	32852	37988	
93	0	33008	32840	37972	
94	0	32992	32848	37984	
95	0	32996	32854	37972	
96	0	32998	32844	37984	
97	0	33004	32844	38016	
98	0	33024	32832	38020	
99	0	33020	32836	38016	
100	0	33004	32832	37996	
101	0	33000	32840	37996	
102	0	33012	32836	38020	
103	0	33008	32828	38020	
104	0	33016	32812	37984	
105	0	33009	32832	37988	
106	0	33012	32825	37992	
107	0	33012	32828	37988	
108	0	33000	32832	37988	
109	0	33004	32840	37992	
110	0	32992	32840	38016	
111	0	33000	32848	38012	
112	0	32996	32848	38004	
113	0	33004	32840	38000	
114	0	33000	32848	38020	
115	0	33000	32844	38028	
116	0	32988	32852	38028	
117	0	33004	32854	38014	
118	0	33012	32836	38008	
119	0	32996	32836	37992	
120	0	32992	32836	38004	
121	0	32996	32848	37996	
122	0	32984	32852	37988	
123	0	33000	32844	38004	
124	0	32992	32864	38000	
125	0	33004	32860	38000	
126	0	32992	32860	38004	
127	0	32984	32864	37984	
128	0	32988	32860	37968	
129	0	32998	32864	37984	
130	0	33004	32860	37996	
131	0	32988	32844	38012	
132	0	32992	32856	37984	
133	0	32988	32857	37988	
134	0	33000	32848	38016	
135	0	33008	32832	37988	
136	0	33004	32833	37980	
137	0	33004	32845	37988	
138	0	33001	32836	37996	
139	0	32988	32844	37980	
140	0	32992	32844	37980	
141	0	32984	32832	37988	
142	0	32992	32836	37968	
143	0	32992	32828	37982	
144	0	32988	32840	37980	
145	0	33000	32840	37968	
146	0	33008	32840	37968	
147	0	33020	32832	37952	
148	0	33008	32836	37962	
149	0	33004	32832	37964	
150	0	32996	32832	37972	
151	0	33008	32828	37948	
152	0	32996	32832	37944	
153	0	32996	32836	37982	
154	0	32992	32832	37980	
155	0	33000	32838	37992	
156	0	33000	32837	38016	
157	0	32992	32836	38004	
158	0	32980	32836	37992	
159	0	33000	32836	37984	
160	0	33000	32828	37980	
161	0	32994	32824	37996	
162	0	32996	32832	37980	
163	0	32996	32832	38000	
164	0	32993	32832	38012	
165	0	32992	32837	38004	
166	0	32992	32829	38016	
167	0	32996	32818	38008	
168	0	32996	32820	38000	
169	0	32992	32816	38000	
170	0	33000	32820	37992	
171	0	32992	32832	37984	
172	0	32998	32833	37992	
173	0	33008	32828	37984	
174	0	33008	32828	38004	
175	0	33000	32820	37984	
176	0	33004	32832	37980	
177	0	33008	32824	37980	
178	0	32994	32836	37968	
179	0	32990	32832	37956	
180	0	33004	32828	37952	
181	0	33000	32824	37956	
182	0	32992	32832	37972	
183	0	32992	32832	37985	
184	0	33004	32824	37992	
185	0	32996	32826	37988	
186	0	32992	32832	37988	
187	0	33016	32824	37976	
188	0	33012	32821	38000	
189	0	33020	32820	38016	
190	0	33004	32832	38016	
191	0	32996	32832	38006	
192	0	33008	32832	38000	
193	0	33004	32832	37998	
194	0	33005	32836	37996	
195	0	33000	32832	38004	
196	0	33009	32840	37985	
197	0	33012	32832	37972	
198	0	33008	32836	37968	
199	0	33000	32852	37964	
200	0	32996	32836	37984	
201	0	32992	32832	37988	
202	0	32988	32844	38002	
203	0	33004	32836	37992	
204	0	33012	32836	37988	
205	0	33020	32840	37992	
206	0	33016	32832	37996	
207	0	33016	32836	38008	
208	0	33014	32832	38000	
209	0	33004	32844	37980	
210	0	33000	32832	37976	
211	0	33000	32840	37976	
212	0	33008	32836	37976	
213	0	32992	32852	37976	
214	0	32992	32848	37990	
215	0	33004	32842	37976	
216	0	33008	32828	37996	
217	0	32992	32832	37984	
218	0	32988	32840	37984	
219	0	33000	32836	37992	
220	0	32996	32832	37972	
221	0	33008	32833	37988	
222	0	32998	32824	38004	
223	0	32984	32820	37988	
224	0	32992	32812	37964	
225	0	33001	32833	37980	
226	0	32992	32832	37976	
227	0	33008	32828	37984	
228	0	33008	32816	37984	
229	0	33008	32816	37984	
230	0	33012	32820	38002	
231	0	32992	32836	38016	
232	0	33000	32840	38008	
233	0	32997	32834	37996	
234	0	32993	32837	37968	
235	0	32988	32845	37976	
236	0	32988	32848	37964	
237	0	32990	32850	37952	
238	0	32992	32836	37968	
239	0	32992	32832	37956	
240	0	32996	32844	37960	
241	0	32992	32846	37960	
242	0	32996	32844	37960	
243	0	33000	32844	37972	
244	0	32996	32844	37981	
245	0	32994	32836	37970	
246	0	32992	32848	37972	
247	0	32992	32848	37988	
248	0	32992	32832	38004	
249	0	32988	32844	37992	
250	0	32992	32852	37988	
251	0	32984	32848	37978	
252	0	32980	32840	37984	
253	0	32980	32832	38020	
254	0	32988	32834	38020	
255	0	32980	32828	38002	
256	0	32980	32828	38000	
257	0	32984	32841	37992	
258	0	32992	32840	37992	
259	0	33000	32838	37988	
260	0	32992	32840	38000	
261	0	32988	32844	37980	
262	0	32996	32832	37980	
263	0	33004	32828	37984	
264	0	33004	32834	37996	
265	0	32988	32844	37989	
266	0	32988	32848	37972	
267	0	32984	32844	37964	
268	0	32980	32848	37972	
269	0	32976	32860	37968	
270	0	32976	32864	37992	
271	0	32984	32852	38004	
272	0	32992	32856	37992	
273	0	32988	32844	37988	
274	0	32984	32848	37968	
275	0	32985	32828	37960	
276	0	32986	32832	38000	
277	0	32992	32824	37996	
278	0	32996	32824	38000	
279	0	32992	32820	37996	
280	0	32992	32820	37984	
281	0	32996	32824	37980	
282	0	33008	32817	37996	
283	0	33008	32820	38020	
284	0	33008	32824	38008	
285	0	33000	32825	38004	
286	0	33000	32836	38008	
287	0	33008	32818	37984	
288	0	32992	32821	37988	
289	0	33000	32813	37984	
290	0	33000	32824	37992	
291	0	32992	32828	37996	
292	0	32992	32832	38000	
293	0	32984	32838	37980	
294	0	32996	32832	37961	
295	0	33002	32832	37968	
296	0	32988	32820	37964	
297	0	33000	32817	37980	
298	0	32992	32820	37988	
299	0	33008	32828	37992	
300	0	33016	32812	37972	
301	0	33008	32828	37972	
302	0	33012	32828	37972	
303	0	33012	32820	37976	
304	0	33028	32812	37988	
305	0	33012	32832	37980	
306	0	33024	32836	37980	
307	0	33016	32833	37968	
308	0	33024	32828	37968	
309	0	32992	32848	37956	
310	0	33000	32840	37964	
311	0	33004	32844	37988	
312	0	32996	32836	37980	
313	0	32996	32848	37969	
314	0	32992	32840	37964	
315	0	32996	32844	37956	
316	0	32996	32844	37952	
317	0	32996	32852	37956	
318	0	33000	32852	37972	
319	0	33008	32832	37996	
320	0	33008	32836	38004	
321	0	33000	32836	38004	
322	0	33000	32840	37976	
323	0	33004	32828	37984	
324	0	33008	32844	37981	
325	0	33001	32844	37996	
326	0	32992	32864	37992	
327	0	32988	32864	37993	
328	0	32988	32860	37976	
329	0	32988	32862	37984	
330	0	32992	32852	37984	
331	0	32998	32836	37996	
332	0	33008	32830	37964	
333	0	33012	32832	37984	
334	0	32996	32832	38000	
335	0	33000	32844	38000	
336	0	33004	32860	38004	
337	0	33000	32856	38000	
338	0	33008	32844	37980	
339	0	33005	32844	37992	
340	0	32996	32860	37996	
341	0	33004	32840	38000	
342	0	32992	32844	37980	
343	0	33008	32840	38000	
344	0	32996	32844	38000	
345	0	33004	32844	38016	
346	0	33016	32848	38016	
347	0	33008	32849	38012	
348	0	32992	32848	38022	
349	0	33000	32844	37996	
350	0	32996	32852	37992	
351	0	32988	32840	37972	
352	0	32992	32832	37984	
353	0	32992	32848	37968	
354	0	33000	32848	37976	
355	0	33008	32850	37984	
356	0	32992	32852	37988	
357	0	33012	32840	37992	
358	0	33008	32844	37996	
359	0	33004	32852	37984	
360	0	33008	32844	37976	
361	0	33004	32836	37960	
362	0	33001	32824	37960	
363	0	33004	32844	37964	
364	0	33004	32836	37980	
365	0	33016	32832	37964	
366	0	33005	32832	37984	
367	0	32996	32828	37984	
368	0	33004	32840	37996	
369	0	32996	32844	38008	
370	0	32996	32845	37980	
371	0	33016	32832	37988	
372	0	33020	32836	37984	
373	0	33020	32824	37977	
374	0	33016	32820	37980	
375	0	33008	32832	37972	
376	0	33004	32836	38004	
377	0	33016	32816	38000	
378	0	33012	32828	37960	
379	0	33028	32816	37952	
380	0	33028	32828	37985	
381	0	33036	32820	37976	
382	0	33016	32826	37981	
383	0	33016	32826	37972	
384	0	33010	32824	37992	
385	0	32996	32820	37976	
386	0	32997	32824	37992	
387	0	32984	32820	37981	
388	0	32992	32824	37988	
389	0	32992	32816	37984	
390	0	32976	32825	37976	
391	0	32984	32808	37960	
392	0	32988	32808	37964	
393	0	32992	32804	37956	
394	0	32996	32808	37968	
395	0	32996	32800	37968	
396	0	33004	32800	37964	
397	0	32996	32808	37945	
398	0	33008	32812	37936	
399	0	33006	32816	37952	
400	0	33008	32812	37992	
401	0	33000	32820	37980	
402	0	32996	32832	37988	
403	0	32984	32840	37988	
404	0	32992	32836	37996	
405	0	32988	32840	38012	
406	0	32992	32844	37988	
407	0	32988	32832	37996	
408	0	32988	32840	37984	
409	0	32992	32841	37956	
410	0	32992	32836	37964	
411	0	32992	32836	37972	
412	0	32992	32836	37980	
413	0	32984	32828	37984	
414	0	32988	32838	37988	
415	0	32996	32817	37988	
416	0	33000	32816	38000	
417	0	32996	32824	37980	
418	0	32988	32824	37976	
419	0	32996	32828	37980	
420	0	32980	32836	37968	
421	0	32980	32840	37976	
422	0	32980	32836	37976	
423	0	32980	32842	37960	
424	0	32984	32841	37984	
425	0	32988	32844	37982	
426	0	32992	32837	37988	
427	0	33004	32836	37988	
428	0	32989	32828	37976	
429	0	32992	32836	37948	
430	0	32981	32840	37984	
431	0	32984	32846	37972	
432	0	32981	32848	37988	
433	0	32980	32844	37964	
434	0	32988	32840	37984	
435	0	32997	32836	37980	
436	0	32989	32846	37980	
437	0	32984	32824	37964	
438	0	32992	32816	37984	
439	0	32996	32824	37988	
440	0	32992	32828	37996	
441	0	33000	32840	38016	
442	0	32988	32840	38004	
443	0	32984	32856	37996	
444	0	32984	32844	37984	
445	0	32992	32844	37989	
446	0	32996	32833	37992	
447	0	32988	32844	37984	
448	0	32988	32844	37996	
449	0	32988	32840	38016	
450	0	32984	32836	37992	
451	0	32992	32832	37992	
452	0	32980	32844	37992	
453	0	32984	32825	37988	
454	0	32988	32828	38012	
455	0	32984	32832	37984	
456	0	32988	32824	37996	
457	0	32988	32816	38000	
458	0	32990	32820	37984	
459	0	32992	32820	37968	
460	0	32988	32816	37984	
461	0	32984	32812	37996	
462	0	32996	32812	37996	
463	0	32996	32812	38016	
464	0	33004	32824	38008	
465	0	32992	32832	37996	
466	0	32990	32824	38008	
467	0	32992	32820	37996	
468	0	32992	32832	37984	
469	0	32988	32832	37980	
470	0	32992	32828	37972	
471	0	32988	32836	37981	
472	0	32982	32840	38000	
473	0	32980	32836	37988	
474	0	32980	32832	37988	
475	0	32992	32820	37996	
476	0	32992	32826	37988	
477	0	33000	32828	37976	
478	0	33008	32820	37996	
479	0	33008	32808	37980	
480	0	33004	32808	37972	
481	0	33000	32808	37972	
482	0	33008	32814	37980	
483	0	32992	32812	37972	
484	0	33004	32816	37968	
485	0	33004	32824	37964	
486	0	33004	32816	37988	
487	0	33000	32804	37984	
488	0	33008	32814	37996	
489	0	32996	32825	37984	
490	0	33004	32824	37980	
491	0	33016	32816	37976	
492	0	32992	32822	37988	
493	0	32984	32832	38016	
494	0	32976	32840	38016	
495	0	32992	32828	37988	
496	0	32992	32840	37996	
497	0	33010	32824	37992	
498	0	33012	32828	37988	
499	0	33025	32836	37988	
500	0	33024	32836	37984	
501	0	33008	32840	37992	
502	0	33008	32844	37996	
503	0	33004	32848	37972	
504	0	33000	32856	37984	
505	0	32996	32860	37990	
506	0	33016	32844	37980	
507	0	33004	32854	37994	
508	0	33008	32844	38004	
509	0	33012	32840	38008	
510	0	33008	32832	38012	
511	0	33008	32832	38012	
512	0	33001	32824	38012	
513	0	33004	32832	38000	
514	0	33008	32832	38000	
515	0	33012	32832	38008	
516	0	33008	32836	37996	
517	0	33008	32832	37985	
518	0	32996	32845	37984	
519	0	32992	32844	37989	
520	0	32996	32828	37996	
521	0	33008	32832	37996	
522	0	32992	32832	37992	
523	0	33000	32836	37992	
524	0	33004	32832	37996	
525	0	33000	32816	37984	
526	0	33012	32828	37984	
527	0	33004	32824	38008	
528	0	33000	32814	38000	
529	0	33008	32804	37996	
530	0	33020	32804	37980	
531	0	33002	32824	37980	
532	0	32992	32828	37988	
533	0	32992	32840	37984	
534	0	32996	32852	37976	
535	0	32988	32848	37970	
536	0	33000	32828	37972	
537	0	33008	32836	37988	
538	0	32996	32828	38012	
539	0	33000	32828	38008	
540	0	32992	32824	38008	
541	0	32996	32832	38020	
542	0	32984	32834	38016	
543	0	32988	32814	38020	
544	0	32988	32828	38004	
545	0	32984	32828	38016	
546	0	32992	32822	37980	
547	0	32996	32836	37988	
548	0	32996	32828	38004	
549	0	32988	32832	37980	
550	0	33002	32829	37974	
551	0	32988	32840	37980	
552	0	32992	32832	37976	
553	0	32976	32840	37984	
554	0	32984	32840	37992	
555	0	32988	32828	37968	
556	0	32988	32840	37966	
557	0	32980	32848	37988	
558	0	32988	32840	37996	
559	0	32976	32836	37984	
560	0	32980	32852	37996	
561	0	32992	32852	37990	
562	0	32988	32848	37976	
563	0	32988	32844	37980	
564	0	32976	32848	38004	
565	0	32980	32852	38000	
566	0	32992	32836	37988	
567	0	32980	32836	37992	
568	0	32986	32816	37984	
569	0	32980	32829	37980	
570	0	32972	32834	37992	
571	0	32980	32828	38008	
572	0	32992	32828	38000	
573	0	33000	32832	38004	
574	0	32992	32820	38016	
575	0	32984	32826	38024	
576	0	32968	32836	38000	
577	0	32988	32848	38000	
578	0	32996	32832	38000	
579	0	33001	32829	38004	
580	0	32992	32826	38008	
581	0	32980	32825	37998	
582	0	32984	32832	37976	
583	0	32980	32840	37968	
584	0	32988	32832	37964	
585	0	32996	32832	37972	
586	0	32988	32826	37984	
587	0	32992	32820	38004	
588	0	32988	32840	38000	
589	0	32968	32833	37992	
590	0	32976	32836	37989	
591	0	32968	32836	37988	
592	0	32970	32828	37988	
593	0	32988	32828	37988	
594	0	32980	32836	37981	
595	0	32980	32841	37988	
596	0	32988	32844	37956	
597	0	32992	32836	37976	
598	0	32984	32832	37984	
599	0	32980	32844	37968	
600	0	32984	32836	37964	
601	0	32996	32833	37980	
602	0	33000	32832	37998	
603	0	32992	32836	37984	
604	0	33004	32844	37984	
605	0	32996	32840	37982	
606	0	32992	32832	37980	
607	0	32976	32848	37968	
608	0	32988	32840	37973	
609	0	32992	32844	37980	
610	0	33000	32841	37964	
611	0	33006	32826	38012	
612	0	33000	32829	38004	
613	0	33000	32816	37996	
614	0	33000	32828	37996	
615	0	33001	32826	37984	
616	0	33000	32828	37980	
617	0	33000	32836	37968	
618	0	32996	32836	37972	
619	0	32992	32844	37973	
620	0	32996	32836	37980	
621	0	32996	32844	37972	
622	0	32992	32844	37988	
623	0	33000	32840	38000	
624	0	32996	32832	38016	
625	0	33012	32825	37992	
626	0	32992	32832	37996	
627	0	32984	32848	37988	
628	0	32996	32840	37976	
629	0	33008	32832	38000	
630	0	33001	32833	37992	
631	0	32996	32846	37984	
632	0	32984	32852	37984	
633	0	32992	32844	38000	
634	0	32996	32840	37996	
635	0	32992	32848	37978	
636	0	33000	32848	37968	
637	0	33000	32840	37980	
638	0	33000	32841	37976	
639	0	33008	32844	37984	
640	0	33008	32820	38008	
641	0	33000	32832	38010	
642	0	32988	32848	38024	
643	0	32988	32832	38020	
644	0	32988	32852	38000	
645	0	32992	32840	37984	
646	0	33000	32844	37992	
647	0	33004	32836	38012	
648	0	33016	32836	38004	
649	0	33004	32832	38016	
650	0	32996	32832	38036	
651	0	32984	32832	38016	
652	0	32988	32824	38008	
653	0	32984	32834	37992	
654	0	32996	32832	38012	
655	0	33008	32825	38032	
656	0	33000	32832	38000	
657	0	32984	32836	37976	
658	0	32992	32836	37976	
659	0	32996	32825	38000	
660	0	32984	32848	37976	
661	0	32992	32836	37960	
662	0	32992	32844	37960	
663	0	32996	32844	37966	
664	0	32992	32840	38004	
665	0	32988	32832	37996	
666	0	33016	32833	37989	
667	0	32998	32836	37984	
668	0	32996	32832	37976	
669	0	33004	32828	37968	
670	0	32992	32828	37980	
671	0	32996	32828	37988	
672	0	33008	32832	38004	
673	0	32992	32824	38004	
674	0	32992	32832	38000	
675	0	33000	32828	37992	
676	0	33008	32828	38004	
677	0	33000	32834	37972	
678	0	32998	32842	37984	
679	0	32992	32844	37992	
680	0	32982	32840	37996	
681	0	32992	32840	37996	
682	0	32996	32844	38024	
683	0	32992	32832	38024	
684	0	32988	32841	38004	
685	0	32976	32848	37992	
686	0	32976	32856	37984	
687	0	32984	32846	37976	
688	0	32976	32832	37992	
689	0	32988	32832	38009	
690	0	32992	32832	38008	
691	0	32992	32828	37988	
692	0	32984	32832	37980	
693	0	32992	32844	38016	
694	0	32984	32848	38016	
695	0	32980	32848	37992	
696	0	32996	32842	37998	
697	0	32996	32860	38008	
698	0	32984	32852	38004	
699	0	32992	32861	37996	
700	0	32988	32852	37984	
701	0	32984	32856	38004	
702	0	32992	32852	37980	
703	0	32996	32832	38000	
704	0	32996	32834	38008	
705	0	32996	32832	38024	
706	0	32992	32844	38008	
707	0	33008	32842	37988	
708	0	33000	32840	37973	
709	0	33008	32820	37952	
710	0	33008	32814	37984	
711	0	33012	32804	37980	
712	0	33008	32816	37984	
713	0	33014	32825	37981	
714	0	33004	32824	37984	
715	0	33008	32816	37964	
716	0	33004	32820	37960	
717	0	32996	32832	37992	
718	0	32988	32820	38000	
719	0	32992	32828	38020	
720	0	32996	32828	38000	
721	0	33004	32830	37996	
722	0	33004	32814	37980	
723	0	33004	32820	37992	
724	0	32988	32833	37984	
725	0	32992	32844	38020	
726	0	32988	32840	37976	
727	0	33000	32836	37968	
728	0	32996	32844	37992	
729	0	33000	32852	37992	
730	0	32988	32848	38008	
731	0	32992	32840	38004	
732	0	32992	32840	37996	
733	0	33000	32846	37984	
734	0	33004	32856	37988	
735	0	33008	32842	37984	
736	0	33000	32848	37980	
737	0	33000	32840	38001	
738	0	33000	32829	37984	
739	0	32992	32833	37972	
740	0	32988	32824	37988	
741	0	32992	32824	37985	
742	0	32992	32840	37968	
743	0	32984	32836	37960	
744	0	32988	32840	37976	
745	0	32984	32836	38004	
746	0	32980	32836	37992	
747	0	32992	32836	38004	
748	0	32980	32836	37996	
749	0	32986	32836	38016	
750	0	32984	32840	38012	
751	0	32988	32836	38004	
752	0	32992	32832	37988	
753	0	32984	32840	37985	
754	0	32992	32842	37981	
755	0	32992	32840	37984	
756	0	32992	32840	37996	
757	0	33000	32844	37980	
758	0	33000	32840	37972	
759	0	32992	32834	37996	
760	0	32992	32840	38004	
761	0	32996	32836	38016	
762	0	32992	32836	37992	
763	0	32992	32840	37992	
764	0	32996	32824	38000	
765	0	32988	32828	37990	
766	0	32996	32828	37973	
767	0	32996	32833	37988	
768	0	32996	32820	37972	
769	0	32988	32844	37960	
770	0	32992	32836	37984	
771	0	32988	32844	37988	
772	0	32976	32852	37981	
773	0	32976	32848	38004	
774	0	32984	32846	37988	
775	0	33000	32826	38006	
776	0	32988	32844	38016	
777	0	32984	32856	37988	
778	0	33000	32850	38000	
779	0	32996	32864	38000	
780	0	32992	32856	37996	
781	0	32996	32856	37988	
782	0	32988	32844	37985	
783	0	33000	32840	37972	
784	0	33004	32842	37980	
785	0	33004	32836	37976	
786	0	32996	32832	37970	
787	0	33000	32832	38000	
788	0	33008	32840	37980	
789	0	33000	32832	37976	
790	0	32996	32844	37984	
791	0	32996	32832	37988	
792	0	32992	32844	38032	
793	0	32992	32842	38044	
794	0	32992	32856	38016	
795	0	32992	32850	37988	
796	0	33000	32840	37988	
797	0	32988	32836	37992	
798	0	32992	32848	37996	
799	0	32992	32856	37988	
800	0	33008	32860	37996	
801	0	33000	32860	37984	
802	0	32992	32860	37992	
803	0	32992	32868	37988	
804	0	32992	32866	38004	
805	0	32980	32852	38016	
806	0	32992	32848	38000	
807	0	33004	32840	38004	
808	0	33008	32832	38021	
809	0	32992	32840	38008	
810	0	32992	32840	37996	
811	0	32996	32846	37996	
812	0	32996	32844	37988	
813	0	32996	32848	37964	
814	0	32996	32841	37974	
815	0	32993	32848	37984	
816	0	32988	32846	37952	
817	0	33000	32840	37968	
818	0	33004	32836	37980	
819	0	33004	32852	38000	
820	0	33000	32844	38012	
821	0	33008	32848	37996	
822	0	33012	32844	38004	
823	0	32992	32836	38010	
824	0	32992	32833	38016	
825	0	32992	32832	37988	
826	0	32984	32832	37976	
827	0	33002	32824	37996	
828	0	32992	32828	38000	
829	0	32992	32824	38000	
830	0	32996	32820	38012	
831	0	33000	32809	38013	
832	0	33000	32828	38013	
833	0	33001	32824	38000	
834	0	33004	32820	38016	
835	0	33000	32820	38000	
836	0	33008	32832	37988	
837	0	33004	32820	37984	
838	0	33000	32826	37992	
839	0	32992	32836	37992	
840	0	32992	32832	38008	
841	0	32988	32828	38008	
842	0	32996	32836	38020	
843	0	32984	32840	38012	
844	0	32984	32828	38008	
845	0	32984	32832	37984	
846	0	32976	32832	37972	
847	0	32980	32828	37984	
848	0	32980	32836	37968	
849	0	32992	32824	37984	
850	0	32996	32820	37980	
851	0	33000	32824	37980	
852	0	32996	32820	37984	
853	0	32992	32820	37980	
854	0	32992	32830	37992	
855	0	32996	32824	37972	
856	0	32992	32828	37992	
857	0	32992	32820	37996	
858	0	32996	32804	37996	
859	0	32996	32826	37989	
860	0	32992	32828	37980	
861	0	32996	32824	37992	
862	0	33000	32798	37988	
863	0	32996	32812	37992	
864	0	32992	32824	37972	
865	0	32985	32820	37988	
866	0	32996	32813	37988	
867	0	33000	32816	37980	
868	0	32988	32816	37976	
869	0	32988	32812	37964	
870	0	32988	32820	37996	
871	0	32992	32816	37988	
872	0	32996	32824	37988	
873	0	33000	32832	38004	
874	0	33012	32826	37992	
875	0	33008	32824	37964	
876	0	33000	32828	37976	
877	0	32992	32832	37988	
878	0	32992	32832	37992	
879	0	32988	32820	37984	
880	0	32976	32836	37972	
881	0	32988	32840	37972	
882	0	32992	32840	37984	
883	0	32992	32842	38000	
884	0	32989	32836	37984	
885	0	32992	32840	37976	
886	0	32988	32848	37968	
887	0	32988	32840	37976	
888	0	32992	32832	37952	
889	0	32984	32844	37988	
890	0	32976	32840	38004	
891	0	32984	32836	38008	
892	0	32996	32834	37984	
893	0	33004	32832	37992	
894	0	33000	32820	37988	
895	0	32992	32834	37984	
896	0	33012	32836	38008	
897	0	33008	32832	38008	
898	0	33004	32836	37988	
899	0	32992	32840	37960	
900	0	32992	32832	37976	
901	0	32980	32832	37972	
902	0	32976	32832	37988	
903	0	32984	32832	37976	
904	0	32992	32824	37984	
905	0	33004	32824	37972	
906	0	32996	32832	37976	
907	0	33000	32841	37968	
908	0	32992	32844	37972	
909	0	32996	32846	37994	
910	0	33008	32832	38008	
911	0	32992	32840	38016	
912	0	32984	32836	38004	
913	0	32992	32836	38002	
914	0	33000	32836	38024	
915	0	33002	32832	38000	
916	0	33000	32820	37996	
917	0	33012	32816	37988	
918	0	33000	32816	37988	
919	0	32996	32824	37992	
920	0	32996	32824	37992	
921	0	32992	32836	38008	
922	0	32992	32820	37996	
923	0	32992	32824	37988	
924	0	32992	32840	37988	
925	0	32984	32844	37996	
926	0	32992	32832	37984	
927	0	32984	32820	37984	
928	0	32992	32828	38000	
929	0	32984	32824	37996	
930	0	32984	32828	38006	
931	0	32984	32844	37992	
932	0	32992	32836	38004	
933	0	32992	32844	38000	
934	0	32988	32836	37982	
935	0	32988	32840	37984	
936	0	32980	32832	37980	
937	0	32984	32824	37992	
938	0	32988	32816	37980	
939	0	33004	32824	37976	
940	0	32980	32828	37984	
941	0	32980	32824	37992	
942	0	32992	32816	37992	
943	0	32993	32812	38000	
944	0	32984	32832	38016	
945	0	32996	32828	38012	
946	0	32992	32840	38012	
947	0	32976	32840	37996	
948	0	32984	32848	37992	
949	0	32984	32844	37980	
950	0	32992	32838	37984	
951	0	32996	32832	37992	
952	0	33000	32832	37992	
953	0	32992	32832	37996	
954	0	32988	32834	38004	
955	0	32992	32832	38012	
956	0	33000	32828	38000	
957	0	33000	32828	38000	
958	0	32996	32828	38004	
959	0	33000	32824	38004	
960	0	33000	32840	38012	
961	0	32984	32846	38000	
962	0	32988	32842	37996	
963	0	32992	32848	37996	
964	0	32980	32852	37984	
965	0	32976	32868	37988	
966	0	32964	32876	37982	
967	0	32985	32856	37992	
968	0	32984	32856	37992	
969	0	32988	32848	37972	
970	0	32992	32852	37988	
971	0	32984	32856	37982	
972	0	32976	32856	37984	
973	0	32984	32852	38000	
974	0	32988	32852	38020	
975	0	32984	32848	38028	
976	0	32988	32832	38008	
977	0	32992	32840	38004	
978	0	32984	32836	38000	
979	0	32992	32832	37976	
980	0	32992	32836	37980	
981	0	32984	32848	37968	
982	0	32992	32844	37988	
983	0	32992	32842	37984	
984	0	32992	32844	38000	
985	0	32996	32840	38004	
986	0	32988	32848	37996	
987	0	32992	32860	37984	
988	0	32988	32856	37984	
989	0	33000	32840	37992	
990	0	32984	32848	37984	
991	0	32992	32852	37980	
992	0	32988	32848	37992	
993	0	33000	32842	37976	
994	0	33004	32836	37980	
995	0	32996	32838	37976	
996	0	32994	32844	37996	
997	0	33008	32820	38008	
998	0	32992	32836	38008	
999	0	32992	32825	37996	
1000	0	32988	32832	38012	
1001	0	32984	32820	38000	
1002	0	32984	32828	37976	
1003	0	32989	32824	37976	
1004	0	32996	32832	37978	
1005	0	32976	32828	37996	
1006	0	32977	32828	37996	
1007	0	32996	32820	37988	
1008	0	32997	32820	37960	
1009	0	32996	32824	37980	
1010	0	32992	32821	37976	
1011	0	32988	32830	37972	
1012	0	32992	32826	37972	
1013	0	32992	32832	37964	
1014	0	32988	32836	37984	
1015	0	32992	32834	37988	
1016	0	32984	32828	38008	
1017	0	32992	32834	37996	
1018	0	32996	32836	38024	
1019	0	32980	32832	38008	
1020	0	32980	32825	37996	
1021	0	32984	32828	37988	
1022	0	32984	32826	38004	
1023	0	32988	32824	37992	
1024	0	32980	32828	37992	
1025	0	32984	32836	38004	
1026	0	32984	32836	38008	
1027	0	32988	32832	37993	
1028	0	32968	32848	37981	
1029	0	32988	32840	37984	
1030	0	32980	32840	37993	
1031	0	32996	32836	37988	
1032	0	32992	32832	37988	
1033	0	33016	32820	38000	
1034	0	33020	32824	38000	
1035	0	32992	32834	38008	
1036	0	32992	32828	37996	
1037	0	32992	32828	38012	
1038	0	32996	32820	37992	
1039	0	32992	32824	37983	
1040	0	33004	32820	37989	
1041	0	32992	32828	38016	
1042	0	32992	32828	38004	
1043	0	32980	32836	37984	
1044	0	32984	32828	37992	
1045	0	32988	32828	38004	
1046	0	32968	32832	38015	
1047	0	32988	32832	38016	
1048	0	32996	32820	38004	
1049	0	33000	32812	37997	
1050	0	32992	32820	37989	
1051	0	32992	32824	38004	
1052	0	32992	32816	38004	
1053	0	32980	32832	38016	
1054	0	32980	32832	38008	
1055	0	32980	32832	37988	
1056	0	32988	32832	37976	
1057	0	32992	32828	37976	
1058	0	32992	32824	37972	
1059	0	33004	32829	38000	
1060	0	32988	32832	37996	
1061	0	33008	32836	38000	
1062	0	32996	32836	37988	
1063	0	32992	32832	37988	
1064	0	33004	32828	37996	
1065	0	33000	32822	38004	
1066	0	33004	32824	37996	
1067	0	33008	32828	37996	
1068	0	33004	32828	38000	
1069	0	33000	32836	38004	
1070	0	33002	32836	38008	
1071	0	32992	32848	38028	
1072	0	32980	32842	38008	
1073	0	32988	32832	38021	
1074	0	33004	32822	38016	
1075	0	33004	32832	37984	
1076	0	32988	32840	37968	
1077	0	32984	32848	37960	
1078	0	32988	32837	37968	
1079	0	32992	32824	37964	
1080	0	32988	32824	37964	
1081	0	32992	32840	37980	
1082	0	33000	32840	37990	
1083	0	33004	32832	37984	
1084	0	33000	32840	37956	
1085	0	32996	32832	37980	
1086	0	33008	32836	37984	
1087	0	33009	32836	37964	
1088	0	33012	32840	37964	
1089	0	33004	32852	37980	
1090	0	33012	32852	38000	
1091	0	33008	32852	38004	
1092	0	33014	32854	37984	
1093	0	33024	32848	38000	
1094	0	33016	32852	37988	
1095	0	33000	32852	37964	
1096	0	33004	32848	37976	
1097	0	33004	32852	37985	
1098	0	33008	32856	37980	
1099	0	33008	32848	37976	
1100	0	33008	32844	37980	
1101	0	32993	32836	37988	
1102	0	33000	32832	37998	
1103	0	33000	32832	38008	
1104	0	33004	32832	38000	
1105	0	33004	32832	38000	
1106	0	32996	32844	37996	
1107	0	33008	32836	38000	
1108	0	33016	32824	37988	
1109	0	33004	32828	38000	
1110	0	33004	32824	37992	
1111	0	33000	32836	37972	
1112	0	33004	32844	38000	
1113	0	33006	32844	38012	
1114	0	33020	32844	37968	
1115	0	33016	32844	37960	
1116	0	33028	32828	37972	
1117	0	33016	32816	37968	
1118	0	33012	32832	37952	
1119	0	33024	32828	37972	
1120	0	33004	32825	37996	
1121	0	33012	32816	37984	
1122	0	33012	32808	37980	
1123	0	33012	32812	37976	
1124	0	33012	32824	37960	
1125	0	33012	32824	37980	
1126	0	33004	32832	37988	
1127	0	33008	32824	37984	
1128	0	33008	32829	37952	
1129	0	33020	32828	37968	
1130	0	33020	32828	37962	
1131	0	33012	32832	37972	
1132	0	32996	32832	37984	
1133	0	33008	32824	37992	
1134	0	32988	32820	37992	
1135	0	33012	32828	37980	
1136	0	33016	32822	37988	
1137	0	33013	32816	37986	
1138	0	32996	32828	37988	
1139	0	33004	32828	37996	
1140	0	33012	32824	37968	
1141	0	33012	32828	37984	
1142	0	33004	32832	37992	
1143	0	33000	32844	37992	
1144	0	33000	32832	38000	
1145	0	32988	32832	38004	
1146	0	32989	32832	37996	
1147	0	32992	32828	37988	
1148	0	32996	32824	37980	
1149	0	32992	32826	37980	
1150	0	33000	32840	37972	
1151	0	33000	32824	37988	
1152	0	33000	32824	37976	
1153	0	33004	32820	37992	
1154	0	32992	32824	37992	
1155	0	32984	32824	37984	
1156	0	32976	32820	37981	
1157	0	32992	32820	37972	
1158	0	32984	32826	37988	
1159	0	33000	32816	37984	
1160	0	32988	32828	37993	
1161	0	32993	32809	38020	
1162	0	32996	32816	38030	
1163	0	32984	32820	38017	
1164	0	32984	32820	38000	
1165	0	32976	32830	37968	
1166	0	32978	32828	37996	
1167	0	32978	32816	37996	
1168	0	32984	32820	38004	
1169	0	32984	32816	38004	
1170	0	32992	32816	38000	
1171	0	32992	32822	37984	
1172	0	33004	32816	37977	
1173	0	32988	32816	37988	
1174	0	33000	32808	37984	
1175	0	32996	32812	37984	
1176	0	33000	32816	37964	
1177	0	33000	32808	37968	
1178	0	33000	32810	37988	
1179	0	33004	32800	37984	
1180	0	32996	32824	37984	
1181	0	33000	32832	38000	
1182	0	33016	32834	37992	
1183	0	33005	32832	38005	
1184	0	33008	32832	38016	
1185	0	33000	32836	38020	
1186	0	33008	32840	38016	
1187	0	33000	32836	38016	
1188	0	33004	32832	38016	
1189	0	33008	32832	38012	
1190	0	33016	32820	38008	
1191	0	33004	32828	38028	
1192	0	33016	32824	38012	
1193	0	33009	32832	37984	
1194	0	33012	32828	37972	
1195	0	33012	32826	37962	
1196	0	32998	32820	37972	
1197	0	33000	32828	37992	
1198	0	32996	32828	37984	
1199	0	32996	32814	37984	
1200	0	32996	32822	37980	
1201	0	32992	32828	37976	
1202	0	33000	32816	37980	
1203	0	33000	32812	37972	
1204	0	32992	32812	37980	
1205	0	32996	32816	37988	
1206	0	33004	32816	37996	
1207	0	33000	32832	37972	
1208	0	32996	32816	37952	
1209	0	32996	32816	37972	
1210	0	33004	32828	37988	
1211	0	33000	32812	37980	
1212	0	33000	32816	37960	
1213	0	33000	32820	37944	
1214	0	33026	32808	37956	
1215	0	33012	32816	37972	
1216	0	33004	32822	37980	
1217	0	33008	32817	37988	
1218	0	33016	32820	37992	
1219	0	33016	32832	38008	
1220	0	33008	32840	37992	
1221	0	33008	32848	37977	
1222	0	33008	32836	37992	
1223	0	33000	32842	37980	
1224	0	33008	32852	37984	
1225	0	33016	32832	38009	
1226	0	33012	32852	38008	
1227	0	33008	32841	38012	
1228	0	33016	32844	37996	
1229	0	33012	32844	38016	
1230	0	33008	32852	38016	
1231	0	33004	32852	37996	
1232	0	33008	32850	37972	
1233	0	32992	32853	37992	
1234	0	32996	32864	38000	
1235	0	33008	32860	38004	
1236	0	33000	32860	38020	
1237	0	33000	32860	38040	
1238	0	33008	32854	38028	
1239	0	33032	32860	38020	
1240	0	33024	32860	38004	
1241	0	33020	32853	37988	
1242	0	33004	32852	37984	
1243	0	33000	32856	37992	
1244	0	33000	32856	37984	
1245	0	33004	32856	37994	
1246	0	33008	32856	37976	
1247	0	32992	32869	37984	
1248	0	33004	32858	37992	
1249	0	33016	32845	37992	
1250	0	32998	32864	38008	
1251	0	32996	32860	38008	
1252	0	32996	32852	38012	
1253	0	33000	32836	38004	
1254	0	32996	32840	37992	
1255	0	32992	32846	38008	
1256	0	32992	32836	38022	
1257	0	32996	32812	37998	
1258	0	33000	32836	38004	
1259	0	33000	32816	38004	
1260	0	33008	32825	38000	
1261	0	32999	32812	37998	
1262	0	33012	32816	38008	
1263	0	33000	32828	37988	
1264	0	32992	32818	37988	
1265	0	32992	32820	38000	
1266	0	33008	32816	37972	
1267	0	33012	32809	37972	
1268	0	33008	32808	37968	
1269	0	33004	32808	37984	
1270	0	33004	32816	37976	
1271	0	33004	32824	37984	
1272	0	33004	32820	37988	
1273	0	33000	32816	37992	
1274	0	32996	32813	37990	
1275	0	32996	32820	38008	
1276	0	32992	32812	38012	
1277	0	32992	32808	38012	
1278	0	32984	32808	37988	
1279	0	32992	32812	37988	
1280	0	33001	32820	37984	
1281	0	33004	32820	37964	
1282	0	33004	32816	37969	
1283	0	33004	32809	37972	
1284	0	32984	32816	37980	
1285	0	32992	32808	37968	
1286	0	32992	32812	37996	
1287	0	33000	32804	37996	
1288	0	33000	32812	37976	
1289	0	33008	32824	37976	
1290	0	33010	32836	37972	
1291	0	33016	32837	37988	
1292	0	33002	32848	37980	
1293	0	33004	32840	37988	
1294	0	33004	32824	37988	
1295	0	32992	32820	38004	
1296	0	33000	32816	38016	
1297	0	32996	32816	38004	
1298	0	32985	32812	38010	
1299	0	32984	32808	38008	
1300	0	32992	32808	37980	
1301	0	32992	32816	37988	
1302	0	32996	32810	37993	
1303	0	32996	32808	37952	
1304	0	32992	32796	37965	
1305	0	32992	32788	37960	
1306	0	32996	32800	37960	
1307	0	32984	32808	37980	
1308	0	33000	32808	38000	
1309	0	32988	32808	37976	
1310	0	32996	32812	37980	
1311	0	32992	32804	37988	
1312	0	32984	32804	37993	
1313	0	32992	32812	37984	
1314	0	33000	32796	37980	
1315	0	32996	32800	37989	
1316	0	33000	32796	37972	
1317	0	32996	32802	37976	
1318	0	32992	32804	37980	
1319	0	32992	32794	37980	
1320	0	32988	32788	37972	
1321	0	33004	32793	37980	
1322	0	32996	32796	37980	
1323	0	32992	32796	37980	
1324	0	33008	32796	37966	
1325	0	33008	32792	37984	
1326	0	33008	32788	37996	
1327	0	33000	32804	37996	
1328	0	32996	32812	37992	
1329	0	32996	32808	37989	
1330	0	32996	32804	37996	
1331	0	33008	32800	37996	
1332	0	32996	32796	37980	
1333	0	33000	32794	37980	
1334	0	33012	32792	37968	
1335	0	33004	32800	37972	
1336	0	33000	32804	37988	
1337	0	33004	32804	37972	
1338	0	33012	32812	37984	
1339	0	32996	32804	37992	
1340	0	33004	32813	38004	
1341	0	33004	32812	37984	
1342	0	33004	32808	38020	
1343	0	33000	32816	38000	
1344	0	32992	32831	37984	
1345	0	33000	32820	37996	
1346	0	33008	32812	37984	
1347	0	32992	32832	37976	
1348	0	32992	32828	37952	
1349	0	32988	32828	37976	
1350	0	33000	32824	37984	
1351	0	32992	32824	38000	
1352	0	33000	32832	37976	
1353	0	32996	32832	37972	
1354	0	33000	32828	37976	
1355	0	33000	32828	37984	
1356	0	33008	32822	37984	
1357	0	33012	32816	37982	
1358	0	33008	32828	37980	
1359	0	33016	32825	37980	
1360	0	33020	32808	38020	
1361	0	33016	32816	38012	
1362	0	33004	32824	37988	
1363	0	33016	32812	37984	
1364	0	33012	32820	37988	
1365	0	32992	32816	37988	
1366	0	32988	32821	37978	
1367	0	32992	32824	37992	
1368	0	33004	32816	37996	
1369	0	33012	32820	37988	
1370	0	33020	32828	37964	
1371	0	33024	32832	37974	
1372	0	33016	32837	37972	
1373	0	33008	32848	37984	
1374	0	32992	32864	38020	
1375	0	32992	32864	38016	
1376	0	32992	32866	38008	
1377	0	32996	32864	38016	
1378	0	33000	32860	38006	
1379	0	32992	32860	38016	
1380	0	32996	32844	38000	
1381	0	32997	32844	38008	
1382	0	32992	32840	37992	
1383	0	32996	32844	38000	
1384	0	33008	32844	37992	
1385	0	33000	32844	37996	
1386	0	33004	32852	37964	
1387	0	33008	32856	37964	
1388	0	33008	32844	37992	
1389	0	32988	32860	37973	
1390	0	32992	32856	37992	
1391	0	32997	32860	37980	
1392	0	32980	32866	37990	
1393	0	33000	32848	38012	
1394	0	32996	32864	37988	
1395	0	32992	32864	37996	
1396	0	32992	32864	37992	
1397	0	32988	32860	38004	
1398	0	32984	32864	38012	
1399	0	32984	32870	37996	
1400	0	32984	32860	37977	
1401	0	32980	32872	37976	
1402	0	32984	32872	37988	
1403	0	32984	32864	37996	
1404	0	32984	32860	37998	
1405	0	33000	32852	37989	
1406	0	33004	32858	38000	
1407	0	33008	32864	37996	
1408	0	33008	32876	37996	
1409	0	33024	32880	37992	
1410	0	33030	32856	37972	
1411	0	33020	32860	37977	
1412	0	33001	32860	37988	
1413	0	33004	32858	37984	
1414	0	32988	32868	37996	
1415	0	33004	32864	37984	
1416	0	33008	32860	37992	
1417	0	33012	32856	37988	
1418	0	33004	32868	37960	
1419	0	33000	32860	37952	
1420	0	32996	32868	37960	
1421	0	33010	32852	37968	
1422	0	33004	32844	37972	
1423	0	33012	32832	37984	
1424	0	33008	32840	37976	
1425	0	33008	32844	37976	
1426	0	33002	32840	37968	
1427	0	33000	32840	37976	
1428	0	33008	32816	37966	
1429	0	33004	32824	37976	
1430	0	33014	32816	37980	
1431	0	33020	32824	38004	
1432	0	33028	32820	37996	
1433	0	33018	32824	38004	
1434	0	33032	32812	38000	
1435	0	33024	32828	37985	
1436	0	33016	32832	37996	
1437	0	33012	32824	38000	
1438	0	32996	32836	37976	
1439	0	32988	32828	37984	
1440	0	32992	32824	37980	
1441	0	32992	32828	37968	
1442	0	33000	32828	37985	
1443	0	32996	32833	37980	
1444	0	33000	32824	37968	
1445	0	33000	32820	37972	
1446	0	32992	32834	37984	
1447	0	33000	32824	37976	
1448	0	33000	32816	37973	
1449	0	33000	32820	37992	
1450	0	32997	32812	38000	
1451	0	32992	32828	37996	
1452	0	32992	32828	38004	
1453	0	33000	32818	37988	
1454	0	32994	32816	37992	
1455	0	32996	32816	37980	
1456	0	32988	32824	37993	
1457	0	32980	32832	38004	
1458	0	32992	32848	37996	
1459	0	32992	32848	38000	
1460	0	32988	32840	37988	
1461	0	32978	32848	37996	
1462	0	32970	32836	38000	
1463	0	32964	32844	38005	
1464	0	32969	32845	37988	
1465	0	32980	32842	37972	
1466	0	32996	32848	37984	
1467	0	32985	32838	37980	
1468	0	32996	32816	37972	
1469	0	33004	32832	37992	
1470	0	32996	32836	37972	
1471	0	32996	32832	37980	
1472	0	32992	32844	37972	
1473	0	32984	32832	38004	
1474	0	32988	32844	38000	
1475	0	32980	32846	37988	
1476	0	32984	32834	37992	
1477	0	32984	32832	37996	
1478	0	32992	32828	38008	
1479	0	32988	32836	38004	
1480	0	32992	32836	38004	
1481	0	32988	32832	37996	
1482	0	32986	32840	38000	
1483	0	32996	32832	38012	
1484	0	32992	32820	38028	
1485	0	32992	32816	38028	
1486	0	32992	32820	37988	
1487	0	32992	32820	37972	
1488	0	32992	32828	37988	
1489	0	33000	32832	37988	
1490	0	33000	32840	38004	
1491	0	33000	32840	38012	
1492	0	33008	32844	38000	
1493	0	33024	32832	37988	
1494	0	33016	32828	38000	
1495	0	33012	32828	37988	
1496	0	33000	32832	37960	
1497	0	33004	32836	37980	
1498	0	33004	32837	37972	
1499	0	33016	32836	37960	
1500	0	33020	32844	37984	
1501	0	33000	32836	37972	
1502	0	33008	32830	37972	
1503	0	33004	32820	37992	
1504	0	33008	32820	38012	
1505	0	33016	32820	38024	
1506	0	33024	32816	38000	
1507	0	33020	32832	38012	
1508	0	33000	32834	37988	
1509	0	33004	32854	37988	
1510	0	33004	32840	37980	
1511	0	33016	32833	37964	
1512	0	32996	32837	37981	
1513	0	33000	32844	37976	
1514	0	32992	32848	37982	
1515	0	32984	32852	37976	
1516	0	32988	32838	37980	
1517	0	32992	32836	37984	
1518	0	33000	32832	37948	
1519	0	32992	32842	37960	
1520	0	32996	32846	37988	
1521	0	32992	32840	37980	
1522	0	33000	32844	37960	
1523	0	32980	32848	37968	
1524	0	32980	32848	37964	
1525	0	32992	32832	37952	
1526	0	33000	32834	37948	
1527	0	32984	32836	37960	
1528	0	32984	32832	37968	
1529	0	32984	32832	37990	
1530	0	32980	32824	37976	
1531	0	32988	32824	37984	
1532	0	32968	32828	37984	
1533	0	32976	32824	37956	
1534	0	32976	32824	37964	
1535	0	32977	32832	37972	
1536	0	32968	32832	37988	
1537	0	32964	32832	38001	
1538	0	32968	32842	38008	
1539	0	32974	32836	37984	
1540	0	32964	32840	37972	
1541	0	32976	32848	37960	
1542	0	32976	32836	37996	
1543	0	32984	32846	38004	
1544	0	32976	32848	37996	
1545	0	32968	32836	38000	
1546	0	32968	32848	38008	
1547	0	32976	32860	38010	
1548	0	32972	32856	38008	
1549	0	32976	32848	38008	
1550	0	32976	32848	38000	
1551	0	32984	32844	37992	
1552	0	32976	32836	37984	
1553	0	32984	32841	37972	
1554	0	32969	32841	37992	
1555	0	32972	32836	37988	
1556	0	32972	32824	37992	
1557	0	32976	32820	37988	
1558	0	32996	32808	37988	
1559	0	32996	32808	37984	
1560	0	32996	32808	37992	
1561	0	33001	32824	38004	
1562	0	32992	32812	38000	
1563	0	32992	32824	37992	
1564	0	33001	32824	37984	
1565	0	32992	32824	37976	
1566	0	32994	32821	37968	
1567	0	33008	32816	37976	
1568	0	33008	32808	37984	
1569	0	33004	32816	37964	
1570	0	33004	32822	37976	
1571	0	32993	32824	37964	
1572	0	33000	32834	37948	
1573	0	33000	32836	37980	
1574	0	32992	32836	37976	
1575	0	32992	32840	37980	
1576	0	33008	32824	37997	
1577	0	33012	32832	38004	
1578	0	33008	32824	38020	
1579	0	33008	32816	38000	
1580	0	33004	32816	37992	
1581	0	33012	32824	37992	
1582	0	33012	32812	38012	
1583	0	33008	32812	38024	
1584	0	33004	32824	38008	
1585	0	33000	32833	37992	
1586	0	32992	32828	37988	
1587	0	32997	32832	37988	
1588	0	33004	32836	38008	
1589	0	32996	32832	38008	
1590	0	33000	32824	38016	
1591	0	33004	32820	38012	
1592	0	33008	32824	37996	
1593	0	33004	32820	37988	
1594	0	33008	32824	37992	
1595	0	33024	32840	37980	
1596	0	33012	32836	37984	
1597	0	32996	32840	37982	
1598	0	32992	32852	37988	
1599	0	33008	32834	37964	
1600	0	32996	32836	37988	
1601	0	32992	32832	37992	
1602	0	32974	32829	37988	
1603	0	32992	32824	37976	
1604	0	32980	32824	37996	
1605	0	32980	32833	38004	
1606	0	32988	32832	38004	
1607	0	32996	32828	38016	
1608	0	32992	32840	38004	
1609	0	32992	32836	38016	
1610	0	32988	32838	37980	
1611	0	32988	32841	37980	
1612	0	32996	32832	37984	
1613	0	32996	32828	37980	
1614	0	32988	32836	37968	
1615	0	32984	32848	37988	
1616	0	32992	32852	37996	
1617	0	32988	32858	38000	
1618	0	32992	32856	38032	
1619	0	32988	32865	38016	
1620	0	32992	32856	38016	
1621	0	33000	32854	38000	
1622	0	32980	32864	37994	
1623	0	32992	32868	37964	
1624	0	32992	32868	37968	
1625	0	32996	32852	37998	
1626	0	33000	32858	38000	
1627	0	32992	32868	38016	
1628	0	32996	32864	38024	
1629	0	32984	32876	37992	
1630	0	32992	32868	37988	
1631	0	32992	32864	38000	
1632	0	32984	32864	38020	
1633	0	32980	32869	38004	
1634	0	32984	32868	37996	
1635	0	32992	32872	37996	
1636	0	32993	32868	37984	
1637	0	32996	32852	37976	
1638	0	32980	32861	37980	
1639	0	32988	32860	37984	
1640	0	32996	32856	38000	
1641	0	32985	32856	38000	
1642	0	33004	32868	38000	
1643	0	32994	32870	37992	
1644	0	32996	32868	37988	
1645	0	33000	32868	37996	
1646	0	33000	32864	37984	
1647	0	32996	32872	37968	
1648	0	32988	32864	37972	
1649	0	32992	32852	37976	
1650	0	32984	32858	37968	
1651	0	32992	32854	37986	
1652	0	33004	32852	37980	
1653	0	33000	32840	37988	
1654	0	32992	32832	38012	
1655	0	32992	32836	38000	
1656	0	32994	32836	38016	
1657	0	32996	32824	38004	
1658	0	32996	32824	37980	
1659	0	33000	32832	37992	
1660	0	33004	32832	37976	
1661	0	33000	32820	37968	
1662	0	32996	32816	37976	
1663	0	32992	32824	37988	
1664	0	33000	32828	37984	
1665	0	33000	32824	38000	
1666	0	33004	32824	37992	
1667	0	33004	32820	37992	
1668	0	32992	32836	37984	
1669	0	33004	32828	37972	
1670	0	33008	32832	38000	
1671	0	33004	32828	37992	
1672	0	33000	32826	37978	
1673	0	32992	32828	37976	
1674	0	32992	32832	38008	
1675	0	32985	32836	37988	
1676	0	32992	32840	37968	
1677	0	32992	32840	37984	
1678	0	32984	32832	37968	
1679	0	33000	32836	37964	
1680	0	33008	32824	37980	
1681	0	33008	32828	37976	
1682	0	32992	32826	37996	
1683	0	33000	32828	37992	
1684	0	32992	32822	38004	
1685	0	33000	32832	37988	
1686	0	33000	32828	37996	
1687	0	32984	32836	37976	
1688	0	32984	32848	37976	
1689	0	32989	32842	37984	
1690	0	32992	32848	37986	
1691	0	33000	32840	37976	
1692	0	33000	32832	37968	
1693	0	33000	32836	37964	
1694	0	32996	32844	37992	
1695	0	32988	32852	37992	
1696	0	32984	32852	37984	
1697	0	32992	32839	37988	
1698	0	32992	32833	38012	
1699	0	32988	32828	38004	
1700	0	32988	32832	37992	
1701	0	32984	32832	37988	
1702	0	32984	32840	37984	
1703	0	32984	32844	37996	
1704	0	32980	32836	37996	
1705	0	32984	32844	37984	
1706	0	32984	32838	38000	
1707	0	32980	32848	37996	
1708	0	32984	32836	37997	
1709	0	32997	32832	37980	
1710	0	33004	32824	38012	
1711	0	33000	32828	38004	
1712	0	32988	32828	38006	
1713	0	32992	32824	38004	
1714	0	33004	32817	37984	
1715	0	33000	32828	37992	
1716	0	32996	32828	37996	
1717	0	32992	32840	38004	
1718	0	32992	32836	37996	
1719	0	32985	32836	37992	
1720	0	32973	32848	37980	
1721	0	32984	32836	37988	
1722	0	32984	32840	37996	
1723	0	32988	32849	37992	
1724	0	32984	32848	37976	
1725	0	32972	32844	37992	
1726	0	32968	32840	37996	
1727	0	32976	32844	38024	
1728	0	32992	32848	38008	
1729	0	33004	32836	38012	
1730	0	33000	32840	38013	
1731	0	32988	32860	38014	
1732	0	33008	32848	38028	
1733	0	33000	32840	38037	
1734	0	33004	32852	38044	
1735	0	33008	32844	38032	
1736	0	33004	32840	38036	
1737	0	33020	32840	38032	
1738	0	33008	32836	38012	
1739	0	33000	32848	38004	
1740	0	32992	32860	38000	
1741	0	32992	32860	37984	
1742	0	33000	32844	37984	
1743	0	33004	32840	37988	
1744	0	32988	32852	37988	
1745	0	33001	32844	37984	
1746	0	33000	32852	37968	
1747	0	32996	32862	37964	
1748	0	32996	32856	37960	
1749	0	33000	32848	37960	
1750	0	32996	32852	37952	
1751	0	32992	32849	37936	
1752	0	32994	32844	37980	
1753	0	32992	32844	37992	
1754	0	32996	32845	37974	
1755	0	33000	32856	37988	
1756	0	32992	32864	37984	
1757	0	33000	32872	37980	
1758	0	32988	32852	38001	
1759	0	33000	32840	37996	
1760	0	32996	32848	38008	
1761	0	32992	32848	38004	
1762	0	33000	32856	37984	
1763	0	32992	32848	37972	
1764	0	32992	32844	37972	
1765	0	33004	32836	37972	
1766	0	32996	32828	37996	
1767	0	32992	32842	37976	
1768	0	33004	32832	37984	
1769	0	33000	32828	37984	
1770	0	32996	32816	37976	
1771	0	33000	32824	37978	
1772	0	32992	32840	37980	
1773	0	32996	32820	37984	
1774	0	33008	32816	37972	
1775	0	33004	32820	37968	
1776	0	32996	32824	37976	
1777	0	32992	32832	38000	
1778	0	32997	32824	38004	
1779	0	32988	32832	38004	
1780	0	32984	32828	37996	
1781	0	32984	32832	38006	
1782	0	32992	32836	37984	
1783	0	32992	32844	37992	
1784	0	32988	32836	37984	
1785	0	32984	32840	37980	
1786	0	32992	32849	37992	
1787	0	33000	32844	37980	
1788	0	32996	32844	37980	
1789	0	32992	32848	37988	
1790	0	32992	32845	37993	
1791	0	32984	32840	37992	
1792	0	32968	32864	37966	
1793	0	32968	32848	37976	
1794	0	32984	32834	37976	
1795	0	32968	32836	37964	
1796	0	32988	32816	37976	
1797	0	32988	32812	37980	
1798	0	32980	32824	37977	
1799	0	32980	32817	37988	
1800	0	32976	32821	37992	
1801	0	32984	32820	37980	
1802	0	32981	32824	37980	
1803	0	32996	32816	37964	
1804	0	32988	32816	37984	
1805	0	32968	32816	37988	
1806	0	32980	32816	37972	
1807	0	32976	32824	37969	
1808	0	32992	32817	37972	
1809	0	32980	32812	37986	
1810	0	32980	32828	37980	
1811	0	32996	32821	37989	
1812	0	32997	32833	37980	
1813	0	32992	32840	37992	
1814	0	32992	32840	37996	
1815	0	33000	32828	37980	
1816	0	32996	32840	37976	
1817	0	33008	32836	37984	
1818	0	33004	32824	37986	
1819	0	33004	32828	38000	
1820	0	33008	32833	37972	
1821	0	33004	32828	37976	
1822	0	32992	32828	37996	
1823	0	32988	32833	37984	
1824	0	32988	32820	37976	
1825	0	32984	32824	37980	
1826	0	32984	32826	37988	
1827	0	32985	32828	37984	
1828	0	32996	32824	38004	
1829	0	32996	32826	37992	
1830	0	33016	32832	38000	
1831	0	33012	32844	38002	
1832	0	33002	32848	37996	
1833	0	33000	32848	37992	
1834	0	33000	32848	38000	
1835	0	32996	32840	37988	
1836	0	32984	32840	37980	
1837	0	32996	32834	37985	
1838	0	32992	32832	37992	
1839	0	32984	32832	37989	
1840	0	32992	32844	37984	
1841	0	33000	32840	37980	
1842	0	32992	32852	38004	
1843	0	32988	32840	38004	
1844	0	32992	32844	38016	
1845	0	32980	32848	38020	
1846	0	32978	32836	38028	
1847	0	32992	32836	38020	
1848	0	32992	32852	38004	
1849	0	32992	32852	38000	
1850	0	32976	32856	37992	
1851	0	32984	32836	37996	
1852	0	32988	32836	37998	
1853	0	32996	32836	37992	
1854	0	32993	32852	37984	
1855	0	33000	32836	37984	
1856	0	33012	32824	37976	
1857	0	32992	32836	37972	
1858	0	32992	32844	37972	
1859	0	32992	32842	37992	
1860	0	32988	32840	37988	
1861	0	32992	32848	37988	
1862	0	32992	32861	37996	
1863	0	32988	32860	37988	
1864	0	32988	32872	38004	
1865	0	32984	32860	37989	
1866	0	32964	32860	37988	
1867	0	32984	32865	37992	
1868	0	32976	32865	37984	
1869	0	32980	32840	37996	
1870	0	32984	32844	37996	
1871	0	32976	32844	37992	
1872	0	32988	32848	38000	
1873	0	32988	32840	37996	
1874	0	32988	32844	38008	
1875	0	32996	32836	37992	
1876	0	32988	32838	38000	
1877	0	32988	32844	37992	
1878	0	32988	32840	38004	
1879	0	32984	32845	38012	
1880	0	32992	32836	38008	
1881	0	33000	32832	37998	
1882	0	32992	32837	37996	
1883	0	32992	32840	37981	
1884	0	32984	32836	37984	
1885	0	32992	32832	37988	
1886	0	32992	32836	37996	
1887	0	32992	32836	38000	
1888	0	32974	32836	37994	
1889	0	32992	32828	37988	
1890	0	33000	32824	38006	
1891	0	32980	32840	38008	
1892	0	32972	32850	38004	
1893	0	32984	32848	37980	
1894	0	32990	32828	37974	
1895	0	32972	32828	37988	
1896	0	32988	32834	37972	
1897	0	32976	32828	37968	
1898	0	32980	32836	37980	
1899	0	32980	32832	37996	
1900	0	32984	32826	37992	
1901	0	32988	32832	37992	
1902	0	32985	32836	37992	
1903	0	32988	32824	37988	
1904	0	32992	32836	37972	
1905	0	32988	32830	37961	
1906	0	32992	32828	37964	
1907	0	32988	32832	37968	
1908	0	32988	32844	37968	
1909	0	32984	32842	37972	
1910	0	32996	32844	37976	
1911	0	33000	32840	37972	
1912	0	33004	32840	37964	
1913	0	33000	32836	37976	
1914	0	32984	32848	37988	
1915	0	32980	32832	37984	
1916	0	32972	32828	37968	
1917	0	32976	32838	37972	
1918	0	32984	32840	37980	
1919	0	32968	32852	37988	
1920	0	32968	32844	37992	
1921	0	32970	32844	37996	
1922	0	32976	32840	37988	
1923	0	32976	32832	37992	
1924	0	32984	32832	38004	
1925	0	32968	32824	37996	
1926	0	32972	32832	37984	
1927	0	32980	32824	37976	
1928	0	32988	32816	38016	
1929	0	32980	32828	38004	
1930	0	32980	32844	37980	
1931	0	32988	32824	37992	
1932	0	32996	32832	38016	
1933	0	32988	32832	38004	
1934	0	32984	32828	38016	
1935	0	32982	32836	37996	
1936	0	32988	32840	38012	
1937	0	32986	32836	38020	
1938	0	32984	32836	38004	
1939	0	32984	32842	37996	
1940	0	32972	32844	37984	
1941	0	32976	32840	37976	
1942	0	32984	32830	37980	
1943	0	32981	32816	37992	
1944	0	32972	32826	37996	
1945	0	32976	32832	38008	
1946	0	32990	32832	37988	
1947	0	32976	32828	38008	
1948	0	32992	32826	37980	
1949	0	32992	32820	38004	
1950	0	32992	32820	37984	
1951	0	32988	32824	37984	
1952	0	32992	32836	38000	
1953	0	32996	32828	38016	
1954	0	32988	32833	37980	
1955	0	32980	32836	38004	
1956	0	32984	32832	38004	
1957	0	32988	32844	37984	
1958	0	32988	32844	37984	
1959	0	32988	32820	37984	
1960	0	33000	32820	37984	
1961	0	32980	32832	37976	
1962	0	32992	32833	37976	
1963	0	32988	32828	37988	
1964	0	32984	32840	37976	
1965	0	32992	32836	37980	
1966	0	32992	32840	37980	
1967	0	32992	32846	37976	
1968	0	32992	32856	37976	
1969	0	32992	32854	37994	
1970	0	32988	32856	37984	
1971	0	32992	32844	37984	
1972	0	32992	32840	37992	
1973	0	32980	32844	37996	
1974	0	32980	32852	37988	
1975	0	32984	32852	37988	
1976	0	32996	32832	37997	
1977	0	32988	32848	38000	
1978	0	32988	32852	37992	
1979	0	33000	32844	37984	
1980	0	33004	32844	37984	
1981	0	32996	32840	37965	
1982	0	33008	32836	37985	
1983	0	32996	32854	37980	
1984	0	32992	32840	37980	
1985	0	32988	32836	38005	
1986	0	33000	32836	37992	
1987	0	32992	32848	37996	
1988	0	32992	32852	37980	
1989	0	32992	32848	37984	
1990	0	32988	32864	37952	
1991	0	33000	32856	37968	
1992	0	32996	32864	37996	
1993	0	33004	32844	38004	
1994	0	33004	32856	37988	
1995	0	33000	32848	37988	
1996	0	32992	32862	37996	
1997	0	32980	32872	37992	
1998	0	32986	32872	37982	
1999	0	32968	32872	37988	
2000	0	32972	32872	37972	
2001	0	32972	32868	37972	
2002	0	32984	32864	37980	
2003	0	32980	32860	37984	
2004	0	32980	32868	37984	
2005	0	32992	32856	37976	
2006	0	32992	32872	37982	
2007	0	33008	32857	37989	
2008	0	33000	32861	38000	
2009	0	33008	32868	38008	
2010	0	33000	32852	38012	
2011	0	32992	32856	37996	
2012	0	32992	32857	37984	
2013	0	33000	32844	37984	
2014	0	33004	32848	37992	
2015	0	32992	32844	38004	
2016	0	32992	32838	37986	
2017	0	33000	32840	37992	
2018	0	32996	32832	38004	
2019	0	33016	32828	38016	
2020	0	33004	32821	38008	
2021	0	32996	32816	37988	
2022	0	33000	32820	37997	
2023	0	32988	32834	38000	
2024	0	32992	32816	37980	
2025	0	33000	32808	37968	
2026	0	33004	32816	38004	
2027	0	33008	32816	38012	
2028	0	33004	32816	37996	
2029	0	33008	32822	37976	
2030	0	33000	32820	38012	
2031	0	33000	32816	38020	
2032	0	33004	32808	38000	
2033	0	32996	32804	37976	
2034	0	33008	32797	37976	
2035	0	32992	32820	37996	
2036	0	33010	32816	37998	
2037	0	33012	32820	37985	
2038	0	33004	32812	37997	
2039	0	33000	32828	37972	
2040	0	33000	32820	37988	
2041	0	32988	32828	37992	
2042	0	32992	32824	37984	
2043	0	32988	32824	38000	
2044	0	32993	32826	38004	
2045	0	32992	32828	37984	
2046	0	32984	32836	38000	
2047	0	33000	32816	38016	
2048	0	32996	32824	38000	
2049	0	33004	32824	38000	
2050	0	32985	32832	37988	
2051	0	32976	32826	37984	
2052	0	32988	32828	38001	
2053	0	32988	32840	37996	
2054	0	33000	32844	38004	
2055	0	32996	32836	37988	
2056	0	32980	32836	37988	
2057	0	32972	32840	37988	
2058	0	32968	32848	37988	
2059	0	32964	32856	37985	
2060	0	32976	32844	37984	
2061	0	32972	32842	37984	
2062	0	32976	32844	38008	
2063	0	32976	32848	38012	
2064	0	32984	32860	38000	
2065	0	32984	32840	38000	
2066	0	32980	32852	37996	
2067	0	32997	32848	37980	
2068	0	32992	32844	37984	
2069	0	32984	32840	37972	
2070	0	32980	32852	37984	
2071	0	32992	32848	37988	
2072	0	32981	32852	38004	
2073	0	32976	32840	38006	
2074	0	32970	32846	37996	
2075	0	32984	32856	37976	
2076	0	32996	32848	38000	
2077	0	32992	32840	38008	
2078	0	32985	32840	38012	
2079	0	32980	32848	38008	
2080	0	32984	32840	37996	
2081	0	32984	32844	38004	
2082	0	32984	32840	37996	
2083	0	32980	32840	38004	
2084	0	32976	32840	38024	
2085	0	32976	32840	37988	
2086	0	32980	32836	38016	
2087	0	32968	32845	38000	
2088	0	32972	32844	37996	
2089	0	32976	32846	37992	
2090	0	32970	32844	37976	
2091	0	32972	32848	37992	
2092	0	32974	32845	37976	
2093	0	32984	32852	37980	
2094	0	32984	32848	37980	
2095	0	32989	32840	37980	
2096	0	32980	32856	37960	
2097	0	32978	32860	37988	
2098	0	32980	32868	37988	
2099	0	32976	32860	37984	
2100	0	32984	32869	37972	
2101	0	32972	32864	37976	
2102	0	32988	32856	37984	
2103	0	32980	32870	37990	
2104	0	32984	32870	37964	
2105	0	32980	32856	38004	
2106	0	32976	32850	38004	
2107	0	32976	32860	38000	
2108	0	32980	32856	38008	
2109	0	32988	32848	37996	
2110	0	33004	32838	37989	
2111	0	32994	32854	38008	
2112	0	32992	32864	38012	
2113	0	32992	32856	38004	
2114	0	32988	32856	37984	
2115	0	32988	32860	37972	
2116	0	33004	32854	37969	
2117	0	33012	32868	37980	
2118	0	33032	32852	37960	
2119	0	33032	32852	37961	
2120	0	33020	32844	37968	
2121	0	33004	32852	37953	
2122	0	32992	32856	37968	
2123	0	32992	32856	37968	
2124	0	32988	32848	37976	
2125	0	32986	32840	37972	
2126	0	32988	32840	37980	
2127	0	33000	32844	37968	
2128	0	33008	32846	37996	
2129	0	33004	32836	37984	
2130	0	33016	32840	37988	
2131	0	33008	32848	37984	
2132	0	33008	32832	37996	
2133	0	33012	32836	37978	
2134	0	33016	32836	37984	
2135	0	33008	32832	37996	
2136	0	33000	32832	38008	
2137	0	33004	32838	38012	
2138	0	32994	32836	38004	
2139	0	33004	32840	38004	
2140	0	33000	32840	38016	
2141	0	33000	32844	38008	
2142	0	32986	32852	37992	
2143	0	33000	32844	37996	
2144	0	33008	32836	37992	
2145	0	33000	32836	37992	
2146	0	33000	32832	37996	
2147	0	32996	32836	37988	
2148	0	32984	32837	37996	
2149	0	33004	32832	37996	
2150	0	32988	32840	37988	
2151	0	32992	32832	37988	
2152	0	33004	32824	37988	
2153	0	33012	32824	37980	
2154	0	33004	32824	38012	
2155	0	33012	32833	37992	
2156	0	33004	32824	37972	
2157	0	33008	32823	37992	
2158	0	32996	32824	37976	
2159	0	33004	32820	37956	
2160	0	33010	32820	37980	
2161	0	32992	32830	37984	
2162	0	33000	32832	37992	
2163	0	32980	32832	37988	
2164	0	32992	32844	37972	
2165	0	32996	32848	38000	
2166	0	33008	32848	37998	
2167	0	32978	32844	37980	
2168	0	32984	32832	37976	
2169	0	32984	32836	37964	
2170	0	32984	32848	37984	
2171	0	32980	32842	37964	
2172	0	32984	32836	37972	
2173	0	32984	32838	37972	
2174	0	32988	32828	37972	
2175	0	32992	32828	37972	
2176	0	32992	32836	37996	
2177	0	32980	32840	38008	
2178	0	32980	32836	37988	
2179	0	32976	32836	38012	
2180	0	32984	32828	38008	
2181	0	32980	32824	38004	
2182	0	32986	32812	37996	
2183	0	32992	32816	38004	
2184	0	32992	32804	37994	
2185	0	32992	32815	37984	
2186	0	32996	32812	37962	
2187	0	32994	32820	37964	
2188	0	32996	32826	37976	
2189	0	32992	32824	37997	
2190	0	32996	32824	38016	
2191	0	33008	32820	37998	
2192	0	33000	32824	37980	
2193	0	32992	32830	37992	
2194	0	32984	32822	37980	
2195	0	32972	32824	37992	
2196	0	32976	32832	37992	
2197	0	32980	32832	37988	
2198	0	32968	32832	38000	
2199	0	32978	32836	38000	
2200	0	32980	32832	37984	
2201	0	32984	32833	37980	
2202	0	32988	32828	37988	
2203	0	32988	32832	37988	
2204	0	32984	32840	37997	
2205	0	32988	32840	38004	
2206	0	32980	32840	38024	
2207	0	32984	32840	38000	
2208	0	32992	32832	38008	
2209	0	32992	32833	38005	
2210	0	32992	32820	37968	
2211	0	32984	32822	37980	
2212	0	32980	32828	38004	
2213	0	33000	32824	38008	
2214	0	32992	32832	38016	
2215	0	32982	32828	37984	
2216	0	32996	32816	37992	
2217	0	32996	32812	37992	
2218	0	32996	32828	37972	
2219	0	32996	32820	37976	
2220	0	33000	32816	37972	
2221	0	33004	32816	37980	
2222	0	32988	32824	37988	
2223	0	32980	32832	37968	
2224	0	32976	32832	37988	
2225	0	32988	32828	37992	
2226	0	32984	32828	38000	
2227	0	32992	32824	37990	
2228	0	33000	32816	37988	
2229	0	33016	32816	37984	
2230	0	33008	32828	37980	
2231	0	33004	32836	37988	
2232	0	33012	32832	37964	
2233	0	33000	32828	37972	
2234	0	32992	32820	37968	
2235	0	32996	32816	37980	
2236	0	33000	32817	37988	
2237	0	32996	32824	37985	
2238	0	32992	32828	37984	
2239	0	32993	32820	37968	
2240	0	32992	32820	37968	
2241	0	32984	32820	37976	
2242	0	32992	32816	37968	
2243	0	32992	32826	37960	
2244	0	32992	32828	37972	
2245	0	32992	32828	37960	
2246	0	32992	32832	37972	
2247	0	32992	32828	37956	
2248	0	32996	32840	37952	
2249	0	32988	32840	37956	
2250	0	32992	32832	37960	
2251	0	32996	32836	37964	
2252	0	32988	32836	37972	
2253	0	32984	32836	37968	
2254	0	32990	32840	37996	
2255	0	32980	32841	38000	
2256	0	32980	32836	37996	
2257	0	32977	32840	38004	
2258	0	32976	32834	38004	
2259	0	32976	32848	38004	
2260	0	32992	32836	37996	
2261	0	32988	32840	38000	
2262	0	32992	32836	37984	
2263	0	32984	32844	38008	
2264	0	32992	32840	37992	
2265	0	32992	32844	38008	
2266	0	32988	32840	37996	
2267	0	32992	32852	37977	
2268	0	32993	32856	37976	
2269	0	32985	32860	37984	
2270	0	32976	32861	38008	
2271	0	32968	32868	38004	
2272	0	32984	32872	38004	
2273	0	32980	32868	38000	
2274	0	32970	32856	37996	
2275	0	32968	32864	38016	
2276	0	32988	32864	37986	
2277	0	32988	32856	37992	
2278	0	32988	32865	37984	
2279	0	32988	32860	37992	
2280	0	32998	32852	37988	
2281	0	33000	32860	38012	
2282	0	32988	32852	38010	
2283	0	33004	32868	38000	
2284	0	33012	32864	38004	
2285	0	33010	32856	38004	
2286	0	33008	32848	38004	
2287	0	33008	32852	37976	
2288	0	33008	32853	37973	
2289	0	33001	32844	37984	
2290	0	33008	32840	38000	
2291	0	33012	32828	38000	
2292	0	33008	32844	38017	
2293	0	33008	32842	38024	
2294	0	33000	32848	38036	
2295	0	33000	32852	38016	
2296	0	33008	32852	38032	
2297	0	33000	32841	38014	
2298	0	32992	32840	37992	
2299	0	33008	32840	37992	
2300	0	33004	32840	37988	
2301	0	33008	32832	37988	
2302	0	33008	32841	37976	
2303	0	33004	32832	37980	
2304	0	33012	32832	37988	
2305	0	33008	32840	37996	
2306	0	33012	32840	37988	
2307	0	33012	32844	37992	
2308	0	33000	32844	37996	
2309	0	33000	32840	38008	
2310	0	33008	32821	38004	
2311	0	33008	32828	38000	
2312	0	32988	32836	37988	
2313	0	32992	32824	38008	
2314	0	33000	32832	37994	
2315	0	33004	32828	37972	
2316	0	32996	32836	38000	
2317	0	32996	32832	37980	
2318	0	32992	32824	37992	
2319	0	32996	32820	37972	
2320	0	33004	32808	37974	
2321	0	33016	32816	37964	
2322	0	33012	32816	37964	
2323	0	33008	32820	37964	
2324	0	32996	32834	37960	
2325	0	33008	32820	37976	
2326	0	33000	32832	37976	
2327	0	33008	32828	37964	
2328	0	33024	32824	37968	
2329	0	33004	32824	37964	
2330	0	33002	32824	37964	
2331	0	32992	32836	37972	
2332	0	32992	32832	37968	
2333	0	32988	32832	37984	
2334	0	32992	32828	37992	
2335	0	32992	32824	37988	
2336	0	32992	32820	38008	
2337	0	32996	32812	37988	
2338	0	32984	32812	37984	
2339	0	32992	32812	37985	
2340	0	33000	32812	37992	
2341	0	32992	32840	38009	
2342	0	32992	32832	37984	
2343	0	32984	32842	37992	
2344	0	32984	32844	37976	
2345	0	32988	32844	37996	
2346	0	32988	32844	37996	
2347	0	32984	32840	37984	
2348	0	33000	32836	37980	
2349	0	32992	32840	37988	
2350	0	33000	32824	37964	
2351	0	32980	32828	37964	
2352	0	32992	32828	37968	
2353	0	32984	32836	37996	
2354	0	32988	32824	38008	
2355	0	32996	32832	38005	
2356	0	32992	32832	38012	
2357	0	32988	32832	38000	
2358	0	32992	32836	37992	
2359	0	32992	32832	37988	
2360	0	33008	32826	37985	
2361	0	33004	32817	37976	
2362	0	32988	32836	37976	
2363	0	32972	32836	37996	
2364	0	32980	32824	37984	
2365	0	32972	32824	37996	
2366	0	32968	32820	38004	
2367	0	32976	32832	38004	
2368	0	32984	32816	38016	
2369	0	32992	32832	38000	
2370	0	33004	32828	38008	
2371	0	32996	32812	37980	
2372	0	32996	32836	37992	
2373	0	33002	32828	38008	
2374	0	32992	32840	37996	
2375	0	32976	32844	38005	
2376	0	32976	32848	37996	
2377	0	32988	32840	38012	
2378	0	33000	32824	38020	
2379	0	32996	32838	38000	
2380	0	32992	32836	37996	
2381	0	32992	32824	38020	
2382	0	32992	32824	37985	
2383	0	32984	32828	37992	
2384	0	32992	32825	37984	
2385	0	32992	32824	37992	
2386	0	32992	32832	38000	
2387	0	32988	32842	37980	
2388	0	32980	32828	37988	
2389	0	32988	32828	37976	
2390	0	32984	32836	37994	
2391	0	32992	32832	37984	
2392	0	32996	32836	37996	
2393	0	32992	32836	37989	
2394	0	32984	32828	37996	
2395	0	32998	32832	38021	
2396	0	32984	32840	37996	
2397	0	32992	32852	38000	
2398	0	32972	32832	37992	
2399	0	32984	32829	37976	
2400	0	32996	32832	37972	
2401	0	32992	32828	37968	
2402	0	33004	32828	37956	
2403	0	32990	32832	37972	
2404	0	32988	32840	37988	
2405	0	32996	32832	37992	
2406	0	32984	32836	38000	
2407	0	32984	32840	37984	
2408	0	32988	32836	38000	
2409	0	32992	32832	37984	
2410	0	32996	32824	37964	
2411	0	33008	32820	37988	
2412	0	32992	32842	38004	
2413	0	33005	32832	37996	
2414	0	33008	32832	38008	
2415	0	33004	32836	37980	
2416	0	32992	32832	37992	
2417	0	32988	32820	37996	
2418	0	32996	32820	38004	
2419	0	33000	32820	37988	
2420	0	33000	32808	37996	
2421	0	33000	32814	37993	
2422	0	33000	32816	37984	
2423	0	33008	32812	37996	
2424	0	32998	32822	37981	
2425	0	32996	32820	37988	
2426	0	32996	32820	38004	
2427	0	32992	32824	38009	
2428	0	33000	32812	37992	
2429	0	33000	32832	37992	
2430	0	33000	32828	38012	
2431	0	32992	32828	38008	
2432	0	32988	32824	37996	
2433	0	32996	32832	37980	
2434	0	33000	32828	37996	
2435	0	33002	32824	38008	
2436	0	33004	32832	37996	
2437	0	32996	32838	37984	
2438	0	32993	32844	37997	
2439	0	32984	32848	37972	
2440	0	32980	32840	37968	
2441	0	32996	32836	37984	
2442	0	32988	32828	38013	
2443	0	32992	32826	38000	
2444	0	33012	32806	37980	
2445	0	33018	32792	37984	
2446	0	33004	32808	37968	
2447	0	33004	32804	37968	
2448	0	33004	32805	37968	
2449	0	33004	32816	37944	
2450	0	33004	32816	37956	
2451	0	33004	32804	37968	
2452	0	32996	32818	37976	
2453	0	32996	32816	37980	
2454	0	32994	32820	37957	
2455	0	33004	32818	37980	
2456	0	33004	32808	37984	
2457	0	33012	32800	37984	
2458	0	33008	32788	37996	
2459	0	33004	32804	38000	
2460	0	33006	32816	37986	
2461	0	33008	32812	37981	
2462	0	32996	32814	37980	
2463	0	33008	32812	37976	
2464	0	33012	32820	38004	
2465	0	33004	32816	37992	
2466	0	33004	32820	38005	
2467	0	33012	32832	37992	
2468	0	33008	32828	37982	
2469	0	33004	32832	37996	
2470	0	32996	32824	37976	
2471	0	33000	32824	37984	
2472	0	32996	32818	37996	
2473	0	32992	32816	38012	
2474	0	32992	32824	38004	
2475	0	32988	32828	37997	
2476	0	32992	32832	37988	
2477	0	32996	32836	37984	
2478	0	32992	32828	37976	
2479	0	32996	32832	37980	
2480	0	32988	32840	37972	
2481	0	32992	32852	37984	
2482	0	32998	32844	37988	
2483	0	32992	32840	37996	
2484	0	33016	32840	37997	
2485	0	33018	32848	37996	
2486	0	33012	32848	38000	
2487	0	33008	32842	37996	
2488	0	33008	32852	37992	
2489	0	33004	32856	37984	
2490	0	32992	32848	37985	
2491	0	33012	32846	37972	
2492	0	33026	32832	38008	
2493	0	33016	32828	38010	
2494	0	33012	32832	38004	
2495	0	33012	32840	38004	
2496	0	33004	32844	38012	
2497	0	32996	32854	38012	
2498	0	32996	32840	38032	
2499	0	33000	32840	38024	
2500	0	32992	32845	38012	
2501	0	32994	32841	38016	
2502	0	32992	32844	38004	
2503	0	32996	32832	37980	
2504	0	32996	32832	37984	
2505	0	32984	32840	37988	
2506	0	32993	32836	38000	
2507	0	32990	32830	37988	
2508	0	32984	32840	37980	
2509	0	32996	32844	37976	
2510	0	32988	32848	37964	
2511	0	32989	32852	37980	
2512	0	33004	32844	37980	
2513	0	33004	32828	37976	
2514	0	33000	32828	37984	
2515	0	32996	32840	37976	
2516	0	32992	32833	37988	
2517	0	32984	32825	37992	
2518	0	32980	32844	38004	
2519	0	32976	32844	38000	
2520	0	32968	32857	37984	
2521	0	32985	32836	37976	
2522	0	32986	32832	37984	
2523	0	32980	32840	37980	
2524	0	32986	32832	37980	
2525	0	32988	32848	37964	
2526	0	32996	32845	37984	
2527	0	32988	32832	37988	
2528	0	32988	32828	37976	
2529	0	32992	32824	37980	
2530	0	32984	32816	37974	
2531	0	32984	32824	37988	
2532	0	32988	32816	38005	
2533	0	32996	32812	37976	
2534	0	33000	32818	37960	
2535	0	32984	32816	37972	
2536	0	32988	32816	37980	
2537	0	32992	32808	37972	
2538	0	32992	32824	37980	
2539	0	32994	32812	37992	
2540	0	32976	32828	37988	
2541	0	32984	32820	38004	
2542	0	32980	32832	37984	
2543	0	32988	32816	38004	
2544	0	32982	32820	37988	
2545	0	32988	32820	37993	
2546	0	33000	32812	37988	
2547	0	32992	32824	37976	
2548	0	32992	32828	37992	
2549	0	32980	32840	37996	
2550	0	33000	32832	37996	
2551	0	32992	32836	37992	
2552	0	32994	32832	37988	
2553	0	33000	32824	37972	
2554	0	32984	32824	37985	
2555	0	32984	32820	37996	
2556	0	32980	32832	38001	
2557	0	32992	32828	37972	
2558	0	32976	32828	37972	
2559	0	32984	32836	37992	
2560	0	32976	32836	37992	
2561	0	32980	32837	37981	
2562	0	32978	32836	37988	
2563	0	32976	32834	37988	
2564	0	32984	32830	38000	
2565	0	32988	32824	37996	
2566	0	32980	32832	37960	
2567	0	32992	32820	37976	
2568	0	32993	32824	37984	
2569	0	33000	32824	37988	
2570	0	33000	32840	37976	
2571	0	32996	32838	37992	
2572	0	33000	32840	37988	
2573	0	33000	32836	37980	
2574	0	33000	32840	37980	
2575	0	33008	32836	37964	
2576	0	33000	32832	37966	
2577	0	33004	32832	37960	
2578	0	32996	32836	37984	
2579	0	32992	32836	38008	
2580	0	32984	32832	38016	
2581	0	32988	32832	38006	
2582	0	32984	32832	37992	
2583	0	32984	32828	37981	
2584	0	32984	32820	37992	
2585	0	33000	32824	37989	
2586	0	33008	32808	37990	
2587	0	32996	32808	37980	
2588	0	33008	32801	37968	
2589	0	33012	32796	37960	
2590	0	33012	32804	37976	
2591	0	33008	32812	37956	
2592	0	33016	32808	37956	
2593	0	33020	32808	37968	
2594	0	33020	32808	37976	
2595	0	33020	32808	37992	
2596	0	33004	32826	38008	
2597	0	33008	32832	38016	
2598	0	32996	32828	37988	
2599	0	33000	32836	37986	
2600	0	33008	32824	37976	
2601	0	33012	32828	37972	
2602	0	33004	32820	37992	
2603	0	33000	32836	37984	
2604	0	33020	32816	38008	
2605	0	33008	32832	38004	
2606	0	33012	32834	38012	
2607	0	33008	32832	37988	
2608	0	33004	32832	37990	
2609	0	32996	32831	37972	
2610	0	33001	32832	37988	
2611	0	33000	32848	38000	
2612	0	32988	32844	38000	
2613	0	33004	32852	37988	
2614	0	33008	32849	37980	
2615	0	33000	32848	37988	
2616	0	32984	32852	37992	
2617	0	32976	32860	37992	
2618	0	32999	32844	37980	
2619	0	32992	32860	38004	
2620	0	32992	32852	37992	
2621	0	32992	32852	37996	
2622	0	32996	32856	37988	
2623	0	33000	32852	37980	
2624	0	32988	32864	38000	
2625	0	32986	32860	38012	
2626	0	32988	32856	38012	
2627	0	32992	32848	37994	
2628	0	33004	32842	37968	
2629	0	33004	32836	37985	
2630	0	33004	32832	37992	
2631	0	33000	32832	38000	
2632	0	33000	32820	37980	
2633	0	32982	32828	37976	
2634	0	32984	32828	37988	
2635	0	32980	32828	37976	
2636	0	32988	32822	37974	
2637	0	32988	32820	37966	
2638	0	33004	32824	37992	
2639	0	32996	32824	37984	
2640	0	32992	32822	37972	
2641	0	32996	32828	37976	
2642	0	32992	32820	37988	
2643	0	33004	32812	37988	
2644	0	33000	32824	37980	
2645	0	32992	32828	37996	
2646	0	33012	32824	37984	
2647	0	33004	32824	37974	
2648	0	32992	32824	37976	
2649	0	32992	32830	37973	
2650	0	32992	32824	37984	
2651	0	32986	32832	37996	
2652	0	32996	32828	38004	
2653	0	32984	32820	38024	
2654	0	32993	32828	38024	
2655	0	32988	32832	38016	
2656	0	33000	32832	38004	
2657	0	33000	32836	37980	
2658	0	32996	32840	37980	
2659	0	32992	32832	38005	
2660	0	32992	32844	37980	
2661	0	32984	32828	37972	
2662	0	32988	32836	37984	
2663	0	32984	32836	37996	
2664	0	32980	32849	37976	
2665	0	32988	32840	37960	
2666	0	32984	32832	37972	
2667	0	32980	32825	37964	
2668	0	32986	32828	37981	
2669	0	32988	32832	37988	
2670	0	33000	32848	38000	
2671	0	32992	32828	38008	
2672	0	32988	32832	37984	
2673	0	32994	32832	37984	
2674	0	32992	32824	37984	
2675	0	32988	32828	37992	
2676	0	32984	32816	37980	
2677	0	32980	32816	37988	
2678	0	32980	32824	37980	
2679	0	32980	32833	37960	
2680	0	32980	32832	37976	
2681	0	32988	32828	37980	
2682	0	32992	32824	37988	
2683	0	32988	32820	37996	
2684	0	32988	32832	37984	
2685	0	32988	32828	37976	
2686	0	32992	32820	37984	
2687	0	32988	32818	37976	
2688	0	32988	32816	37964	
2689	0	32988	32816	37976	
2690	0	32992	32817	37964	
2691	0	32984	32828	37984	
2692	0	32980	32824	37976	
2693	0	32992	32828	37972	
2694	0	32988	32824	38000	
2695	0	32980	32816	38000	
2696	0	32981	32828	37992	
2697	0	32980	32816	38004	
2698	0	32984	32828	37956	
2699	0	32984	32830	37980	
2700	0	32988	32824	37972	
2701	0	32980	32832	37968	
2702	0	32980	32836	37976	
2703	0	32968	32836	37980	
2704	0	32984	32828	38004	
2705	0	32988	32820	38000	
2706	0	32988	32832	38000	
2707	0	32996	32824	38012	
2708	0	32980	32820	37992	
2709	0	32984	32816	37984	
2710	0	32984	32820	37996	
2711	0	32984	32825	38008	
2712	0	32992	32832	37992	
2713	0	32992	32832	38008	
2714	0	33004	32828	38008	
2715	0	33000	32833	37984	
2716	0	33008	32824	37988	
2717	0	33012	32820	38004	
2718	0	33008	32836	37964	
2719	0	32992	32830	37968	
2720	0	33000	32820	37972	
2721	0	33008	32812	37988	
2722	0	33000	32824	37984	
2723	0	33008	32820	37985	
2724	0	32996	32816	37984	
2725	0	32992	32820	38012	
2726	0	32992	32828	38004	
2727	0	32988	32828	37984	
2728	0	32992	32824	37992	
2729	0	32989	32824	37980	
2730	0	33004	32824	37976	
2731	0	33008	32813	37972	
2732	0	33005	32816	37952	
2733	0	33004	32824	37972	
2734	0	33004	32824	37972	
2735	0	33004	32834	37988	
2736	0	32988	32832	37992	
2737	0	33008	32832	37968	
2738	0	33000	32832	37968	
2739	0	32996	32836	37960	
2740	0	33000	32836	37972	
2741	0	32996	32840	37960	
2742	0	33000	32848	37972	
2743	0	33008	32844	37960	
2744	0	33000	32852	37964	
2745	0	33016	32836	37996	
2746	0	32992	32832	37992	
2747	0	32992	32836	38000	
2748	0	32996	32828	37972	
2749	0	33008	32828	37984	
2750	0	32996	32832	37981	
2751	0	33008	32832	37972	
2752	0	33004	32832	37960	
2753	0	33012	32836	37972	
2754	0	33000	32832	37968	
2755	0	33008	32840	37988	
2756	0	33000	32836	37976	
2757	0	33008	32828	37988	
2758	0	32996	32832	37996	
2759	0	33004	32828	37980	
2760	0	32993	32840	37973	
2761	0	33000	32832	37952	
2762	0	33000	32845	37960	
2763	0	32993	32846	37964	
2764	0	33000	32852	37954	
2765	0	32988	32856	37976	
2766	0	32992	32836	37964	
2767	0	33004	32840	37972	
2768	0	33004	32829	37976	
2769	0	33012	32816	37968	
2770	0	33004	32816	37976	
2771	0	33000	32812	37982	
2772	0	33000	32808	38004	
2773	0	33004	32816	38008	
2774	0	33000	32824	38024	
2775	0	32986	32828	37997	
2776	0	32992	32820	37984	
2777	0	32988	32828	37973	
2778	0	32984	32836	37964	
2779	0	32984	32832	37968	
2780	0	32984	32832	37976	
2781	0	32996	32828	37988	
2782	0	33000	32824	37984	
2783	0	33000	32832	37984	
2784	0	33000	32832	37992	
2785	0	33000	32840	37992	
2786	0	33000	32844	37997	
2787	0	33004	32844	37988	
2788	0	33012	32840	38008	
2789	0	33008	32854	38004	
2790	0	33016	32861	38000	
2791	0	33012	32844	37996	
2792	0	33008	32844	37980	
2793	0	33008	32832	37998	
2794	0	33008	32837	38000	
2795	0	33008	32832	37988	
2796	0	33004	32832	38000	
2797	0	33012	32836	37984	
2798	0	33012	32840	37984	
2799	0	33016	32840	37992	
2800	0	33008	32832	38004	
2801	0	33008	32832	37988	
2802	0	32998	32836	37988	
2803	0	32996	32836	38004	
2804	0	32996	32828	38004	
2805	0	32996	32836	37980	
2806	0	33008	32816	37992	
2807	0	33004	32805	37984	
2808	0	33000	32816	37973	
2809	0	32992	32821	37984	
2810	0	33004	32828	37976	
2811	0	33004	32824	38012	
2812	0	32988	32812	38020	
2813	0	32996	32808	38000	
2814	0	32985	32812	37989	
2815	0	32992	32816	37972	
2816	0	32988	32812	37980	
2817	0	32984	32824	37984	
2818	0	32988	32824	37988	
2819	0	32992	32824	37980	
2820	0	32984	32828	37972	
2821	0	32992	32832	37982	
2822	0	32989	32824	37990	
2823	0	33000	32824	37988	
2824	0	32992	32820	37984	
2825	0	32996	32828	37984	
2826	0	32984	32820	38001	
2827	0	32984	32832	37996	
2828	0	33000	32832	37984	
2829	0	33012	32849	37980	
2830	0	33024	32832	38004	
2831	0	33020	32836	38004	
2832	0	33004	32844	38028	
2833	0	32996	32836	38020	
2834	0	33004	32832	38008	
2835	0	32996	32832	38008	
2836	0	33000	32832	38004	
2837	0	32996	32828	38000	
2838	0	33004	32820	37996	
2839	0	32984	32828	37972	
2840	0	32988	32824	37976	
2841	0	33000	32825	37980	
2842	0	32993	32826	37968	
2843	0	33000	32836	37996	
2844	0	32992	32836	37966	
2845	0	32988	32836	37968	
2846	0	32996	32812	37976	
2847	0	32996	32820	37972	
2848	0	32988	32820	37976	
2849	0	32992	32826	37984	
2850	0	32992	32826	37948	
2851	0	32980	32832	37948	
2852	0	32988	32824	37956	
2853	0	32996	32824	37956	
2854	0	33000	32832	37964	
2855	0	33000	32828	37968	
2856	0	32992	32826	37996	
2857	0	32980	32840	37992	
2858	0	32992	32832	37984	
2859	0	32988	32837	38004	
2860	0	33000	32832	38004	
2861	0	32996	32828	37980	
2862	0	32988	32836	37960	
2863	0	32984	32840	37976	
2864	0	32992	32840	37976	
2865	0	32996	32832	37984	
2866	0	32984	32836	37964	
2867	0	32984	32832	37980	
2868	0	32984	32848	37988	
2869	0	32996	32844	37976	
2870	0	32992	32852	37964	
2871	0	33000	32848	37996	
2872	0	32992	32838	37996	
2873	0	33016	32832	37996	
2874	0	33012	32838	37980	
2875	0	33012	32840	37984	
2876	0	33012	32840	37988	
2877	0	33016	32826	37968	
2878	0	33008	32840	37976	
2879	0	33016	32828	38000	
2880	0	33008	32832	38000	
2881	0	32992	32832	37992	
2882	0	33001	32828	38000	
2883	0	32996	32848	37988	
2884	0	32992	32832	37972	
2885	0	32996	32836	37976	
2886	0	32980	32845	37976	
2887	0	32992	32844	37996	
2888	0	32984	32840	38004	
2889	0	32992	32825	37996	
2890	0	32990	32836	38004	
2891	0	33004	32836	37980	
2892	0	33000	32844	37966	
2893	0	32996	32844	37964	
2894	0	33000	32836	37974	
2895	0	32984	32848	37976	
2896	0	32988	32856	37964	
2897	0	32988	32840	37978	
2898	0	32992	32836	37988	
2899	0	32988	32836	37968	
2900	0	33000	32832	37968	
2901	0	33008	32828	37976	
2902	0	33004	32828	37976	
2903	0	32996	32840	37976	
2904	0	32992	32836	37976	
2905	0	33008	32824	37980	
2906	0	33004	32820	37984	
2907	0	33012	32814	37996	
2908	0	33004	32818	37988	
2909	0	33009	32808	38020	
2910	0	33008	32815	38012	
2911	0	33000	32808	37992	
2912	0	33008	32812	37980	
2913	0	33008	32824	37980	
2914	0	33016	32820	37960	
2915	0	33012	32820	37952	
2916	0	33012	32812	37976	
2917	0	33004	32812	37964	
2918	0	33000	32818	37984	
2919	0	33008	32816	37980	
2920	0	33008	32824	37984	
2921	0	33008	32820	37986	
2922	0	33017	32828	37985	
2923	0	32996	32824	37988	
2924	0	33002	32832	37992	
2925	0	33012	32844	37968	
2926	0	33012	32845	37972	
2927	0	33024	32834	37964	
2928	0	33016	32836	37960	
2929	0	33004	32836	37976	
2930	0	33005	32836	37988	
2931	0	33000	32836	37976	
2932	0	32992	32856	37984	
2933	0	32988	32846	37956	
2934	0	32984	32860	37952	
2935	0	32988	32860	37968	
2936	0	32992	32868	37952	
2937	0	32984	32868	37968	
2938	0	32988	32868	37988	
2939	0	32988	32872	37980	
2940	0	32996	32860	38000	
2941	0	32996	32852	38004	
2942	0	32984	32854	37972	
2943	0	32992	32852	37972	
2944	0	32992	32852	37964	
2945	0	32996	32844	37964	
2946	0	33004	32836	37981	
2947	0	32996	32840	38000	
2948	0	32996	32832	38000	
2949	0	32996	32824	37984	
2950	0	33000	32828	37984	
2951	0	33000	32816	37977	
2952	0	33016	32816	37972	
2953	0	33016	32820	37944	
2954	0	33020	32828	37960	
2955	0	33000	32832	37968	
2956	0	33000	32836	37996	
2957	0	32988	32832	38017	
2958	0	32992	32828	38012	
2959	0	32992	32840	37996	
2960	0	32988	32838	37988	
2961	0	33004	32820	38000	
2962	0	32996	32824	37972	
2963	0	33000	32828	37968	
2964	0	32988	32824	38000	
2965	0	32996	32828	38000	
2966	0	32992	32820	37996	
2967	0	32988	32832	38012	
2968	0	32984	32828	38000	
2969	0	32984	32820	38012	
2970	0	32992	32812	37984	
2971	0	33008	32816	38004	
2972	0	33008	32824	37988	
2973	0	33004	32824	37996	
2974	0	32996	32824	37984	
2975	0	33004	32824	38002	
2976	0	33004	32816	37976	
2977	0	33020	32812	37980	
2978	0	33004	32824	37992	
2979	0	33004	32834	37989	
2980	0	33008	32836	37992	
2981	0	33004	32832	38000	
2982	0	32996	32844	37984	
2983	0	33004	32828	37964	
2984	0	32996	32832	37956	
2985	0	33000	32832	37960	
2986	0	33000	32832	37964	
2987	0	32992	32836	37964	
2988	0	32992	32832	37964	
2989	0	33004	32828	37984	
2990	0	33004	32820	37989	
2991	0	33000	32844	37984	
2992	0	33020	32832	37989	
2993	0	33012	32832	37968	
2994	0	33002	32840	37980	
2995	0	33000	32832	37976	
2996	0	32992	32840	37996	
2997	0	32996	32836	38004	
2998	0	32992	32837	38000	
2999	0	32992	32832	38000	
3000	0	32996	32828	37988	
3001	0	32992	32826	37984	
3002	0	32980	32824	38008	
3003	0	33006	32812	38028	
3004	0	33004	32824	38008	
3005	0	33008	32836	38036	
3006	0	33012	32828	38004	
3007	0	33004	32832	37988	
3008	0	32996	32828	37984	
3009	0	33000	32831	37988	
3010	0	32988	32832	37980	
3011	0	32993	32826	37964	
3012	0	33000	32828	37976	
3013	0	33000	32824	37980	
3014	0	32990	32828	37992	
3015	0	32976	32844	37988	
3016	0	32984	32836	37976	
3017	0	32992	32846	37984	
3018	0	32992	32848	37968	
3019	0	32988	32832	37964	
3020	0	32988	32844	37976	
3021	0	32992	32832	37978	
3022	0	33004	32832	37992	
3023	0	33008	32826	37992	
3024	0	33004	32828	38004	
3025	0	33004	32826	37986	
3026	0	33008	32834	37992	
3027	0	32996	32828	37988	
3028	0	33004	32836	37988	
3029	0	33008	32832	37984	
3030	0	32996	32844	37988	
3031	0	32996	32831	37964	
3032	0	32992	32845	37964	
3033	0	32996	32852	37976	
3034	0	33012	32836	37996	
3035	0	33004	32836	38000	
3036	0	33004	32824	38020	
3037	0	33000	32828	38016	
3038	0	33004	32820	37999	
3039	0	33012	32832	37996	
3040	0	33032	32832	37980	
3041	0	33012	32828	37996	
3042	0	33004	32837	37992	
3043	0	33008	32832	37980	
3044	0	33016	32830	37988	
3045	0	33004	32836	37976	
3046	0	33004	32829	37972	
3047	0	33004	32836	37988	
3048	0	33008	32836	37988	
3049	0	33004	32840	37980	
3050	0	32992	32824	37984	
3051	0	32992	32840	37980	
3052	0	32996	32832	37972	
3053	0	32988	32830	37956	
3054	0	32996	32820	37964	
3055	0	32985	32832	37980	
3056	0	32988	32842	37973	
3057	0	32996	32832	37996	
3058	0	32994	32840	37960	
3059	0	33004	32824	37984	
3060	0	33000	32824	37988	
3061	0	33004	32832	37992	
3062	0	33008	32836	37984	
3063	0	33004	32840	37992	
3064	0	33000	32836	37982	
3065	0	33012	32844	38000	
3066	0	33016	32844	37998	
3067	0	33000	32848	37992	
3068	0	33004	32837	37988	
3069	0	33008	32844	37996	
3070	0	33008	32829	38004	
3071	0	33004	32838	38000	
3072	0	32992	32832	38008	
3073	0	33000	32844	38008	
3074	0	33000	32840	38026	
3075	0	32988	32842	38012	
3076	0	33004	32836	38012	
3077	0	33004	32836	37992	
3078	0	33000	32840	37964	
3079	0	32996	32848	37976	
3080	0	33008	32832	37984	
3081	0	33004	32832	37980	
3082	0	32992	32840	37980	
3083	0	32982	32836	37976	
3084	0	32976	32832	37976	
3085	0	32996	32834	37972	
3086	0	32996	32820	37968	
3087	0	33000	32828	37968	
3088	0	33000	32836	37984	
3089	0	33004	32832	37984	
3090	0	33016	32824	37992	
3091	0	33008	32832	37988	
3092	0	32996	32824	37976	
3093	0	32996	32820	37988	
3094	0	32992	32832	38004	
3095	0	32992	32828	37992	
3096	0	33000	32834	37988	
3097	0	32992	32828	37984	
3098	0	32992	32824	37972	
3099	0	32992	32818	37964	
3100	0	33000	32816	37952	
3101	0	33012	32812	37960	
3102	0	33004	32820	37980	
3103	0	33008	32812	38000	
3104	0	33012	32820	37981	
3105	0	33008	32824	37984	
3106	0	33008	32824	37960	
3107	0	33004	32828	37972	
3108	0	33004	32824	37976	
3109	0	33012	32825	37980	
3110	0	33008	32824	37961	
3111	0	33005	32820	37972	
3112	0	33012	32832	37980	
3113	0	33004	32816	37964	
3114	0	33008	32828	37972	
3115	0	33001	32832	37988	
3116	0	32996	32836	37988	
3117	0	32988	32848	38000	
3118	0	33000	32832	38012	
3119	0	33004	32828	37976	
3120	0	33008	32824	37988	
3121	0	33004	32828	37996	
3122	0	33012	32824	37997	
3123	0	33004	32834	37996	
3124	0	33000	32840	37988	
3125	0	32992	32832	37984	
3126	0	32992	32824	37980	
3127	0	32988	32836	38008	
3128	0	32996	32816	38016	
3129	0	32996	32808	38000	
3130	0	33008	32812	38000	
3131	0	33004	32818	38012	
3132	0	33004	32812	38004	
3133	0	32996	32824	38020	
3134	0	32996	32832	38012	
3135	0	33000	32836	38012	
3136	0	33008	32828	38030	
3137	0	33016	32818	38024	
3138	0	33016	32832	37988	
3139	0	32996	32836	37996	
3140	0	32996	32828	37992	
3141	0	32996	32832	38012	
3142	0	32996	32840	37988	
3143	0	32992	32840	37984	
3144	0	32992	32836	37992	
3145	0	32996	32836	37992	
3146	0	32988	32848	37980	
3147	0	32988	32840	37976	
3148	0	32996	32838	37980	
3149	0	33004	32828	37988	
3150	0	32992	32836	37988	
3151	0	33004	32826	37984	
3152	0	33000	32840	37984	
3153	0	33010	32836	37996	
3154	0	33006	32828	38004	
3155	0	33000	32844	37988	
3156	0	32996	32844	37972	
3157	0	32988	32856	37970	
3158	0	32996	32840	37980	
3159	0	32984	32852	37972	
3160	0	32988	32832	37976	
3161	0	32996	32828	37976	
3162	0	32992	32828	37992	
3163	0	32988	32844	37992	
3164	0	32996	32828	37996	
3165	0	33004	32832	38000	
3166	0	33008	32826	37996	
3167	0	32996	32828	38000	
3168	0	32992	32816	37968	
3169	0	32996	32824	37980	
3170	0	32992	32818	37980	
3171	0	33004	32808	37992	
3172	0	33008	32824	38000	
3173	0	33016	32820	38012	
3174	0	33012	32816	38000	
3175	0	33008	32832	38004	
3176	0	33005	32828	38008	
3177	0	33008	32840	38008	
3178	0	33008	32840	38008	
3179	0	33000	32842	38016	
3180	0	33000	32834	38016	
3181	0	33004	32824	38012	
3182	0	33004	32820	38012	
3183	0	33008	32816	38004	
3184	0	33008	32824	37989	
3185	0	33016	32816	37986	
3186	0	33004	32816	38016	
3187	0	33004	32816	38028	
3188	0	33000	32836	38004	
3189	0	32992	32832	37976	
3190	0	33004	32836	37988	
3191	0	33000	32846	37988	
3192	0	32996	32844	37998	
3193	0	33008	32832	37997	
3194	0	33004	32832	37984	
3195	0	33004	32824	37984	
3196	0	33000	32824	37996	
3197	0	32996	32824	38012	
3198	0	32988	32828	37996	
3199	0	32984	32840	38004	
3200	0	32980	32844	37992	
3201	0	33004	32840	37980	
3202	0	33008	32836	37976	
3203	0	33008	32844	37996	
3204	0	33006	32828	38016	
3205	0	33006	32836	38020	
3206	0	33008	32832	38032	
3207	0	33000	32832	38036	
3208	0	33012	32816	38032	
3209	0	33008	32830	38008	
3210	0	33012	32828	37988	
3211	0	33012	32824	38004	
3212	0	33008	32824	37992	
3213	0	33008	32829	37992	
3214	0	33012	32836	38004	
3215	0	32996	32844	37996	
3216	0	32992	32824	37984	
3217	0	32996	32832	37968	
3218	0	32988	32816	37968	
3219	0	32992	32826	38000	
3220	0	32992	32828	38016	
3221	0	33000	32834	38020	
3222	0	33004	32828	38012	
3223	0	33004	32828	37988	
3224	0	33008	32840	37996	
3225	0	32996	32840	37992	
3226	0	33004	32832	37984	
3227	0	33016	32833	37972	
3228	0	33020	32828	37968	
3229	0	33028	32824	37972	
3230	0	33020	32824	37968	
3231	0	33004	32814	37972	
3232	0	32996	32816	37964	
3233	0	33004	32817	37972	
3234	0	33008	32820	37972	
3235	0	33008	32820	37988	
3236	0	33016	32813	37984	
3237	0	33016	32800	37984	
3238	0	33010	32808	37992	
3239	0	33020	32808	37980	
3240	0	33004	32820	37992	
3241	0	33020	32820	37980	
3242	0	33008	32824	37980	
3243	0	33004	32824	37992	
3244	0	32992	32828	37984	
3245	0	33012	32832	37962	
3246	0	33008	32840	37996	
3247	0	33004	32836	37996	
3248	0	33004	32836	37992	
3249	0	33008	32834	37968	
3250	0	33008	32832	37990	
3251	0	33004	32844	38000	
3252	0	33000	32844	37980	
3253	0	33004	32840	37988	
3254	0	33000	32848	37988	
3255	0	32996	32848	37970	
3256	0	33000	32840	37956	
3257	0	33004	32840	37976	
3258	0	33012	32854	37976	
3259	0	33004	32852	37982	
3260	0	33000	32848	37966	
3261	0	33012	32848	37973	
3262	0	33008	32856	37992	
3263	0	33004	32848	37992	
3264	0	33012	32848	37992	
3265	0	33012	32852	38012	
3266	0	33000	32852	37996	
3267	0	33000	32844	37992	
3268	0	33008	32833	38008	
3269	0	33012	32842	38004	
3270	0	33008	32840	38024	
3271	0	33004	32832	37996	
3272	0	33008	32840	38008	
3273	0	33010	32836	37996	
3274	0	33004	32840	37996	
3275	0	33014	32824	37980	
3276	0	33028	32828	37996	
3277	0	33020	32824	37988	
3278	0	33008	32836	37992	
3279	0	33008	32824	37996	
3280	0	33004	32836	37992	
3281	0	33008	32832	37972	
3282	0	33012	32828	37964	
3283	0	33008	32836	37976	
3284	0	33000	32828	38000	
3285	0	33000	32820	37992	
3286	0	33002	32836	38005	
3287	0	33008	32836	37984	
3288	0	33004	32836	37996	
3289	0	33000	32834	38000	
3290	0	32992	32837	37992	
3291	0	32992	32836	38004	
3292	0	32992	32844	38004	
3293	0	33004	32832	37988	
3294	0	33000	32821	37980	
3295	0	32996	32828	37992	
3296	0	33004	32828	38000	
3297	0	33008	32832	37992	
3298	0	33000	32836	37984	
3299	0	32998	32832	37988	
3300	0	32996	32832	38000	
3301	0	32992	32836	37984	
3302	0	32992	32836	37982	
3303	0	32996	32832	37992	
3304	0	32992	32836	37980	
3305	0	33002	32844	37980	
3306	0	32989	32836	37976	
3307	0	32992	32832	37972	
3308	0	32996	32828	37984	
3309	0	32996	32836	37988	
3310	0	32992	32836	37984	
3311	0	33000	32832	37984	
3312	0	33004	32832	37984	
3313	0	33000	32828	37980	
3314	0	33000	32832	37988	
3315	0	33029	32812	37992	
3316	0	33018	32816	37996	
3317	0	33020	32820	37980	
3318	0	33016	32828	37960	
3319	0	33008	32828	37964	
3320	0	33008	32805	37960	
3321	0	33012	32808	37980	
3322	0	33000	32804	37980	
3323	0	33016	32824	37964	
3324	0	33008	32828	37960	
3325	0	32992	32833	37956	
3326	0	32996	32832	37960	
3327	0	33004	32812	37984	
3328	0	33000	32820	38004	
3329	0	33004	32820	37996	
3330	0	33024	32804	37992	
3331	0	33008	32820	37988	
3332	0	33000	32824	37988	
3333	0	33000	32844	37988	
3334	0	32992	32840	38000	
3335	0	32992	32852	37992	
3336	0	33000	32841	37996	
3337	0	33008	32840	37980	
3338	0	33012	32824	37968	
3339	0	33008	32824	37984	
3340	0	33008	32832	37988	
3341	0	33008	32824	38000	
3342	0	33016	32824	38004	
3343	0	33016	32832	38004	
3344	0	33002	32844	38008	
3345	0	32992	32824	38000	
3346	0	33008	32824	37984	
3347	0	33004	32816	37972	
3348	0	32996	32832	37976	
3349	0	33000	32832	38024	
3350	0	33000	32832	38012	
3351	0	33012	32836	38016	
3352	0	33010	32832	37992	
3353	0	33004	32834	37980	
3354	0	33020	32828	37981	
3355	0	33012	32836	38012	
3356	0	33016	32840	38024	
3357	0	33000	32842	38012	
3358	0	33008	32836	37984	
3359	0	33004	32838	37988	
3360	0	33004	32832	37972	
3361	0	33016	32832	37972	
3362	0	33004	32848	37981	
3363	0	33016	32832	37972	
3364	0	33008	32840	37960	
3365	0	33008	32836	37981	
3366	0	33008	32834	37988	
3367	0	32992	32842	37996	
3368	0	32992	32848	37980	
3369	0	32996	32848	38004	
3370	0	32992	32836	37996	
3371	0	32992	32844	37996	
3372	0	32996	32848	37988	
3373	0	33004	32844	37980	
3374	0	33004	32836	37972	
3375	0	32992	32832	37980	
3376	0	33000	32844	37976	
3377	0	33012	32820	37982	
3378	0	33016	32824	37976	
3379	0	33000	32836	37964	
3380	0	33004	32836	37957	
3381	0	33004	32840	37952	
3382	0	33000	32832	37964	
3383	0	33016	32832	37968	
3384	0	33020	32836	37972	
3385	0	33016	32840	37984	
3386	0	33004	32828	37980	
3387	0	33008	32826	37980	
3388	0	33016	32820	38004	
3389	0	33008	32824	37992	
3390	0	32996	32824	37996	
3391	0	32996	32832	37996	
3392	0	33000	32828	38004	
3393	0	33008	32816	38020	
3394	0	33012	32816	37992	
3395	0	33008	32812	37976	
3396	0	33008	32816	37976	
3397	0	33004	32812	37964	
3398	0	33016	32808	37948	
3399	0	33008	32824	37952	
3400	0	32996	32820	37960	
3401	0	33012	32813	37980	
3402	0	33012	32816	37984	
3403	0	33004	32817	37984	
3404	0	33020	32816	37984	
3405	0	33012	32824	37992	
3406	0	33008	32816	37980	
3407	0	33020	32832	37978	
3408	0	33004	32832	37976	
3409	0	33004	32840	37964	
3410	0	33000	32816	37984	
3411	0	32996	32816	37973	
3412	0	33008	32832	37956	
3413	0	33012	32824	37976	
3414	0	33012	32816	37972	
3415	0	33004	32820	37976	
3416	0	32998	32812	37968	
3417	0	32996	32820	37960	
3418	0	33004	32808	37948	
3419	0	33004	32802	37984	
3420	0	33004	32820	37964	
3421	0	33004	32816	37948	
3422	0	33004	32828	37976	
3423	0	32996	32821	37960	
3424	0	32996	32824	37960	
3425	0	33000	32816	37964	
3426	0	32984	32820	37956	
3427	0	33012	32808	37976	
3428	0	33004	32812	37984	
3429	0	32996	32821	37996	
3430	0	33020	32808	37980	
3431	0	33008	32824	37988	
3432	0	33000	32832	37980	
3433	0	32984	32844	37956	
3434	0	32980	32856	37952	
3435	0	32984	32860	37964	
3436	0	32984	32832	37980	
3437	0	32984	32842	37988	
3438	0	32996	32844	37972	
3439	0	32992	32832	37972	
3440	0	32992	32824	38001	
3441	0	32976	32824	37988	
3442	0	32980	32832	37996	
3443	0	32976	32840	37976	
3444	0	32976	32848	37992	
3445	0	32980	32832	37980	
3446	0	32984	32836	37984	
3447	0	32978	32828	37984	
3448	0	32984	32822	37984	
3449	0	32992	32832	37996	
3450	0	33000	32826	37996	
3451	0	32992	32836	37968	
3452	0	32988	32836	37976	
3453	0	32984	32844	37996	
3454	0	32980	32836	38000	
3455	0	32980	32828	37988	
3456	0	33000	32840	38008	
3457	0	33000	32841	38008	
3458	0	33000	32848	38000	
3459	0	32996	32840	38004	
3460	0	32988	32848	37980	
3461	0	32992	32840	37984	
3462	0	32992	32840	37980	
3463	0	33004	32828	37980	
3464	0	33004	32821	37988	
3465	0	32992	32816	37984	
3466	0	33008	32820	37980	
3467	0	33000	32824	37976	
3468	0	32996	32826	37984	
3469	0	33000	32820	37984	
3470	0	32992	32816	37968	
3471	0	33004	32808	37977	
3472	0	33008	32820	37973	
3473	0	32992	32832	37984	
3474	0	32996	32840	37976	
3475	0	33000	32824	37980	
3476	0	33000	32840	37964	
3477	0	32996	32836	37976	
3478	0	33004	32824	37976	
3479	0	33004	32832	37972	
3480	0	32996	32844	37984	
3481	0	33000	32840	37962	
3482	0	33004	32836	37984	
3483	0	32992	32836	37984	
3484	0	33008	32828	37994	
3485	0	33012	32820	37990	
3486	0	33013	32826	37988	
3487	0	33004	32821	37988	
3488	0	33008	32832	37984	
3489	0	32996	32836	37985	
3490	0	32992	32832	37984	
3491	0	33000	32848	38004	
3492	0	33000	32836	37988	
3493	0	32992	32844	37992	
3494	0	33000	32832	37980	
3495	0	33000	32828	37956	
3496	0	33012	32832	37984	
3497	0	33016	32832	37976	
3498	0	33024	32828	37972	
3499	0	33004	32833	37996	
3500	0	33008	32832	37996	
3501	0	33008	32818	37996	
3502	0	33012	32828	37985	
3503	0	33004	32832	37976	
3504	0	33012	32820	37960	
3505	0	33002	32824	37968	
3506	0	32996	32828	37976	
3507	0	32992	32840	37984	
3508	0	32992	32844	37974	
3509	0	33008	32832	37972	
3510	0	33004	32824	37984	
3511	0	33016	32828	37988	
3512	0	33016	32828	37976	
3513	0	33020	32828	37988	
3514	0	33024	32836	37988	
3515	0	33012	32836	37982	
3516	0	33010	32836	37984	
3517	0	33000	32832	37984	
3518	0	33008	32832	38000	
3519	0	32992	32832	38004	
3520	0	32996	32850	37996	
3521	0	33012	32842	38018	
3522	0	32996	32852	38008	
3523	0	32992	32844	37992	
3524	0	32996	32840	38004	
3525	0	32992	32832	37996	
3526	0	32988	32832	37988	
3527	0	33000	32840	37984	
3528	0	32996	32836	37984	
3529	0	33002	32840	37980	
3530	0	32996	32836	37980	
3531	0	32996	32845	37984	
3532	0	33000	32838	37992	
3533	0	33008	32833	38000	
3534	0	32992	32832	38004	
3535	0	32993	32832	37996	
3536	0	33016	32832	37992	
3537	0	33016	32836	38012	
3538	0	33000	32844	38012	
3539	0	33000	32844	38004	
3540	0	32992	32836	37992	
3541	0	33004	32840	37976	
3542	0	33004	32845	37984	
3543	0	32996	32846	38008	
3544	0	32996	32842	37996	
3545	0	32996	32832	37996	
3546	0	32996	32824	37996	
3547	0	33000	32816	38012	
3548	0	33012	32824	38014	
3549	0	33024	32812	38004	
3550	0	33008	32812	38008	
3551	0	33016	32816	37996	
3552	0	33008	32820	37976	
3553	0	33016	32826	37984	
3554	0	33008	32817	37984	
3555	0	33000	32836	37980	
3556	0	33012	32830	37984	
3557	0	33004	32828	37972	
3558	0	33000	32832	37992	
3559	0	33004	32832	37972	
3560	0	32996	32840	37985	
3561	0	33008	32837	37984	
3562	0	33004	32844	37996	
3563	0	33004	32836	38000	
3564	0	33005	32836	38000	
3565	0	32996	32840	38004	
3566	0	32984	32836	37988	
3567	0	32988	32836	37973	
3568	0	32989	32828	38000	
3569	0	32992	32836	37988	
3570	0	32992	32824	37988	
3571	0	32988	32824	37992	
3572	0	32992	32828	37988	
3573	0	32988	32832	37978	
3574	0	32992	32832	37980	
3575	0	32988	32836	37996	
3576	0	32988	32824	37980	
3577	0	32996	32828	37980	
3578	0	32988	32824	37980	
3579	0	33004	32828	37976	
3580	0	33001	32820	37980	
3581	0	33000	32824	37990	
3582	0	33004	32836	37988	
3583	0	33000	32836	37996	
3584	0	32996	32840	37968	
3585	0	33000	32828	37980	
3586	0	32988	32842	37972	
3587	0	32984	32820	37992	
3588	0	32984	32824	37992	
3589	0	32988	32824	38002	
3590	0	32992	32816	37980	
3591	0	33004	32816	37974	
3592	0	33012	32824	37988	
3593	0	33012	32824	37989	
3594	0	33008	32824	37988	
3595	0	32996	32828	37976	
3596	0	32992	32832	37996	
3597	0	33000	32822	37980	
3598	0	33016	32816	37988	
3599	0	33000	32828	37980	
3600	0	32996	32832	38008	
3601	0	33008	32836	38004	
3602	0	33012	32809	37990	
3603	0	33012	32822	37992	
3604	0	33008	32812	37972	
3605	0	32992	32816	37976	
3606	0	32997	32820	37968	
3607	0	33000	32824	37992	
3608	0	33000	32816	37984	
3609	0	32992	32816	37992	
3610	0	33000	32808	37977	
3611	0	33008	32816	37972	
3612	0	33016	32808	37992	
3613	0	33016	32812	37988	
3614	0	33008	32816	37988	
3615	0	33008	32816	37984	
3616	0	33008	32808	37974	
3617	0	32992	32820	37980	
3618	0	32992	32824	37976	
3619	0	32992	32828	37984	
3620	0	32988	32828	37972	
3621	0	33002	32824	37988	
3622	0	33012	32820	37984	
3623	0	32996	32820	37988	
3624	0	33012	32824	37960	
3625	0	33020	32828	37984	
3626	0	33024	32828	37984	
3627	0	33024	32816	37996	
3628	0	33018	32816	37984	
3629	0	33016	32820	37988	
3630	0	33020	32844	37976	
3631	0	33017	32844	37988	
3632	0	33020	32844	37973	
3633	0	33024	32836	37960	
3634	0	33032	32834	37984	
3635	0	33016	32836	37972	
3636	0	33004	32852	37984	
3637	0	33000	32852	37962	
3638	0	33008	32848	37988	
3639	0	33004	32848	37986	
3640	0	33004	32856	37988	
3641	0	33004	32850	37976	
3642	0	33000	32849	37980	
3643	0	33012	32848	37964	
3644	0	33020	32848	37952	
3645	0	33017	32840	37976	
3646	0	33024	32848	37988	
3647	0	33016	32848	37984	
3648	0	33008	32848	37984	
3649	0	33004	32861	37968	
3650	0	33008	32856	37998	
3651	0	32996	32848	37984	
3652	0	33008	32856	37996	
3653	0	33020	32850	37960	
3654	0	33012	32868	37977	
3655	0	33004	32852	37989	
3656	0	33010	32840	37976	
3657	0	33012	32844	37980	
3658	0	33016	32840	38004	
3659	0	33008	32848	37996	
3660	0	33008	32848	37972	
3661	0	33004	32850	37964	
3662	0	33004	32864	37976	
3663	0	33008	32856	37988	
3664	0	33000	32852	37984	
3665	0	33016	32840	37996	
3666	0	33016	32848	37988	
3667	0	33020	32844	37996	
3668	0	33008	32848	37960	
3669	0	33012	32856	37968	
3670	0	33000	32864	37992	
3671	0	33000	32860	37996	
3672	0	33008	32861	37980	
3673	0	33024	32848	37984	
3674	0	33012	32852	37980	
3675	0	33008	32858	37976	
3676	0	33012	32848	37962	
3677	0	33014	32844	37960	
3678	0	33024	32844	37985	
3679	0	33042	32844	38000	
3680	0	33044	32844	37992	
3681	0	33028	32828	37980	
3682	0	32996	32823	37984	
3683	0	32988	32836	38009	
3684	0	32992	32816	38006	
3685	0	32996	32826	37984	
3686	0	33005	32824	37996	
3687	0	33008	32832	38016	
3688	0	33008	32824	38014	
3689	0	33004	32844	37996	
3690	0	33016	32840	37984	
3691	0	33024	32836	37992	
3692	0	33000	32828	38008	
3693	0	33000	32828	38000	
3694	0	33000	32836	37992	
3695	0	32992	32836	37988	
3696	0	32988	32834	37996	
3697	0	32984	32840	38012	
3698	0	32992	32845	37984	
3699	0	33004	32840	37996	
3700	0	33000	32836	38004	
3701	0	33012	32836	37984	
3702	0	33004	32828	37981	
3703	0	33012	32836	37968	
3704	0	33012	32816	37970	
3705	0	33000	32824	37972	
3706	0	33008	32826	37972	
3707	0	33008	32832	37972	
3708	0	33016	32832	37964	
3709	0	33004	32840	37952	
3710	0	33004	32836	37968	
3711	0	33004	32836	37968	
3712	0	33000	32840	37968	
3713	0	32996	32844	37980	
3714	0	33004	32848	37988	
3715	0	33004	32840	37988	
3716	0	33016	32832	37989	
3717	0	33016	32828	37988	
3718	0	33014	32824	37992	
3719	0	33004	32832	38004	
3720	0	32992	32832	37980	
3721	0	33001	32840	37984	
3722	0	32992	32848	37996	
3723	0	33000	32852	37972	
3724	0	33004	32842	37974	
3725	0	32992	32840	37984	
3726	0	33004	32836	37988	
3727	0	33000	32856	37984	
3728	0	33004	32842	38008	
3729	0	33000	32842	38020	
3730	0	33002	32840	37980	
3731	0	33008	32836	37968	
3732	0	33004	32836	37984	
3733	0	33008	32828	37988	
3734	0	33024	32829	37964	
3735	0	33016	32832	37980	
3736	0	33020	32832	37980	
3737	0	33016	32832	37984	
3738	0	33024	32836	37981	
3739	0	33016	32820	38000	
3740	0	33012	32828	37992	
3741	0	33024	32824	37968	
3742	0	33024	32820	37984	
3743	0	33024	32832	37984	
3744	0	33028	32820	37968	
3745	0	33016	32836	37956	
3746	0	33032	32814	37972	
3747	0	33024	32820	37968	
3748	0	33028	32828	37990	
3749	0	33024	32824	37988	
3750	0	33020	32816	37984	
3751	0	33004	32820	37964	
3752	0	33024	32816	37980	
3753	0	33014	32812	37985	
3754	0	33016	32812	37992	
3755	0	33016	32810	37988	
3756	0	33032	32808	37992	
3757	0	33012	32818	37976	
3758	0	33008	32833	37964	
3759	0	33008	32828	37984	
3760	0	33004	32840	37980	
3761	0	33004	32836	37972	
3762	0	33016	32832	37968	
3763	0	33012	32832	37992	
3764	0	33016	32844	37984	
3765	0	33032	32844	38000	
3766	0	33036	32844	37992	
3767	0	33032	32848	37984	
3768	0	33040	32840	38004	
3769	0	33028	32844	37988	
3770	0	33018	32860	37988	
3771	0	33028	32846	38005	
3772	0	33028	32852	38008	
3773	0	33020	32840	37984	
3774	0	33012	32825	37980	
3775	0	33004	32828	38000	
3776	0	33004	32828	38012	
3777	0	33000	32834	37976	
3778	0	33002	32828	37984	
3779	0	33008	32824	37980	
3780	0	33016	32824	37972	
3781	0	33008	32832	37984	
3782	0	33009	32828	37982	
3783	0	33004	32840	37992	
3784	0	33000	32846	38004	
3785	0	33012	32824	38008	
3786	0	33008	32816	37982	
3787	0	33008	32828	37968	
3788	0	33016	32824	37984	
3789	0	33000	32836	37980	
3790	0	33004	32832	37980	
3791	0	33008	32841	37980	
3792	0	33012	32828	37988	
3793	0	33012	32824	37988	
3794	0	33008	32832	38000	
3795	0	33004	32824	37988	
3796	0	33016	32824	38004	
3797	0	33012	32824	38000	
3798	0	33020	32829	37992	
3799	0	33024	32820	37960	
3800	0	33016	32828	37972	
3801	0	33004	32826	37968	
3802	0	33008	32820	37976	
3803	0	32992	32828	37972	
3804	0	33004	32832	37988	
3805	0	33018	32828	37972	
3806	0	33012	32820	37952	
3807	0	33004	32828	37960	
3808	0	33012	32836	37996	
3809	0	33016	32832	38004	
3810	0	33010	32836	37992	
3811	0	33020	32828	37976	
3812	0	33012	32836	37984	
3813	0	33024	32836	37992	
3814	0	33008	32828	37980	
3815	0	33004	32832	38000	
3816	0	33008	32840	37964	
3817	0	33012	32832	37984	
3818	0	33012	32824	38000	
3819	0	33012	32821	38000	
3820	0	33024	32824	38008	
3821	0	33024	32828	38000	
3822	0	33020	32832	38004	
3823	0	33024	32828	37996	
3824	0	33000	32812	37989	
3825	0	33008	32816	37988	
3826	0	33016	32825	38024	
3827	0	33004	32824	38020	
3828	0	33000	32832	38016	
3829	0	33012	32818	38016	
3830	0	33016	32828	38012	
3831	0	33032	32824	37996	
3832	0	33032	32816	37996	
3833	0	33024	32828	37988	
3834	0	33020	32832	38004	
3835	0	33016	32832	37968	
3836	0	33004	32832	37956	
3837	0	33005	32828	37948	
3838	0	33008	32832	37996	
3839	0	33016	32833	37996	
3840	0	33008	32836	37992	
3841	0	33016	32848	37992	
3842	0	33000	32864	38000	
3843	0	33008	32840	37973	
3844	0	33020	32836	37972	
3845	0	33008	32844	37992	
3846	0	33008	32832	37992	
3847	0	33004	32844	37980	
3848	0	33000	32838	37988	
3849	0	33004	32836	37988	
3850	0	33004	32848	37972	
3851	0	33008	32856	37968	
3852	0	33008	32840	37980	
3853	0	33009	32840	37984	
3854	0	33016	32840	38012	
3855	0	33024	32836	38016	
3856	0	33016	32830	38008	
3857	0	33024	32820	37980	
3858	0	33020	32840	37992	
3859	0	33016	32832	37988	
3860	0	33028	32837	37988	
3861	0	33024	32832	37972	
3862	0	33026	32828	37964	
3863	0	33008	32844	37968	
3864	0	33008	32840	37998	
3865	0	33008	32848	37992	
3866	0	33004	32852	37992	
3867	0	33004	32836	37984	
3868	0	33000	32824	37992	
3869	0	33000	32828	37996	
3870	0	32997	32836	37988	
3871	0	33008	32836	37984	
3872	0	33000	32844	37984	
3873	0	33012	32836	37996	
3874	0	33016	32836	37988	
3875	0	33012	32844	37984	
3876	0	33000	32833	37998	
3877	0	33004	32832	38012	
3878	0	33000	32840	38012	
3879	0	33004	32840	37996	
3880	0	33000	32852	37992	
3881	0	32996	32840	37988	
3882	0	33002	32849	37992	
3883	0	33020	32824	38004	
3884	0	33012	32820	38004	
3885	0	33008	32836	37988	
3886	0	33008	32834	38004	
3887	0	33000	32824	38004	
3888	0	33000	32820	38000	
3889	0	33016	32824	38000	
3890	0	33016	32836	37980	
3891	0	33016	32832	37960	
3892	0	33016	32832	37964	
3893	0	33016	32832	37984	
3894	0	33018	32824	37984	
3895	0	33016	32836	38000	
3896	0	33028	32828	37996	
3897	0	33016	32825	37984	
3898	0	33016	32828	37988	
3899	0	33008	32828	38008	
3900	0	33016	32828	37988	
3901	0	33010	32824	38000	
3902	0	33012	32832	37978	
3903	0	33028	32820	37992	
3904	0	33024	32820	38004	
3905	0	33024	32804	37996	
3906	0	33024	32812	37988	
3907	0	33036	32808	37976	
3908	0	33028	32808	37980	
3909	0	33020	32804	37996	
3910	0	33024	32816	37988	
3911	0	33020	32824	37964	
3912	0	33024	32816	37972	
3913	0	33024	32824	37952	
3914	0	33024	32816	37992	
3915	0	33012	32832	37984	
3916	0	33024	32834	37984	
3917	0	33024	32832	37968	
3918	0	33032	32828	37956	
3919	0	33036	32820	37980	
3920	0	33024	32820	37992	
3921	0	33024	32832	37988	
3922	0	33024	32820	37984	
3923	0	33020	32824	37956	
3924	0	33024	32816	37972	
3925	0	33028	32828	37964	
3926	0	33028	32820	37984	
3927	0	33028	32808	37984	
3928	0	33032	32816	37992	
3929	0	33032	32816	37987	
3930	0	33028	32812	37980	
3931	0	33029	32816	37984	
3932	0	33028	32812	37980	
3933	0	33028	32816	37972	
3934	0	33024	32808	37976	
3935	0	33040	32812	37964	
3936	0	33032	32816	37964	
3937	0	33032	32826	37946	
3938	0	33032	32824	37952	
3939	0	33040	32824	37976	
3940	0	33024	32836	37976	
3941	0	33036	32832	37988	
3942	0	33028	32848	37996	
3943	0	33020	32832	37992	
3944	0	33010	32840	37988	
3945	0	33024	32840	37984	
3946	0	33022	32836	37988	
3947	0	33036	32852	37956	
3948	0	33020	32832	37988	
3949	0	33000	32836	37988	
3950	0	33008	32844	38012	
3951	0	33016	32840	38001	
3952	0	33020	32846	38000	
3953	0	33024	32832	37981	
3954	0	33016	32832	37984	
3955	0	33008	32834	37988	
3956	0	33028	32820	37988	
3957	0	33016	32832	37980	
3958	0	33012	32832	37984	
3959	0	33016	32820	37972	
3960	0	33008	32828	37984	
3961	0	33008	32834	37992	
3962	0	33004	32828	37992	
3963	0	33008	32828	37996	
3964	0	33008	32844	37996	
3965	0	33000	32840	37992	
3966	0	33000	32828	38000	
3967	0	32992	32828	37988	
3968	0	32988	32832	37992	
3969	0	32992	32836	38008	
3970	0	32988	32844	37992	
3971	0	32996	32828	37988	
3972	0	33000	32832	37992	
3973	0	33000	32832	37988	
3974	0	33004	32836	37984	
3975	0	33000	32837	37984	
3976	0	33010	32852	37988	
3977	0	32996	32846	37996	
3978	0	33004	32841	37992	
3979	0	33016	32828	37984	
3980	0	33013	32824	37988	
3981	0	32996	32828	37992	
3982	0	33008	32828	37976	
3983	0	33004	32844	37964	
3984	0	33000	32848	37984	
3985	0	33000	32844	37992	
3986	0	32996	32848	38012	
3987	0	33004	32832	38008	
3988	0	33012	32840	38005	
3989	0	33010	32832	37998	
3990	0	33000	32840	38000	
3991	0	33008	32840	37992	
3992	0	33012	32832	37984	
3993	0	33004	32828	37988	
3994	0	33000	32832	37980	
3995	0	33012	32824	37972	
3996	0	33016	32824	37981	
3997	0	33016	32824	37964	
3998	0	33024	32816	37948	
3999	0	33016	32816	37976	
4000	0	33020	32820	37980	
4001	0	33004	32816	37972	
4002	0	33016	32820	37964	
4003	0	33016	32828	37980	
4004	0	33020	32820	37984	
4005	0	33010	32824	37980	
4006	0	33016	32824	37992	
4007	0	33024	32824	38008	
4008	0	33020	32836	38000	
4009	0	33020	32812	37988	
4010	0	33008	32820	37964	
4011	0	33008	32824	37964	
4012	0	33008	32828	37964	
4013	0	33004	32832	37960	
4014	0	33004	32833	37960	
4015	0	33004	32836	37972	
4016	0	33008	32828	37984	
4017	0	33004	32844	37988	
4018	0	32996	32844	37984	
4019	0	33004	32832	37977	
4020	0	33016	32818	38000	
4021	0	33008	32834	37984	
4022	0	33012	32824	37976	
4023	0	33008	32836	37992	
4024	0	33004	32836	37984	
4025	0	33012	32832	37964	
4026	0	33012	32836	37972	
4027	0	33008	32832	37992	
4028	0	33000	32832	38000	
4029	0	33000	32824	37992	
4030	0	33000	32824	37993	
4031	0	33004	32816	38000	
4032	0	33008	32828	37988	
4033	0	33008	32828	37976	
4034	0	33010	32836	37972	
4035	0	33016	32836	37984	
4036	0	33012	32848	37988	
4037	0	33008	32845	37992	
4038	0	33004	32841	37988	
4039	0	33012	32832	37994	
4040	0	33012	32836	37984	
4041	0	33028	32828	37996	
4042	0	33028	32829	37996	
4043	0	33028	32832	37988	
4044	0	33008	32848	37984	
4045	0	33008	32848	37992	
4046	0	33016	32846	38000	
4047	0	33008	32840	37984	
4048	0	33012	32845	37968	
4049	0	33024	32840	37980	
4050	0	33017	32832	37952	
4051	0	33032	32840	37968	
4052	0	33021	32832	37972	
4053	0	33016	32846	38000	
4054	0	33008	32844	37992	
4055	0	33008	32844	37976	
4056	0	33004	32852	38004	
4057	0	33002	32852	37984	
4058	0	33016	32848	37988	
4059	0	33008	32848	37972	
4060	0	33004	32844	37988	
4061	0	33008	32848	37976	
4062	0	33008	32848	37956	
4063	0	33000	32852	37968	
4064	0	33008	32848	37953	
4065	0	32996	32856	37965	
4066	0	33010	32840	37960	
4067	0	33008	32848	37952	
4068	0	33005	32860	37960	
4069	0	33012	32836	37968	
4070	0	33032	32832	38000	
4071	0	33028	32844	38008	
4072	0	33024	32836	37992	
4073	0	33024	32840	37992	
4074	0	33028	32832	37992	
4075	0	33024	32832	37980	
4076	0	33008	32844	37972	
4077	0	33008	32832	37980	
4078	0	33004	32844	37996	
4079	0	32992	32840	38008	
4080	0	32992	32840	38000	
4081	0	33004	32824	38008	
4082	0	33020	32840	37992	
4083	0	33008	32832	37988	
4084	0	33012	32836	37964	
4085	0	33008	32840	37988	
4086	0	33000	32840	37984	
4087	0	33000	32836	37996	
4088	0	33014	32836	37984	
4089	0	33016	32824	37980	
4090	0	33008	32826	37992	
4091	0	33025	32820	37984	
4092	0	33016	32816	37976	
4093	0	33020	32824	37985	
4094	0	33013	32824	37980	
4095	0	33016	32824	37980	
4096	0	33008	32824	37980	
4097	0	33012	32836	37980	
4098	0	33020	32844	37976	
4099	0	33012	32828	37976	
4100	0	33016	32832	37948	
4101	0	33013	32820	37952	
4102	0	33012	32832	37972	
4103	0	33008	32820	37984	
4104	0	33008	32832	37988	
4105	0	33012	32820	38008	
4106	0	33000	32820	38004	
4107	0	33020	32805	37996	
4108	0	33020	32814	38000	
4109	0	33008	32816	38000	
4110	0	33012	32820	37992	
4111	0	33008	32812	37988	
4112	0	33012	32812	37984	
4113	0	33016	32808	37980	
4114	0	33008	32812	37980	
4115	0	33008	32816	37976	
4116	0	33004	32817	37996	
4117	0	33016	32820	37972	
4118	0	33016	32816	37992	
4119	0	33016	32824	37972	
4120	0	33004	32832	37956	
4121	0	33012	32828	37964	
4122	0	33000	32832	37980	
4123	0	33000	32828	37992	
4124	0	33008	32824	37989	
4125	0	33008	32828	38009	
4126	0	33016	32840	38024	
4127	0	33008	32848	37992	
4128	0	33008	32834	38004	
4129	0	33012	32836	38012	
4130	0	33000	32832	38004	
4131	0	33008	32824	38012	
4132	0	33004	32836	38004	
4133	0	33000	32824	38012	
4134	0	33004	32824	37988	
4135	0	33020	32836	37968	
4136	0	33020	32828	37988	
4137	0	33016	32820	37997	
4138	0	32994	32824	37968	
4139	0	32996	32840	37973	
4140	0	33000	32832	37964	
4141	0	33000	32824	37976	
4142	0	33004	32817	37972	
4143	0	32992	32820	37984	
4144	0	33004	32820	37992	
4145	0	33004	32812	37984	
4146	0	33000	32816	38000	
4147	0	33004	32812	38000	
4148	0	33008	32820	37976	
4149	0	33012	32824	37961	
4150	0	32994	32832	37982	
4151	0	33004	32824	37964	
4152	0	32996	32820	37984	
4153	0	33012	32828	37972	
4154	0	33008	32812	37972	
4155	0	33000	32816	37996	
4156	0	33004	32816	37992	
4157	0	33012	32816	37976	
4158	0	33020	32824	37980	
4159	0	33016	32832	37976	
4160	0	32996	32836	37976	
4161	0	33000	32836	37944	
4162	0	32996	32844	37948	
4163	0	33016	32836	38004	
4164	0	33008	32836	38000	
4165	0	33004	32832	37988	
4166	0	33008	32848	37978	
4167	0	33000	32852	37976	
4168	0	33004	32840	37972	
4169	0	33008	32840	37964	
4170	0	33020	32825	37977	
4171	0	33028	32832	37980	
4172	0	33020	32816	37996	
4173	0	33024	32820	37992	
4174	0	33024	32816	37976	
4175	0	33016	32816	37972	
4176	0	33024	32816	37976	
4177	0	33020	32816	37972	
4178	0	33020	32812	37952	
4179	0	33032	32812	37956	
4180	0	33024	32808	37972	
4181	0	33016	32810	37980	
4182	0	33016	32808	37976	
4183	0	33016	32804	37984	
4184	0	33008	32822	37984	
4185	0	33000	32816	37988	
4186	0	33000	32824	37992	
4187	0	33016	32824	37980	
4188	0	33008	32828	37988	
4189	0	33008	32832	37992	
4190	0	33016	32832	37988	
4191	0	33002	32836	37988	
4192	0	33008	32832	37994	
4193	0	33008	32824	37968	
4194	0	33016	32820	37972	
4195	0	33016	32832	37964	
4196	0	33008	32832	37972	
4197	0	33008	32841	37988	
4198	0	33014	32828	38000	
4199	0	33012	32837	37984	
4200	0	33008	32832	37980	
4201	0	33008	32842	37992	
4202	0	33016	32832	38012	
4203	0	33016	32832	37984	
4204	0	33028	32836	38008	
4205	0	33012	32836	37988	
4206	0	33008	32836	37992	
4207	0	33016	32840	37976	
4208	0	33024	32828	37988	
4209	0	33008	32828	37968	
4210	0	33016	32844	37996	
4211	0	33017	32840	38004	
4212	0	33016	32848	37984	
4213	0	33012	32844	37992	
4214	0	33016	32841	37984	
4215	0	33024	32836	37980	
4216	0	33012	32828	37988	
4217	0	33008	32832	38004	
4218	0	33012	32832	37980	
4219	0	33012	32832	37984	
4220	0	33020	32828	37960	
4221	0	33024	32816	37976	
4222	0	33028	32821	38000	
4223	0	33024	32830	38000	
4224	0	33024	32828	37996	
4225	0	33020	32836	37984	
4226	0	33024	32840	37988	
4227	0	33024	32832	37984	
4228	0	33024	32840	37972	
4229	0	33017	32844	37976	
4230	0	33020	32846	37976	
4231	0	33024	32840	37972	
4232	0	33024	32848	37957	
4233	0	33016	32848	37952	
4234	0	33016	32832	37968	
4235	0	33012	32840	37980	
4236	0	33016	32832	37976	
4237	0	32996	32840	37988	
4238	0	33012	32844	38000	
4239	0	33016	32836	38000	
4240	0	33016	32848	37996	
4241	0	32992	32852	37980	
4242	0	33004	32856	37976	
4243	0	33004	32844	37984	
4244	0	33000	32848	37985	
4245	0	32996	32852	37984	
4246	0	32996	32856	37984	
4247	0	33008	32846	37988	
4248	0	33008	32848	37984	
4249	0	33004	32844	37996	
4250	0	33008	32828	37964	
4251	0	33012	32838	37988	
4252	0	33016	32840	37973	
4253	0	33016	32848	37953	
4254	0	33016	32844	37944	
4255	0	33004	32848	37956	
4256	0	33013	32836	37960	
4257	0	33016	32832	37960	
4258	0	33020	32845	37980	
4259	0	33012	32837	38000	
4260	0	33012	32837	37966	
4261	0	33008	32852	37956	
4262	0	33016	32850	37960	
4263	0	33016	32828	37972	
4264	0	33020	32836	37952	
4265	0	33016	32828	37956	
4266	0	33016	32836	37956	
4267	0	33009	32836	37964	
4268	0	33008	32832	37976	
4269	0	33024	32824	37964	
4270	0	33021	32820	37984	
4271	0	33016	32826	37988	
4272	0	33012	32816	37988	
4273	0	33004	32828	37980	
4274	0	33012	32812	37980	
4275	0	33016	32832	38002	
4276	0	33004	32832	37996	
4277	0	33004	32832	37996	
4278	0	33004	32832	37984	
4279	0	33004	32820	37977	
4280	0	33008	32816	37972	
4281	0	33016	32804	37944	
4282	0	33012	32812	37944	
4283	0	33020	32816	37960	
4284	0	33020	32824	37988	
4285	0	33016	32820	37996	
4286	0	33016	32812	38008	
4287	0	33008	32824	37985	
4288	0	33016	32820	37996	
4289	0	33016	32825	38008	
4290	0	33020	32820	38004	
4291	0	33032	32812	38020	
4292	0	33024	32808	38006	
4293	0	33008	32813	37984	
4294	0	33000	32812	37988	
4295	0	33000	32830	37988	
4296	0	33004	32816	37972	
4297	0	33016	32812	37960	
4298	0	33016	32812	37972	
4299	0	33008	32812	37988	
4300	0	33008	32824	37988	
4301	0	33012	32814	37984	
4302	0	33009	32828	37992	
4303	0	32992	32828	37972	
4304	0	33000	32836	37988	
4305	0	33004	32840	37996	
4306	0	33008	32852	37968	
4307	0	33008	32836	37980	
4308	0	33000	32852	38008	
4309	0	33004	32845	37976	
4310	0	33008	32836	37984	
4311	0	33000	32828	37984	
4312	0	33000	32832	37988	
4313	0	33000	32818	37988	
4314	0	33008	32820	37996	
4315	0	33004	32820	37988	
4316	0	33008	32824	37996	
4317	0	33020	32828	37988	
4318	0	33016	32824	38004	
4319	0	33012	32812	37996	
4320	0	33004	32824	37996	
4321	0	33008	32813	37988	
4322	0	33000	32816	38000	
4323	0	33008	32812	38004	
4324	0	33008	32816	38000	
4325	0	33016	32818	37988	
4326	0	33012	32812	37976	
4327	0	33016	32816	37982	
4328	0	33017	32812	37984	
4329	0	33020	32800	37984	
4330	0	33028	32804	37992	
4331	0	33020	32800	37996	
4332	0	33012	32813	37968	
4333	0	33012	32816	37989	
4334	0	33016	32813	37984	
4335	0	33008	32816	37988	
4336	0	33016	32820	37980	
4337	0	33016	32820	37956	
4338	0	33020	32820	37980	
4339	0	33016	32824	37984	
4340	0	33001	32820	37992	
4341	0	33013	32812	37956	
4342	0	33020	32812	37980	
4343	0	33020	32828	37968	
4344	0	33012	32824	37956	
4345	0	33024	32824	37960	
4346	0	33016	32826	37984	
4347	0	33016	32830	37996	
4348	0	33008	32836	37988	
4349	0	33012	32836	37992	
4350	0	33012	32848	37968	
4351	0	33012	32856	37984	
4352	0	33012	32852	37972	
4353	0	33016	32860	37992	
4354	0	33016	32864	38005	
4355	0	33012	32860	38004	
4356	0	33028	32848	37992	
4357	0	33028	32840	37992	
4358	0	33032	32840	37988	
4359	0	33032	32836	37972	
4360	0	33028	32832	37964	
4361	0	33028	32832	37960	
4362	0	33020	32832	37960	
4363	0	33020	32836	37960	
4364	0	33032	32832	37960	
4365	0	33024	32841	37972	
4366	0	33028	32830	37976	
4367	0	33024	32844	37976	
4368	0	33024	32852	37984	
4369	0	33024	32856	37976	
4370	0	33024	32852	37996	
4371	0	33016	32856	38000	
4372	0	33008	32864	38000	
4373	0	33017	32864	38000	
4374	0	33036	32860	37988	
4375	0	33029	32860	37992	
4376	0	33016	32852	37984	
4377	0	33020	32852	37964	
4378	0	33016	32844	37996	
4379	0	33028	32842	38012	
4380	0	33032	32844	37989	
4381	0	33028	32856	38008	
4382	0	33028	32844	37996	
4383	0	33020	32854	37968	
4384	0	33036	32832	37981	
4385	0	33024	32840	37980	
4386	0	33028	32840	37988	
4387	0	33044	32832	37994	
4388	0	33024	32837	37966	
4389	0	33024	32836	37981	
4390	0	33028	32828	37992	
4391	0	33025	32840	37976	
4392	0	33024	32844	37976	
4393	0	33009	32852	37988	
4394	0	33008	32856	37993	
4395	0	33000	32848	37992	
4396	0	33004	32852	37988	
4397	0	33012	32848	38000	
4398	0	33008	32852	37996	
4399	0	33008	32845	38004	
4400	0	33012	32840	38004	
4401	0	33024	32834	37992	
4402	0	33024	32832	38004	
4403	0	33032	32832	38000	
4404	0	33020	32832	37996	
4405	0	33020	32832	37996	
4406	0	33012	32848	38008	
4407	0	32996	32864	38014	
4408	0	33012	32848	38012	
4409	0	33008	32840	37989	
4410	0	33009	32840	37968	
4411	0	33000	32840	37985	
4412	0	33004	32828	37948	
4413	0	33002	32840	37980	
4414	0	33000	32844	37984	
4415	0	33008	32840	37980	
4416	0	33000	32836	37992	
4417	0	32996	32852	37984	
4418	0	33001	32848	37972	
4419	0	33000	32848	37980	
4420	0	32996	32857	37964	
4421	0	33004	32856	37956	
4422	0	32998	32834	37980	
4423	0	33004	32832	37980	
4424	0	33008	32840	37964	
4425	0	33012	32841	37976	
4426	0	33016	32838	37984	
4427	0	33012	32836	38000	
4428	0	33001	32836	38016	
4429	0	33004	32820	37997	
4430	0	33008	32832	37984	
4431	0	33000	32816	37988	
4432	0	33016	32816	37980	
4433	0	33000	32832	37968	
4434	0	33000	32836	37976	
4435	0	33016	32836	37972	
4436	0	33016	32836	37984	
4437	0	33000	32840	37988	
4438	0	32996	32848	37984	
4439	0	32992	32840	37988	
4440	0	32984	32836	37996	
4441	0	32992	32832	38016	
4442	0	32980	32840	38004	
4443	0	33000	32836	37980	
4444	0	32996	32848	37986	
4445	0	33006	32844	37988	
4446	0	33000	32836	37988	
4447	0	32992	32848	38000	
4448	0	33000	32844	38000	
4449	0	32996	32840	37997	
4450	0	33008	32840	37989	
4451	0	33016	32820	38016	
4452	0	33008	32824	38002	
4453	0	33012	32832	38016	
4454	0	33020	32824	38012	
4455	0	33008	32824	37996	
4456	0	33016	32828	37988	
4457	0	33012	32834	37966	
4458	0	33012	32824	37980	
4459	0	33000	32830	37976	
4460	0	32993	32828	37968	
4461	0	33000	32832	37972	
4462	0	32992	32832	37992	
4463	0	33000	32828	38008	
4464	0	33002	32828	37989	
4465	0	32992	32836	37964	
4466	0	33004	32840	37950	
4467	0	33024	32828	37940	
4468	0	33020	32832	37932	
4469	0	33020	32832	37948	
4470	0	33000	32836	37972	
4471	0	33004	32837	37956	
4472	0	33000	32832	37964	
4473	0	32992	32842	37972	
4474	0	32992	32848	37968	
4475	0	32996	32852	38002	
4476	0	33000	32840	38004	
4477	0	33008	32840	38004	
4478	0	33008	32833	38010	
4479	0	33000	32820	37992	
4480	0	33008	32824	37988	
4481	0	33008	32820	37988	
4482	0	33012	32828	37984	
4483	0	33012	32825	37980	
4484	0	33020	32836	37980	
4485	0	33012	32809	37980	
4486	0	33000	32822	37984	
4487	0	33000	32836	37968	
4488	0	33004	32824	38016	
4489	0	32996	32824	37996	
4490	0	33000	32830	37990	
4491	0	33024	32816	37983	
4492	0	33020	32812	37996	
4493	0	33020	32822	37988	
4494	0	33020	32816	37996	
4495	0	32996	32828	37972	
4496	0	33012	32830	37996	
4497	0	33012	32832	37992	
4498	0	33012	32813	37984	
4499	0	33004	32828	37976	
4500	0	33018	32832	37984	
4501	0	33016	32824	37993	
4502	0	33008	32832	37980	
4503	0	33020	32824	37973	
4504	0	33020	32832	37968	
4505	0	33020	32828	37980	
4506	0	33012	32840	37976	
4507	0	33008	32832	37996	
4508	0	33008	32832	37988	
4509	0	33005	32844	37992	
4510	0	33009	32832	37980	
4511	0	33016	32832	37996	
4512	0	33008	32820	38008	
4513	0	33016	32825	37996	
4514	0	33008	32824	38004	
4515	0	33008	32832	37980	
4516	0	33020	32824	37997	
4517	0	33016	32826	37996	
4518	0	33024	32816	37978	
4519	0	33016	32820	37988	
4520	0	33024	32812	37992	
4521	0	33024	32816	37976	
4522	0	33024	32828	37964	
4523	0	33024	32832	37996	
4524	0	33025	32824	37984	
4525	0	33017	32828	37960	
4526	0	33020	32824	37980	
4527	0	33020	32820	37984	
4528	0	33012	32832	37985	
4529	0	33008	32832	37996	
4530	0	33000	32844	37988	
4531	0	33008	32852	37980	
4532	0	33020	32849	38000	
4533	0	33016	32836	37976	
4534	0	33036	32840	37988	
4535	0	33028	32848	37980	
4536	0	33044	32836	37976	
4537	0	33036	32840	37976	
4538	0	33036	32834	37992	
4539	0	33032	32840	37988	
4540	0	33024	32830	37992	
4541	0	33032	32820	37984	
4542	0	33018	32828	37994	
4543	0	33020	32832	37984	
4544	0	33012	32844	37980	
4545	0	33012	32844	37980	
4546	0	33012	32852	37972	
4547	0	33016	32852	37968	
4548	0	33016	32844	37988	
4549	0	33024	32836	37990	
4550	0	33016	32848	37992	
4551	0	33012	32832	37984	
4552	0	33012	32836	37984	
4553	0	33008	32832	37982	
4554	0	33012	32836	37980	
4555	0	33020	32832	37976	
4556	0	33016	32830	37996	
4557	0	33008	32828	37984	
4558	0	33000	32832	37972	
4559	0	32996	32832	37973	
4560	0	33004	32825	37980	
4561	0	33000	32828	37984	
4562	0	33000	32824	37980	
4563	0	33016	32817	37960	
4564	0	33016	32816	37968	
4565	0	33004	32820	37977	
4566	0	33004	32824	37964	
4567	0	33008	32826	37984	
4568	0	33016	32824	37980	
4569	0	33024	32816	37992	
4570	0	33024	32816	37988	
4571	0	33008	32828	37996	
4572	0	33016	32828	37968	
4573	0	33016	32828	37976	
4574	0	33024	32830	37961	
4575	0	33025	32829	37976	
4576	0	33016	32826	37993	
4577	0	33020	32840	37984	
4578	0	33020	32852	37984	
4579	0	33032	32852	37992	
4580	0	33032	32832	37984	
4581	0	33036	32828	37972	
4582	0	33032	32820	37984	
4583	0	33013	32828	37984	
4584	0	33016	32836	37988	
4585	0	33000	32840	37968	
4586	0	33008	32848	37988	
4587	0	33008	32844	37980	
4588	0	33000	32848	38000	
4589	0	32996	32848	37992	
4590	0	33000	32840	37988	
4591	0	33004	32828	38001	
4592	0	33004	32816	38016	
4593	0	33020	32820	38004	
4594	0	33028	32822	37992	
4595	0	33016	32830	37977	
4596	0	33004	32826	37996	
4597	0	33010	32822	37976	
4598	0	33008	32820	37960	
4599	0	33020	32812	37972	
4600	0	33012	32808	37964	
4601	0	33016	32820	37990	
4602	0	33016	32812	37992	
4603	0	33020	32816	38020	
4604	0	33012	32824	38000	
4605	0	33012	32820	38020	
4606	0	33004	32832	38016	
4607	0	33004	32828	38012	
4608	0	33001	32832	37986	
4609	0	33016	32824	37993	
4610	0	33012	32820	37984	
4611	0	33016	32812	37980	
4612	0	33016	32832	37992	
4613	0	33012	32840	37989	
4614	0	33012	32844	37988	
4615	0	33020	32828	37996	
4616	0	33020	32832	38004	
4617	0	33000	32860	38004	
4618	0	32994	32854	38016	
4619	0	33000	32844	37996	
4620	0	33000	32836	37972	
4621	0	33012	32828	37984	
4622	0	33016	32824	37980	
4623	0	33028	32828	37980	
4624	0	33024	32833	37974	
4625	0	33034	32840	37964	
4626	0	33020	32840	37988	
4627	0	33016	32848	37980	
4628	0	33012	32848	37988	
4629	0	33008	32856	37988	
4630	0	33004	32854	38004	
4631	0	32992	32856	37984	
4632	0	32996	32860	37972	
4633	0	33000	32868	37984	
4634	0	32992	32860	37988	
4635	0	32992	32856	37976	
