# OpenSignals Text File Format
# {"00:07:80:3B:46:58": {"sensor": ["RAW"], "device name": "00:07:80:3B:46:58", "column": ["nSeq", "DI", "CH1"], "sync interval": 2, "time": "13:28:24.199", "comments": "", "device connection": "BTH00:07:80:3B:46:58", "channels": [1], "keywords": "", "mode": 0, "digital IO": [0, 1], "firmware version": 774, "device": "biosignalsplux", "position": 0, "sampling rate": 1000, "label": ["CH1"], "resolution": [16], "date": "2019-3-12", "special": [{}]}}
# EndOfHeader
0	0	32982	
1	0	32928	
2	0	33020	
3	0	32918	
4	0	32684	
5	0	32748	
6	0	32681	
7	0	32602	
8	0	32708	
9	0	32714	
10	0	32603	
11	0	32772	
12	0	32824	
13	0	32624	
14	0	32677	
15	0	32566	
16	0	32452	
17	0	32750	
18	0	32756	
19	0	32300	
20	0	32504	
21	0	32792	
22	0	32844	
23	0	32850	
24	0	32712	
25	0	32936	
26	0	33120	
27	0	33032	
28	0	32829	
29	0	32698	
30	0	32883	
31	0	33104	
32	0	33024	
33	0	32929	
34	0	32737	
35	0	32684	
36	0	32660	
37	0	32413	
38	0	32638	
39	0	32666	
40	0	32542	
41	0	32612	
42	0	32689	
43	0	32580	
44	0	32728	
45	0	32878	
46	0	32664	
47	0	32622	
48	0	32736	
49	0	32708	
50	0	32810	
51	0	32882	
52	0	32834	
53	0	33016	
54	0	32952	
55	0	32772	
56	0	32800	
57	0	32906	
58	0	32708	
59	0	32406	
60	0	32542	
61	0	32664	
62	0	32552	
63	0	32925	
64	0	32828	
65	0	32734	
66	0	32792	
67	0	32626	
68	0	32584	
69	0	32900	
70	0	32749	
71	0	32510	
72	0	32580	
73	0	32918	
74	0	32680	
75	0	32660	
76	0	32678	
77	0	32536	
78	0	32696	
79	0	32784	
80	0	32747	
81	0	32726	
82	0	32796	
83	0	32729	
84	0	32740	
85	0	32818	
86	0	32641	
87	0	32676	
88	0	32808	
89	0	32785	
90	0	32800	
91	0	33108	
92	0	32964	
93	0	32842	
94	0	33020	
95	0	32729	
96	0	32611	
97	0	32664	
98	0	32720	
99	0	32730	
100	0	32852	
101	0	32838	
102	0	32696	
103	0	32784	
104	0	32717	
105	0	32280	
106	0	32620	
107	0	32622	
108	0	32648	
109	0	32838	
110	0	32764	
111	0	32648	
112	0	32688	
113	0	32700	
114	0	32640	
115	0	32888	
116	0	33050	
117	0	32904	
118	0	32836	
119	0	33028	
120	0	32891	
121	0	33068	
122	0	33083	
123	0	32834	
124	0	32840	
125	0	32712	
126	0	32556	
127	0	32528	
128	0	32496	
129	0	32384	
130	0	32544	
131	0	32706	
132	0	32584	
133	0	32580	
134	0	32518	
135	0	32390	
136	0	32384	
137	0	32596	
138	0	32602	
139	0	32584	
140	0	32822	
141	0	32864	
142	0	32912	
143	0	33072	
144	0	33068	
145	0	32965	
146	0	33016	
147	0	32848	
148	0	32793	
149	0	32996	
150	0	32874	
151	0	32864	
152	0	32879	
153	0	32628	
154	0	32536	
155	0	32784	
156	0	32736	
157	0	32216	
158	0	32608	
159	0	32736	
160	0	32678	
161	0	32668	
162	0	32724	
163	0	32754	
164	0	32744	
165	0	32544	
166	0	32580	
167	0	32826	
168	0	32860	
169	0	32656	
170	0	32792	
171	0	33010	
172	0	32736	
173	0	32632	
174	0	32722	
175	0	32528	
176	0	32537	
177	0	32820	
178	0	32994	
179	0	33002	
180	0	33154	
181	0	32840	
182	0	32700	
183	0	32806	
184	0	32776	
185	0	32690	
186	0	32752	
187	0	32572	
188	0	32644	
189	0	32980	
190	0	32904	
191	0	32696	
192	0	32552	
193	0	32531	
194	0	32456	
195	0	32361	
196	0	32320	
197	0	32440	
198	0	32817	
199	0	32940	
200	0	32665	
201	0	32840	
202	0	32864	
203	0	32648	
204	0	32833	
205	0	32904	
206	0	32738	
207	0	32876	
208	0	33200	
209	0	33240	
210	0	33204	
211	0	32870	
212	0	32611	
213	0	32932	
214	0	32974	
215	0	32624	
216	0	32436	
217	0	32478	
218	0	32408	
219	0	32546	
220	0	32929	
221	0	32629	
222	0	32302	
223	0	32404	
224	0	32435	
225	0	32498	
226	0	32664	
227	0	32614	
228	0	32602	
229	0	32829	
230	0	32816	
231	0	32913	
232	0	33088	
233	0	32772	
234	0	32624	
235	0	32976	
236	0	32637	
237	0	32644	
238	0	32884	
239	0	32996	
240	0	32916	
241	0	33228	
242	0	33122	
243	0	33140	
244	0	32988	
245	0	32396	
246	0	32332	
247	0	32516	
248	0	32588	
249	0	32378	
250	0	32740	
251	0	32994	
252	0	32604	
253	0	32448	
254	0	32793	
255	0	32428	
256	0	32396	
257	0	32457	
258	0	32646	
259	0	32832	
260	0	32813	
261	0	32948	
262	0	32912	
263	0	33186	
264	0	32743	
265	0	32630	
266	0	32652	
267	0	32848	
268	0	33032	
269	0	32932	
270	0	32677	
271	0	32618	
272	0	33312	
273	0	33338	
274	0	32808	
275	0	32614	
276	0	32576	
277	0	32571	
278	0	32330	
279	0	32682	
280	0	33080	
281	0	33010	
282	0	32868	
283	0	32444	
284	0	32346	
285	0	32253	
286	0	32280	
287	0	32584	
288	0	32232	
289	0	32489	
290	0	32626	
291	0	32760	
292	0	32802	
293	0	33180	
294	0	33329	
295	0	32825	
296	0	32456	
297	0	32732	
298	0	32832	
299	0	33118	
300	0	33128	
301	0	33120	
302	0	32968	
303	0	32888	
304	0	32680	
305	0	32488	
306	0	32584	
307	0	32612	
308	0	32628	
309	0	32570	
310	0	32505	
311	0	32576	
312	0	32738	
313	0	32930	
314	0	32720	
315	0	32594	
316	0	32331	
317	0	32232	
318	0	32553	
319	0	32828	
320	0	33033	
321	0	33010	
322	0	33028	
323	0	32868	
324	0	32928	
325	0	32709	
326	0	32352	
327	0	32618	
328	0	32698	
329	0	32736	
330	0	32894	
331	0	33090	
332	0	32848	
333	0	32812	
334	0	32872	
335	0	32832	
336	0	33106	
337	0	33066	
338	0	32722	
339	0	32888	
340	0	32918	
341	0	32996	
342	0	32848	
343	0	32722	
344	0	32502	
345	0	32309	
346	0	32476	
347	0	32380	
348	0	32544	
349	0	32505	
350	0	32556	
351	0	32716	
352	0	32922	
353	0	32784	
354	0	32646	
355	0	32670	
356	0	32680	
357	0	32546	
358	0	32720	
359	0	32925	
360	0	33108	
361	0	33072	
362	0	32876	
363	0	32904	
364	0	33108	
365	0	32960	
366	0	32504	
367	0	32592	
368	0	32602	
369	0	32448	
370	0	32852	
371	0	32886	
372	0	33014	
373	0	32818	
374	0	32616	
375	0	32472	
376	0	32478	
377	0	32468	
378	0	32420	
379	0	32545	
380	0	32660	
381	0	32716	
382	0	32900	
383	0	32852	
384	0	32560	
385	0	32500	
386	0	32720	
387	0	32784	
388	0	32696	
389	0	32860	
390	0	33032	
391	0	32962	
392	0	33264	
393	0	32922	
394	0	32840	
395	0	33144	
396	0	32681	
397	0	32478	
398	0	32598	
399	0	32514	
400	0	32804	
401	0	32960	
402	0	32832	
403	0	32650	
404	0	32488	
405	0	32472	
406	0	32598	
407	0	32730	
408	0	32688	
409	0	32597	
410	0	32788	
411	0	32868	
412	0	32906	
413	0	33058	
414	0	32939	
415	0	32688	
416	0	32880	
417	0	32900	
418	0	32802	
419	0	32876	
420	0	32833	
421	0	32954	
422	0	33148	
423	0	32775	
424	0	32536	
425	0	32464	
426	0	32496	
427	0	32586	
428	0	32573	
429	0	32544	
430	0	32387	
431	0	32614	
432	0	32578	
433	0	32396	
434	0	32323	
435	0	32544	
436	0	32706	
437	0	32764	
438	0	32828	
439	0	32696	
440	0	32812	
441	0	33224	
442	0	33058	
443	0	32912	
444	0	32738	
445	0	32690	
446	0	32789	
447	0	33028	
448	0	32696	
449	0	32624	
450	0	32891	
451	0	32728	
452	0	32712	
453	0	32808	
454	0	32872	
455	0	32544	
456	0	32640	
457	0	32810	
458	0	32640	
459	0	32736	
460	0	32736	
461	0	32808	
462	0	33008	
463	0	32797	
464	0	32458	
465	0	32454	
466	0	32419	
467	0	32188	
468	0	32545	
469	0	32854	
470	0	33008	
471	0	32868	
472	0	32842	
473	0	32752	
474	0	32548	
475	0	32692	
476	0	32788	
477	0	32992	
478	0	33024	
479	0	32840	
480	0	32866	
481	0	33200	
482	0	32964	
483	0	33060	
484	0	32865	
485	0	32776	
486	0	32648	
487	0	32582	
488	0	32552	
489	0	32676	
490	0	32620	
491	0	32668	
492	0	32572	
493	0	32616	
494	0	32494	
495	0	32414	
496	0	32628	
497	0	32618	
498	0	32487	
499	0	32876	
500	0	32978	
501	0	32872	
502	0	32877	
503	0	32824	
504	0	32804	
505	0	33006	
506	0	32856	
507	0	32720	
508	0	32817	
509	0	33026	
510	0	32674	
511	0	32960	
512	0	32931	
513	0	32630	
514	0	32602	
515	0	32699	
516	0	32456	
517	0	32600	
518	0	32634	
519	0	32557	
520	0	32680	
521	0	32636	
522	0	32580	
523	0	32704	
524	0	32764	
525	0	32605	
526	0	32576	
527	0	32837	
528	0	32624	
529	0	32728	
530	0	33200	
531	0	32956	
532	0	32724	
533	0	32856	
534	0	32896	
535	0	32812	
536	0	32894	
537	0	32920	
538	0	32720	
539	0	32936	
540	0	32748	
541	0	32680	
542	0	32784	
543	0	32660	
544	0	32496	
545	0	32530	
546	0	32452	
547	0	32396	
548	0	32272	
549	0	32560	
550	0	32699	
551	0	32900	
552	0	32904	
553	0	32740	
554	0	32848	
555	0	32804	
556	0	32748	
557	0	33024	
558	0	33274	
559	0	33146	
560	0	33016	
561	0	33065	
562	0	32928	
563	0	32860	
564	0	32974	
565	0	32774	
566	0	32704	
567	0	32548	
568	0	32543	
569	0	32652	
570	0	32790	
571	0	32604	
572	0	32504	
573	0	32468	
574	0	32464	
575	0	32349	
576	0	32414	
577	0	32454	
578	0	32453	
579	0	32870	
580	0	33001	
581	0	32992	
582	0	33053	
583	0	32828	
584	0	32820	
585	0	32952	
586	0	32878	
587	0	32778	
588	0	32852	
589	0	32892	
590	0	32966	
591	0	33012	
592	0	32924	
593	0	32836	
594	0	32704	
595	0	32302	
596	0	32268	
597	0	32648	
598	0	32666	
599	0	32548	
600	0	32560	
601	0	32736	
602	0	32410	
603	0	32552	
604	0	32584	
605	0	32430	
606	0	32552	
607	0	32623	
608	0	32708	
609	0	32916	
610	0	33053	
611	0	33174	
612	0	33164	
613	0	32977	
614	0	32640	
615	0	32480	
616	0	32620	
617	0	32672	
618	0	32736	
619	0	32908	
620	0	32874	
621	0	32784	
622	0	33060	
623	0	32910	
624	0	32672	
625	0	32612	
626	0	32504	
627	0	32536	
628	0	32704	
629	0	32622	
630	0	32528	
631	0	32740	
632	0	32971	
633	0	32792	
634	0	32668	
635	0	32540	
636	0	32480	
637	0	32760	
638	0	32866	
639	0	32722	
640	0	33148	
641	0	33164	
642	0	32932	
643	0	32878	
644	0	32905	
645	0	32800	
646	0	32782	
647	0	32762	
648	0	32646	
649	0	32596	
650	0	32704	
651	0	32684	
652	0	32845	
653	0	32796	
654	0	32526	
655	0	32293	
656	0	32512	
657	0	32592	
658	0	32472	
659	0	32658	
660	0	32698	
661	0	32908	
662	0	33120	
663	0	32897	
664	0	32722	
665	0	32868	
666	0	32810	
667	0	32820	
668	0	32770	
669	0	32730	
670	0	32688	
671	0	32688	
672	0	32868	
673	0	32744	
674	0	32704	
675	0	32560	
676	0	32280	
677	0	32448	
678	0	32476	
679	0	32438	
680	0	32744	
681	0	33085	
682	0	33020	
683	0	32970	
684	0	32972	
685	0	32850	
686	0	33122	
687	0	32999	
688	0	32744	
689	0	32796	
690	0	32964	
691	0	32798	
692	0	32792	
693	0	32814	
694	0	32697	
695	0	32590	
696	0	32572	
697	0	32480	
698	0	32444	
699	0	32685	
700	0	32688	
701	0	32672	
702	0	32912	
703	0	32763	
704	0	32544	
705	0	32669	
706	0	32612	
707	0	32640	
708	0	32888	
709	0	32852	
710	0	32822	
711	0	33072	
712	0	32775	
713	0	32595	
714	0	32802	
715	0	32973	
716	0	32924	
717	0	32960	
718	0	32792	
719	0	32737	
720	0	32738	
721	0	32936	
722	0	32857	
723	0	32884	
724	0	32784	
725	0	32476	
726	0	32660	
727	0	32580	
728	0	32386	
729	0	32386	
730	0	32402	
731	0	32396	
732	0	32656	
733	0	32836	
734	0	32736	
735	0	32676	
736	0	32648	
737	0	32502	
738	0	32504	
739	0	32866	
740	0	33138	
741	0	33016	
742	0	33180	
743	0	33066	
744	0	33146	
745	0	33032	
746	0	32800	
747	0	32666	
748	0	32884	
749	0	32812	
750	0	32738	
751	0	32904	
752	0	32725	
753	0	32704	
754	0	32650	
755	0	32368	
756	0	32258	
757	0	32280	
758	0	32240	
759	0	32158	
760	0	32622	
761	0	32760	
762	0	32676	
763	0	32744	
764	0	32755	
765	0	32698	
766	0	32674	
767	0	32840	
768	0	32864	
769	0	33144	
770	0	33368	
771	0	33110	
772	0	33260	
773	0	33034	
774	0	32844	
775	0	33055	
776	0	32744	
777	0	32648	
778	0	32731	
779	0	32736	
780	0	32736	
781	0	32722	
782	0	32888	
783	0	32732	
784	0	32532	
785	0	32366	
786	0	32284	
787	0	32292	
788	0	32345	
789	0	32384	
790	0	32409	
791	0	32680	
792	0	32712	
793	0	32720	
794	0	32696	
795	0	32744	
796	0	32650	
797	0	32833	
798	0	33110	
799	0	32876	
800	0	33194	
801	0	33408	
802	0	33280	
803	0	33536	
804	0	33112	
805	0	32784	
806	0	32648	
807	0	32756	
808	0	32688	
809	0	32650	
810	0	32602	
811	0	32500	
812	0	32365	
813	0	32536	
814	0	32040	
815	0	32152	
816	0	32300	
817	0	32281	
818	0	32480	
819	0	32474	
820	0	32566	
821	0	32985	
822	0	33006	
823	0	32816	
824	0	32828	
825	0	33072	
826	0	32976	
827	0	33188	
828	0	33154	
829	0	33150	
830	0	33037	
831	0	33106	
832	0	33195	
833	0	33048	
834	0	32804	
835	0	32525	
836	0	32426	
837	0	32678	
838	0	32494	
839	0	32340	
840	0	32335	
841	0	32440	
842	0	32552	
843	0	32712	
844	0	32558	
845	0	32208	
846	0	32430	
847	0	32541	
848	0	32568	
849	0	32672	
850	0	32768	
851	0	32964	
852	0	33054	
853	0	32944	
854	0	32824	
855	0	32978	
856	0	33038	
857	0	33065	
858	0	32948	
859	0	32976	
860	0	32944	
861	0	32968	
862	0	33248	
863	0	32768	
864	0	32552	
865	0	32604	
866	0	32398	
867	0	32717	
868	0	32720	
869	0	32461	
870	0	32413	
871	0	32556	
872	0	32660	
873	0	32384	
874	0	32700	
875	0	32682	
876	0	32452	
877	0	32744	
878	0	32850	
879	0	32968	
880	0	32789	
881	0	32760	
882	0	32660	
883	0	32996	
884	0	32958	
885	0	32726	
886	0	32770	
887	0	32952	
888	0	32828	
889	0	32952	
890	0	32927	
891	0	33016	
892	0	32866	
893	0	32736	
894	0	32642	
895	0	32676	
896	0	32562	
897	0	32376	
898	0	32634	
899	0	32816	
900	0	32548	
901	0	32536	
902	0	32768	
903	0	32662	
904	0	32668	
905	0	32808	
906	0	32684	
907	0	32637	
908	0	32673	
909	0	32902	
910	0	32764	
911	0	32817	
912	0	32644	
913	0	32814	
914	0	32918	
915	0	32676	
916	0	32644	
917	0	32664	
918	0	32768	
919	0	32892	
920	0	33253	
921	0	32944	
922	0	32602	
923	0	32672	
924	0	32802	
925	0	32662	
926	0	32777	
927	0	32672	
928	0	32397	
929	0	32928	
930	0	32830	
931	0	32656	
932	0	32720	
933	0	32460	
934	0	32600	
935	0	32672	
936	0	32612	
937	0	32438	
938	0	32706	
939	0	32976	
940	0	32754	
941	0	32978	
942	0	32860	
943	0	32800	
944	0	32872	
945	0	32922	
946	0	32734	
947	0	32680	
948	0	32779	
949	0	32754	
950	0	32904	
951	0	33056	
952	0	32852	
953	0	32802	
954	0	32730	
955	0	32651	
956	0	32592	
957	0	32648	
958	0	32617	
959	0	32696	
960	0	33036	
961	0	32789	
962	0	32728	
963	0	32680	
964	0	32407	
965	0	32493	
966	0	32596	
967	0	32642	
968	0	32562	
969	0	32592	
970	0	32776	
971	0	32820	
972	0	32880	
973	0	32744	
974	0	32626	
975	0	32790	
976	0	32824	
977	0	32814	
978	0	33008	
979	0	33244	
980	0	32778	
981	0	32918	
982	0	33071	
983	0	32952	
984	0	32891	
985	0	32834	
986	0	32792	
987	0	32452	
988	0	32580	
989	0	32596	
990	0	32540	
991	0	32426	
992	0	32399	
993	0	32416	
994	0	32267	
995	0	32411	
996	0	32362	
997	0	32452	
998	0	32498	
999	0	32640	
1000	0	32690	
1001	0	32897	
1002	0	33128	
1003	0	33202	
1004	0	33024	
1005	0	33050	
1006	0	33006	
1007	0	33154	
1008	0	32968	
1009	0	33188	
1010	0	33023	
1011	0	32912	
1012	0	33208	
1013	0	32928	
1014	0	32894	
1015	0	32716	
1016	0	32351	
1017	0	32320	
1018	0	32288	
1019	0	32444	
1020	0	32456	
1021	0	32650	
1022	0	32569	
1023	0	32641	
1024	0	32754	
1025	0	32558	
1026	0	32492	
1027	0	32680	
1028	0	32789	
1029	0	32568	
1030	0	32848	
1031	0	33163	
1032	0	33092	
1033	0	32908	
1034	0	32714	
1035	0	32740	
1036	0	32788	
1037	0	32860	
1038	0	32808	
1039	0	32752	
1040	0	32884	
1041	0	32888	
1042	0	32852	
1043	0	32833	
1044	0	32648	
1045	0	32626	
1046	0	32632	
1047	0	32601	
1048	0	32726	
1049	0	32840	
1050	0	32626	
1051	0	32566	
1052	0	32812	
1053	0	32714	
1054	0	32508	
1055	0	32512	
1056	0	32496	
1057	0	32466	
1058	0	32680	
1059	0	32920	
1060	0	32760	
1061	0	33044	
1062	0	32921	
1063	0	32637	
1064	0	32628	
1065	0	32918	
1066	0	32948	
1067	0	32954	
1068	0	32900	
1069	0	32866	
1070	0	32879	
1071	0	33008	
1072	0	32864	
1073	0	32816	
1074	0	32732	
1075	0	32509	
1076	0	32416	
1077	0	32680	
1078	0	32644	
1079	0	32600	
1080	0	32730	
1081	0	32680	
1082	0	32537	
1083	0	32568	
1084	0	32432	
1085	0	32356	
1086	0	32448	
1087	0	32572	
1088	0	32546	
1089	0	32762	
1090	0	32768	
1091	0	32692	
1092	0	32912	
1093	0	33014	
1094	0	32946	
1095	0	33050	
1096	0	33088	
1097	0	32808	
1098	0	32970	
1099	0	33040	
1100	0	32868	
1101	0	33211	
1102	0	33237	
1103	0	32992	
1104	0	32994	
1105	0	32888	
1106	0	32536	
1107	0	32566	
1108	0	32686	
1109	0	32444	
1110	0	32472	
1111	0	32638	
1112	0	32488	
1113	0	32622	
1114	0	32549	
1115	0	32230	
1116	0	32456	
1117	0	32540	
1118	0	32268	
1119	0	32453	
1120	0	32762	
1121	0	32828	
1122	0	32992	
1123	0	32948	
1124	0	33060	
1125	0	32956	
1126	0	32864	
1127	0	32730	
1128	0	32716	
1129	0	33057	
1130	0	32870	
1131	0	32876	
1132	0	33026	
1133	0	32930	
1134	0	32893	
1135	0	32892	
1136	0	32466	
1137	0	32272	
1138	0	32552	
1139	0	32632	
1140	0	32634	
1141	0	32904	
1142	0	32893	
1143	0	32828	
1144	0	32612	
1145	0	32448	
1146	0	32266	
1147	0	32496	
1148	0	32428	
1149	0	32369	
1150	0	32692	
1151	0	32736	
1152	0	32662	
1153	0	32840	
1154	0	32966	
1155	0	32890	
1156	0	32671	
1157	0	32893	
1158	0	32960	
1159	0	32969	
1160	0	33160	
1161	0	33232	
1162	0	33410	
1163	0	33208	
1164	0	32841	
1165	0	32494	
1166	0	32560	
1167	0	32544	
1168	0	32352	
1169	0	32601	
1170	0	32576	
1171	0	32610	
1172	0	32680	
1173	0	32522	
1174	0	32616	
1175	0	32566	
1176	0	32624	
1177	0	32527	
1178	0	32832	
1179	0	32686	
1180	0	32662	
1181	0	33156	
1182	0	33076	
1183	0	32998	
1184	0	32760	
1185	0	32542	
1186	0	32536	
1187	0	32628	
1188	0	32724	
1189	0	32672	
1190	0	32820	
1191	0	32988	
1192	0	32889	
1193	0	32851	
1194	0	32912	
1195	0	32728	
1196	0	32672	
1197	0	32664	
1198	0	32500	
1199	0	32720	
1200	0	33066	
1201	0	32654	
1202	0	32748	
1203	0	32746	
1204	0	32601	
1205	0	32560	
1206	0	32353	
1207	0	32626	
1208	0	32709	
1209	0	32940	
1210	0	32823	
1211	0	32744	
1212	0	33062	
1213	0	32792	
1214	0	32740	
1215	0	32962	
1216	0	33024	
1217	0	32858	
1218	0	32954	
1219	0	33056	
1220	0	32600	
1221	0	32944	
1222	0	32848	
1223	0	32804	
1224	0	32868	
1225	0	32556	
1226	0	32322	
1227	0	32214	
1228	0	32494	
1229	0	32344	
1230	0	32636	
1231	0	32912	
1232	0	32712	
1233	0	32576	
1234	0	32690	
1235	0	32804	
1236	0	32610	
1237	0	32850	
1238	0	33011	
1239	0	33016	
1240	0	32960	
1241	0	32808	
1242	0	33144	
1243	0	33096	
1244	0	32805	
1245	0	32696	
1246	0	32608	
1247	0	32608	
1248	0	32616	
1249	0	32764	
1250	0	32758	
1251	0	32777	
1252	0	32833	
1253	0	32740	
1254	0	32552	
1255	0	32452	
1256	0	32504	
1257	0	32564	
1258	0	32775	
1259	0	32828	
1260	0	32792	
1261	0	32928	
1262	0	32936	
1263	0	32744	
1264	0	32600	
1265	0	32566	
1266	0	32336	
1267	0	32345	
1268	0	32526	
1269	0	32600	
1270	0	32896	
1271	0	33042	
1272	0	32890	
1273	0	33160	
1274	0	32938	
1275	0	32804	
1276	0	33170	
1277	0	33085	
1278	0	32699	
1279	0	32660	
1280	0	32796	
1281	0	32884	
1282	0	32864	
1283	0	32608	
1284	0	32426	
1285	0	32690	
1286	0	32658	
1287	0	32327	
1288	0	32338	
1289	0	32708	
1290	0	32642	
1291	0	32708	
1292	0	32882	
1293	0	32851	
1294	0	32673	
1295	0	32666	
1296	0	32616	
1297	0	32664	
1298	0	32901	
1299	0	32866	
1300	0	32892	
1301	0	32820	
1302	0	32692	
1303	0	32780	
1304	0	33024	
1305	0	32640	
1306	0	32468	
1307	0	32760	
1308	0	32600	
1309	0	32424	
1310	0	32730	
1311	0	32944	
1312	0	32700	
1313	0	32684	
1314	0	32662	
1315	0	32770	
1316	0	32933	
1317	0	32784	
1318	0	32854	
1319	0	32966	
1320	0	32736	
1321	0	32560	
1322	0	32840	
1323	0	32804	
1324	0	32514	
1325	0	32516	
1326	0	32592	
1327	0	32400	
1328	0	32370	
1329	0	32642	
1330	0	32656	
1331	0	32765	
1332	0	32936	
1333	0	33016	
1334	0	32972	
1335	0	33016	
1336	0	32864	
1337	0	32872	
1338	0	33104	
1339	0	32954	
1340	0	32948	
1341	0	33042	
1342	0	32862	
1343	0	32836	
1344	0	32756	
1345	0	32600	
1346	0	32526	
1347	0	32484	
1348	0	32566	
1349	0	32306	
1350	0	32620	
1351	0	32828	
1352	0	32804	
1353	0	32764	
1354	0	32692	
1355	0	32552	
1356	0	32580	
1357	0	32614	
1358	0	32752	
1359	0	32706	
1360	0	32649	
1361	0	32580	
1362	0	32765	
1363	0	33024	
1364	0	32946	
1365	0	32707	
1366	0	32896	
1367	0	32746	
1368	0	33056	
1369	0	33144	
1370	0	33020	
1371	0	33213	
1372	0	33144	
1373	0	32924	
1374	0	32656	
1375	0	32660	
1376	0	32624	
1377	0	32488	
1378	0	32189	
1379	0	32304	
1380	0	32508	
1381	0	32608	
1382	0	32000	
1383	0	32298	
1384	0	32736	
1385	0	32532	
1386	0	32300	
1387	0	32562	
1388	0	32774	
1389	0	32792	
1390	0	32832	
1391	0	33028	
1392	0	33500	
1393	0	33640	
1394	0	33061	
1395	0	32649	
1396	0	33148	
1397	0	33106	
1398	0	32938	
1399	0	32833	
1400	0	32880	
1401	0	33032	
1402	0	32928	
1403	0	32580	
1404	0	32165	
1405	0	32493	
1406	0	32612	
1407	0	31944	
1408	0	31662	
1409	0	32012	
1410	0	32570	
1411	0	33114	
1412	0	33338	
1413	0	33188	
1414	0	33152	
1415	0	32778	
1416	0	32244	
1417	0	32052	
1418	0	32624	
1419	0	32978	
1420	0	32893	
1421	0	32968	
1422	0	32926	
1423	0	33136	
1424	0	32976	
1425	0	32534	
1426	0	32425	
1427	0	32980	
1428	0	33213	
1429	0	32975	
1430	0	32926	
1431	0	32908	
1432	0	32858	
1433	0	32939	
1434	0	32570	
1435	0	32324	
1436	0	32277	
1437	0	32244	
1438	0	32352	
1439	0	32496	
1440	0	32665	
1441	0	32765	
1442	0	32858	
1443	0	32684	
1444	0	32488	
1445	0	32812	
1446	0	33072	
1447	0	32817	
1448	0	32764	
1449	0	32989	
1450	0	33170	
1451	0	33332	
1452	0	33162	
1453	0	32886	
1454	0	32856	
1455	0	33138	
1456	0	32732	
1457	0	32608	
1458	0	32548	
1459	0	32476	
1460	0	32624	
1461	0	32532	
1462	0	32248	
1463	0	32482	
1464	0	32854	
1465	0	32644	
1466	0	32292	
1467	0	32430	
1468	0	32613	
1469	0	32703	
1470	0	32745	
1471	0	32500	
1472	0	32846	
1473	0	33316	
1474	0	33073	
1475	0	32672	
1476	0	32734	
1477	0	32936	
1478	0	32848	
1479	0	32646	
1480	0	32754	
1481	0	32984	
1482	0	33274	
1483	0	32968	
1484	0	32728	
1485	0	32756	
1486	0	32928	
1487	0	32754	
1488	0	32440	
1489	0	32424	
1490	0	32520	
1491	0	32844	
1492	0	32809	
1493	0	32412	
1494	0	32464	
1495	0	32778	
1496	0	32730	
1497	0	32356	
1498	0	32092	
1499	0	32452	
1500	0	32752	
1501	0	32926	
1502	0	32836	
1503	0	33060	
1504	0	33304	
1505	0	33137	
1506	0	32728	
1507	0	32560	
1508	0	32816	
1509	0	32904	
1510	0	32921	
1511	0	32774	
1512	0	32789	
1513	0	32888	
1514	0	32728	
1515	0	32624	
1516	0	32518	
1517	0	32338	
1518	0	32466	
1519	0	32628	
1520	0	32592	
1521	0	32654	
1522	0	33016	
1523	0	32880	
1524	0	32562	
1525	0	32548	
1526	0	32689	
1527	0	32808	
1528	0	32880	
1529	0	32581	
1530	0	32484	
1531	0	33072	
1532	0	33196	
1533	0	32914	
1534	0	32760	
1535	0	32768	
1536	0	32848	
1537	0	32780	
1538	0	32492	
1539	0	32552	
1540	0	32864	
1541	0	32824	
1542	0	32698	
1543	0	32516	
1544	0	32678	
1545	0	32792	
1546	0	32814	
1547	0	32672	
1548	0	32656	
1549	0	32920	
1550	0	33013	
1551	0	32746	
1552	0	32480	
1553	0	32800	
1554	0	32928	
1555	0	32826	
1556	0	32701	
1557	0	32777	
1558	0	32728	
1559	0	32768	
1560	0	32632	
1561	0	32596	
1562	0	32750	
1563	0	32798	
1564	0	32644	
1565	0	32548	
1566	0	32644	
1567	0	32797	
1568	0	32933	
1569	0	32797	
1570	0	32388	
1571	0	32992	
1572	0	33088	
1573	0	32952	
1574	0	32817	
1575	0	32828	
1576	0	32858	
1577	0	32699	
1578	0	32581	
1579	0	32378	
1580	0	32726	
1581	0	32764	
1582	0	32602	
1583	0	32664	
1584	0	32874	
1585	0	32917	
1586	0	32817	
1587	0	32652	
1588	0	32476	
1589	0	32667	
1590	0	33063	
1591	0	32851	
1592	0	32850	
1593	0	32892	
1594	0	32868	
1595	0	32870	
1596	0	32576	
1597	0	32227	
1598	0	32457	
1599	0	32714	
1600	0	32536	
1601	0	32596	
1602	0	33016	
1603	0	33056	
1604	0	32916	
1605	0	32762	
1606	0	32628	
1607	0	32692	
1608	0	32884	
1609	0	32824	
1610	0	32532	
1611	0	32708	
1612	0	32836	
1613	0	32770	
1614	0	32862	
1615	0	32626	
1616	0	32412	
1617	0	32756	
1618	0	32700	
1619	0	32326	
1620	0	32695	
1621	0	33014	
1622	0	32816	
1623	0	32793	
1624	0	32708	
1625	0	32808	
1626	0	32750	
1627	0	32716	
1628	0	32696	
1629	0	32952	
1630	0	33390	
1631	0	33010	
1632	0	32829	
1633	0	32775	
1634	0	32656	
1635	0	32692	
1636	0	32768	
1637	0	32600	
1638	0	32608	
1639	0	32634	
1640	0	32704	
1641	0	32296	
1642	0	32484	
1643	0	32624	
1644	0	32636	
1645	0	32708	
1646	0	32464	
1647	0	32542	
1648	0	32748	
1649	0	32938	
1650	0	32784	
1651	0	32895	
1652	0	32884	
1653	0	33124	
1654	0	33186	
1655	0	32901	
1656	0	32844	
1657	0	32896	
1658	0	32813	
1659	0	32888	
1660	0	32859	
1661	0	32866	
1662	0	32812	
1663	0	32860	
1664	0	32637	
1665	0	32348	
1666	0	32524	
1667	0	32612	
1668	0	32509	
1669	0	32480	
1670	0	32688	
1671	0	32616	
1672	0	32521	
1673	0	32672	
1674	0	32363	
1675	0	32512	
1676	0	32710	
1677	0	32646	
1678	0	32852	
1679	0	33148	
1680	0	32984	
1681	0	33072	
1682	0	33232	
1683	0	33156	
1684	0	33097	
1685	0	33080	
1686	0	32680	
1687	0	32450	
1688	0	32640	
1689	0	32612	
1690	0	32650	
1691	0	32862	
1692	0	32680	
1693	0	32590	
1694	0	32708	
1695	0	32672	
1696	0	32413	
1697	0	32450	
1698	0	32596	
1699	0	32562	
1700	0	32594	
1701	0	32668	
1702	0	32644	
1703	0	32770	
1704	0	32898	
1705	0	32684	
1706	0	32680	
1707	0	32836	
1708	0	32553	
1709	0	32486	
1710	0	32720	
1711	0	33004	
1712	0	33162	
1713	0	33188	
1714	0	33166	
1715	0	33016	
1716	0	32864	
1717	0	32804	
1718	0	32704	
1719	0	32808	
1720	0	32876	
1721	0	32666	
1722	0	32592	
1723	0	32505	
1724	0	32545	
1725	0	32564	
1726	0	32354	
1727	0	32277	
1728	0	32522	
1729	0	32596	
1730	0	32718	
1731	0	32800	
1732	0	32820	
1733	0	32998	
1734	0	33018	
1735	0	32928	
1736	0	32651	
1737	0	32800	
1738	0	33026	
1739	0	32914	
1740	0	32941	
1741	0	32896	
1742	0	32840	
1743	0	32851	
1744	0	32734	
1745	0	32426	
1746	0	32648	
1747	0	32736	
1748	0	32680	
1749	0	32790	
1750	0	32992	
1751	0	32888	
1752	0	32904	
1753	0	32705	
1754	0	32432	
1755	0	32489	
1756	0	32697	
1757	0	32548	
1758	0	32504	
1759	0	32752	
1760	0	32806	
1761	0	32718	
1762	0	32824	
1763	0	32732	
1764	0	32780	
1765	0	32900	
1766	0	32612	
1767	0	32550	
1768	0	32813	
1769	0	32636	
1770	0	32689	
1771	0	33216	
1772	0	33028	
1773	0	32872	
1774	0	32930	
1775	0	32736	
1776	0	32420	
1777	0	32632	
1778	0	32642	
1779	0	32614	
1780	0	32950	
1781	0	32859	
1782	0	32626	
1783	0	32696	
1784	0	32857	
1785	0	32588	
1786	0	32562	
1787	0	32300	
1788	0	32626	
1789	0	32808	
1790	0	32730	
1791	0	32674	
1792	0	33038	
1793	0	33153	
1794	0	32808	
1795	0	32786	
1796	0	32876	
1797	0	32236	
1798	0	32328	
1799	0	32489	
1800	0	32730	
1801	0	32888	
1802	0	32802	
1803	0	32664	
1804	0	32644	
1805	0	33140	
1806	0	32670	
1807	0	32366	
1808	0	32644	
1809	0	32794	
1810	0	32752	
1811	0	32874	
1812	0	33008	
1813	0	33132	
1814	0	33120	
1815	0	33008	
1816	0	32740	
1817	0	32696	
1818	0	32696	
1819	0	32592	
1820	0	32983	
1821	0	32800	
1822	0	32722	
1823	0	32728	
1824	0	32788	
1825	0	32544	
1826	0	32392	
1827	0	32602	
1828	0	32562	
1829	0	32628	
1830	0	32736	
1831	0	32836	
1832	0	33178	
1833	0	32968	
1834	0	32714	
1835	0	32820	
1836	0	32716	
1837	0	32422	
1838	0	32508	
1839	0	32569	
1840	0	32712	
1841	0	32888	
1842	0	32940	
1843	0	32992	
1844	0	32778	
1845	0	32968	
1846	0	32786	
1847	0	32748	
1848	0	32852	
1849	0	32658	
1850	0	32738	
1851	0	33008	
1852	0	32916	
1853	0	32578	
1854	0	32545	
1855	0	32665	
1856	0	32360	
1857	0	32444	
1858	0	32416	
1859	0	32464	
1860	0	32760	
1861	0	32840	
1862	0	32734	
1863	0	32624	
1864	0	32730	
1865	0	32692	
1866	0	32860	
1867	0	32896	
1868	0	32618	
1869	0	32768	
1870	0	32915	
1871	0	32778	
1872	0	32984	
1873	0	32788	
1874	0	32844	
1875	0	32800	
1876	0	32752	
1877	0	32666	
1878	0	32608	
1879	0	32640	
1880	0	32516	
1881	0	32696	
1882	0	32976	
1883	0	32764	
1884	0	32718	
1885	0	32768	
1886	0	32644	
1887	0	32504	
1888	0	32680	
1889	0	32744	
1890	0	32768	
1891	0	32916	
1892	0	32816	
1893	0	32850	
1894	0	32955	
1895	0	32795	
1896	0	32748	
1897	0	32832	
1898	0	32764	
1899	0	32610	
1900	0	32874	
1901	0	32752	
1902	0	32732	
1903	0	32672	
1904	0	32680	
1905	0	32784	
1906	0	32728	
1907	0	32692	
1908	0	32596	
1909	0	32808	
1910	0	32768	
1911	0	32424	
1912	0	32676	
1913	0	32808	
1914	0	32782	
1915	0	32724	
1916	0	32768	
1917	0	32828	
1918	0	32841	
1919	0	32878	
1920	0	32698	
1921	0	32793	
1922	0	32859	
1923	0	32752	
1924	0	32834	
1925	0	32936	
1926	0	32738	
1927	0	32692	
1928	0	32972	
1929	0	32816	
1930	0	32688	
1931	0	32668	
1932	0	32575	
1933	0	32514	
1934	0	32530	
1935	0	32562	
1936	0	32544	
1937	0	32576	
1938	0	32706	
1939	0	32364	
1940	0	32662	
1941	0	33010	
1942	0	32840	
1943	0	32976	
1944	0	32704	
1945	0	32548	
1946	0	32654	
1947	0	32992	
1948	0	32930	
1949	0	32858	
1950	0	32963	
1951	0	32804	
1952	0	33080	
1953	0	32800	
1954	0	32698	
1955	0	32778	
1956	0	32534	
1957	0	32536	
1958	0	32476	
1959	0	32668	
1960	0	32540	
1961	0	32477	
1962	0	32852	
1963	0	32848	
1964	0	32733	
1965	0	32625	
1966	0	32590	
1967	0	32652	
1968	0	32684	
1969	0	32864	
1970	0	32800	
1971	0	33072	
1972	0	32852	
1973	0	32713	
1974	0	32968	
1975	0	32637	
1976	0	32748	
1977	0	32762	
1978	0	32904	
1979	0	32953	
1980	0	32900	
1981	0	32803	
1982	0	32816	
1983	0	33146	
1984	0	32676	
1985	0	32512	
1986	0	32509	
1987	0	32488	
1988	0	32632	
1989	0	32536	
1990	0	32948	
1991	0	32644	
1992	0	32762	
1993	0	32765	
1994	0	32560	
1995	0	32792	
1996	0	32762	
1997	0	32632	
1998	0	32668	
1999	0	32920	
2000	0	32812	
2001	0	32744	
2002	0	32866	
2003	0	32764	
2004	0	32960	
2005	0	32794	
2006	0	32440	
2007	0	32584	
2008	0	32894	
2009	0	32862	
2010	0	32804	
2011	0	33060	
2012	0	32813	
2013	0	32596	
2014	0	32868	
2015	0	32674	
2016	0	32712	
2017	0	32724	
2018	0	32638	
2019	0	32596	
2020	0	32686	
2021	0	32748	
2022	0	32564	
2023	0	32777	
2024	0	32806	
2025	0	32328	
2026	0	32414	
2027	0	32481	
2028	0	32596	
2029	0	32662	
2030	0	32650	
2031	0	32726	
2032	0	32736	
2033	0	33019	
2034	0	32652	
2035	0	32668	
2036	0	32776	
2037	0	32610	
2038	0	32980	
2039	0	32846	
2040	0	32772	
2041	0	33100	
2042	0	33053	
2043	0	33000	
2044	0	33069	
2045	0	32907	
2046	0	32768	
2047	0	32717	
2048	0	32573	
2049	0	32536	
2050	0	32704	
2051	0	32809	
2052	0	32712	
2053	0	32656	
2054	0	32784	
2055	0	32526	
2056	0	32432	
2057	0	32760	
2058	0	32801	
2059	0	32777	
2060	0	32976	
2061	0	32776	
2062	0	32770	
2063	0	33000	
2064	0	32812	
2065	0	32498	
2066	0	32451	
2067	0	32543	
2068	0	32650	
2069	0	32816	
2070	0	32764	
2071	0	32620	
2072	0	32832	
2073	0	33036	
2074	0	32696	
2075	0	32792	
2076	0	32848	
2077	0	32920	
2078	0	33020	
2079	0	32928	
2080	0	32990	
2081	0	32760	
2082	0	32798	
2083	0	32842	
2084	0	32688	
2085	0	32760	
2086	0	32566	
2087	0	32536	
2088	0	32537	
2089	0	32188	
2090	0	32394	
2091	0	32644	
2092	0	32872	
2093	0	32864	
2094	0	32820	
2095	0	32620	
2096	0	32416	
2097	0	32690	
2098	0	32684	
2099	0	32702	
2100	0	32978	
2101	0	32802	
2102	0	33076	
2103	0	33146	
2104	0	32836	
2105	0	32738	
2106	0	32704	
2107	0	32636	
2108	0	32468	
2109	0	32615	
2110	0	32792	
2111	0	32786	
2112	0	33072	
2113	0	32852	
2114	0	32775	
2115	0	32764	
2116	0	32616	
2117	0	32616	
2118	0	32680	
2119	0	32704	
2120	0	32505	
2121	0	32640	
2122	0	33060	
2123	0	32805	
2124	0	32698	
2125	0	32580	
2126	0	32417	
2127	0	32516	
2128	0	32720	
2129	0	32868	
2130	0	32797	
2131	0	32923	
2132	0	33238	
2133	0	33120	
2134	0	33245	
2135	0	32742	
2136	0	32688	
2137	0	32880	
2138	0	32700	
2139	0	32612	
2140	0	32924	
2141	0	32854	
2142	0	32625	
2143	0	32738	
2144	0	32728	
2145	0	32592	
2146	0	32652	
2147	0	32312	
2148	0	32388	
2149	0	32665	
2150	0	32848	
2151	0	32824	
2152	0	32954	
2153	0	32714	
2154	0	32608	
2155	0	32736	
2156	0	32686	
2157	0	32648	
2158	0	32760	
2159	0	32937	
2160	0	32852	
2161	0	33096	
2162	0	33008	
2163	0	32726	
2164	0	32760	
2165	0	32712	
2166	0	32586	
2167	0	32660	
2168	0	32648	
2169	0	32558	
2170	0	32498	
2171	0	32802	
2172	0	32916	
2173	0	32602	
2174	0	32720	
2175	0	32733	
2176	0	32554	
2177	0	32648	
2178	0	32450	
2179	0	32584	
2180	0	33036	
2181	0	32800	
2182	0	32726	
2183	0	32840	
2184	0	32892	
2185	0	32708	
2186	0	32772	
2187	0	33012	
2188	0	32752	
2189	0	32816	
2190	0	32668	
2191	0	32628	
2192	0	33090	
2193	0	32908	
2194	0	32553	
2195	0	32632	
2196	0	32630	
2197	0	32526	
2198	0	32728	
2199	0	32739	
2200	0	32516	
2201	0	32664	
2202	0	33094	
2203	0	32920	
2204	0	32914	
2205	0	32828	
2206	0	32612	
2207	0	32584	
2208	0	32714	
2209	0	32650	
2210	0	32872	
2211	0	32912	
2212	0	32633	
2213	0	32581	
2214	0	32992	
2215	0	32858	
2216	0	32574	
2217	0	32360	
2218	0	32400	
2219	0	32552	
2220	0	32920	
2221	0	32772	
2222	0	32713	
2223	0	32786	
2224	0	32664	
2225	0	32720	
2226	0	32960	
2227	0	32864	
2228	0	32714	
2229	0	32608	
2230	0	32537	
2231	0	32580	
2232	0	32878	
2233	0	32944	
2234	0	32806	
2235	0	32760	
2236	0	32694	
2237	0	32672	
2238	0	32762	
2239	0	32780	
2240	0	32792	
2241	0	32850	
2242	0	32864	
2243	0	32792	
2244	0	32800	
2245	0	32848	
2246	0	32536	
2247	0	32521	
2248	0	32768	
2249	0	32768	
2250	0	32764	
2251	0	32640	
2252	0	32644	
2253	0	32956	
2254	0	32904	
2255	0	32624	
2256	0	32618	
2257	0	32740	
2258	0	32600	
2259	0	32636	
2260	0	32996	
2261	0	33144	
2262	0	33080	
2263	0	33248	
2264	0	32857	
2265	0	32598	
2266	0	32592	
2267	0	32592	
2268	0	32500	
2269	0	32768	
2270	0	32684	
2271	0	32464	
2272	0	32740	
2273	0	32836	
2274	0	32532	
2275	0	32774	
2276	0	32660	
2277	0	32483	
2278	0	32480	
2279	0	32688	
2280	0	32828	
2281	0	32684	
2282	0	32733	
2283	0	32788	
2284	0	32788	
2285	0	32696	
2286	0	32604	
2287	0	32630	
2288	0	32814	
2289	0	32874	
2290	0	33068	
2291	0	33172	
2292	0	33024	
2293	0	32928	
2294	0	32792	
2295	0	32616	
2296	0	32745	
2297	0	32698	
2298	0	32396	
2299	0	32404	
2300	0	32744	
2301	0	32882	
2302	0	32838	
2303	0	32858	
2304	0	32844	
2305	0	32496	
2306	0	32614	
2307	0	32576	
2308	0	32564	
2309	0	32778	
2310	0	32800	
2311	0	32832	
2312	0	33100	
2313	0	32768	
2314	0	32608	
2315	0	32800	
2316	0	32788	
2317	0	32696	
2318	0	32805	
2319	0	32735	
2320	0	32701	
2321	0	32888	
2322	0	32920	
2323	0	32720	
2324	0	32602	
2325	0	32601	
2326	0	32504	
2327	0	32698	
2328	0	32788	
2329	0	32512	
2330	0	32668	
2331	0	32914	
2332	0	32824	
2333	0	32770	
2334	0	32760	
2335	0	32544	
2336	0	32485	
2337	0	32776	
2338	0	32742	
2339	0	32472	
2340	0	32624	
2341	0	32859	
2342	0	32856	
2343	0	33132	
2344	0	33160	
2345	0	32792	
2346	0	32650	
2347	0	32642	
2348	0	32587	
2349	0	32878	
2350	0	32944	
2351	0	32730	
2352	0	32644	
2353	0	32606	
2354	0	32600	
2355	0	32658	
2356	0	32698	
2357	0	32576	
2358	0	32476	
2359	0	32657	
2360	0	32700	
2361	0	32980	
2362	0	32984	
2363	0	32921	
2364	0	32925	
2365	0	32932	
2366	0	32744	
2367	0	32860	
2368	0	32810	
2369	0	32728	
2370	0	32864	
2371	0	32969	
2372	0	32757	
2373	0	32642	
2374	0	32696	
2375	0	32616	
2376	0	32616	
2377	0	32532	
2378	0	32571	
2379	0	32795	
2380	0	32792	
2381	0	32748	
2382	0	32882	
2383	0	33144	
2384	0	32704	
2385	0	32436	
2386	0	32606	
2387	0	32562	
2388	0	32476	
2389	0	32676	
2390	0	32704	
2391	0	32650	
2392	0	32788	
2393	0	32817	
2394	0	32733	
2395	0	32768	
2396	0	32756	
2397	0	32718	
2398	0	32813	
2399	0	32896	
2400	0	32688	
2401	0	32804	
2402	0	32960	
2403	0	32778	
2404	0	32848	
2405	0	32656	
2406	0	32468	
2407	0	32506	
2408	0	32566	
2409	0	32520	
2410	0	32610	
2411	0	32775	
2412	0	32848	
2413	0	32978	
2414	0	32941	
2415	0	32661	
2416	0	32545	
2417	0	32894	
2418	0	32872	
2419	0	32688	
2420	0	32848	
2421	0	32868	
2422	0	32778	
2423	0	32882	
2424	0	32817	
2425	0	32724	
2426	0	32608	
2427	0	32313	
2428	0	32452	
2429	0	32978	
2430	0	32944	
2431	0	32756	
2432	0	32884	
2433	0	32752	
2434	0	32682	
2435	0	32620	
2436	0	32349	
2437	0	32472	
2438	0	32506	
2439	0	32796	
2440	0	32813	
2441	0	33016	
2442	0	32976	
2443	0	32856	
2444	0	33002	
2445	0	32752	
2446	0	32240	
2447	0	32362	
2448	0	32644	
2449	0	32954	
2450	0	32978	
2451	0	32868	
2452	0	32797	
2453	0	32992	
2454	0	33021	
2455	0	32904	
2456	0	32600	
2457	0	32533	
2458	0	32688	
2459	0	32840	
2460	0	32754	
2461	0	32441	
2462	0	32524	
2463	0	32824	
2464	0	32764	
2465	0	32382	
2466	0	32476	
2467	0	32302	
2468	0	32476	
2469	0	32791	
2470	0	32866	
2471	0	32938	
2472	0	33008	
2473	0	32992	
2474	0	33052	
2475	0	33006	
2476	0	32712	
2477	0	32701	
2478	0	32976	
2479	0	33024	
2480	0	32716	
2481	0	32644	
2482	0	32805	
2483	0	32720	
2484	0	32776	
2485	0	32616	
2486	0	32420	
2487	0	32526	
2488	0	32636	
2489	0	32688	
2490	0	32696	
2491	0	32600	
2492	0	32594	
2493	0	32960	
2494	0	33184	
2495	0	32608	
2496	0	32520	
2497	0	32704	
2498	0	32820	
2499	0	32824	
2500	0	32742	
2501	0	32612	
2502	0	32784	
2503	0	33150	
2504	0	33052	
2505	0	32844	
2506	0	32741	
2507	0	32704	
2508	0	32780	
2509	0	32708	
2510	0	32440	
2511	0	32630	
2512	0	33049	
2513	0	32821	
2514	0	32620	
2515	0	32584	
2516	0	32621	
2517	0	32533	
2518	0	32696	
2519	0	32664	
2520	0	32335	
2521	0	32632	
2522	0	32806	
2523	0	33008	
2524	0	33124	
2525	0	32840	
2526	0	32537	
2527	0	32886	
2528	0	32905	
2529	0	32656	
2530	0	32620	
2531	0	33044	
2532	0	32980	
2533	0	33184	
2534	0	32891	
2535	0	32417	
2536	0	32508	
2537	0	32716	
2538	0	32568	
2539	0	32533	
2540	0	32586	
2541	0	32675	
2542	0	32840	
2543	0	32932	
2544	0	32612	
2545	0	32434	
2546	0	32620	
2547	0	32664	
2548	0	32706	
2549	0	32612	
2550	0	32562	
2551	0	32812	
2552	0	33170	
2553	0	33080	
2554	0	32842	
2555	0	32708	
2556	0	32495	
2557	0	32539	
2558	0	32696	
2559	0	32688	
2560	0	32738	
2561	0	33026	
2562	0	33120	
2563	0	33036	
2564	0	32664	
2565	0	32376	
2566	0	32540	
2567	0	32920	
2568	0	32571	
2569	0	32044	
2570	0	32456	
2571	0	32762	
2572	0	32836	
2573	0	32792	
2574	0	32858	
2575	0	32644	
2576	0	32866	
2577	0	33008	
2578	0	32780	
2579	0	32800	
2580	0	32908	
2581	0	32668	
2582	0	33092	
2583	0	33106	
2584	0	32756	
2585	0	32530	
2586	0	32540	
2587	0	32581	
2588	0	32601	
2589	0	32548	
2590	0	32514	
2591	0	32513	
2592	0	32904	
2593	0	32890	
2594	0	32780	
2595	0	33068	
2596	0	32840	
2597	0	32660	
2598	0	32710	
2599	0	32664	
2600	0	32712	
2601	0	33150	
2602	0	32972	
2603	0	32678	
2604	0	32674	
2605	0	32708	
2606	0	32672	
2607	0	32709	
2608	0	32396	
2609	0	32360	
2610	0	32488	
2611	0	32728	
2612	0	32722	
2613	0	32818	
2614	0	32950	
2615	0	32864	
2616	0	32872	
2617	0	32976	
2618	0	32784	
2619	0	32744	
2620	0	32756	
2621	0	32862	
2622	0	32897	
2623	0	32808	
2624	0	32544	
2625	0	32604	
2626	0	32666	
2627	0	32656	
2628	0	32688	
2629	0	32696	
2630	0	32576	
2631	0	32680	
2632	0	32858	
2633	0	32814	
2634	0	32963	
2635	0	32910	
2636	0	32690	
2637	0	32366	
2638	0	32548	
2639	0	32672	
2640	0	32804	
2641	0	33065	
2642	0	32898	
2643	0	33040	
2644	0	32804	
2645	0	32568	
2646	0	32516	
2647	0	32658	
2648	0	32732	
2649	0	32553	
2650	0	32660	
2651	0	32833	
2652	0	32716	
2653	0	32925	
2654	0	32996	
2655	0	32754	
2656	0	32610	
2657	0	32612	
2658	0	32457	
2659	0	32832	
2660	0	32900	
2661	0	32770	
2662	0	32918	
2663	0	32762	
2664	0	32636	
2665	0	32624	
2666	0	32592	
2667	0	32428	
2668	0	32616	
2669	0	32808	
2670	0	32797	
2671	0	32812	
2672	0	32960	
2673	0	32762	
2674	0	32842	
2675	0	32946	
2676	0	32774	
2677	0	32777	
2678	0	32681	
2679	0	32620	
2680	0	32704	
2681	0	32964	
2682	0	32817	
2683	0	32760	
2684	0	32933	
2685	0	32752	
2686	0	32736	
2687	0	32768	
2688	0	32732	
2689	0	32576	
2690	0	32636	
2691	0	32651	
2692	0	32666	
2693	0	32786	
2694	0	32808	
2695	0	32738	
2696	0	32852	
2697	0	32676	
2698	0	32520	
2699	0	32672	
2700	0	32824	
2701	0	32654	
2702	0	32836	
2703	0	32994	
2704	0	33013	
2705	0	32988	
2706	0	32860	
2707	0	32476	
2708	0	32632	
2709	0	32576	
2710	0	32516	
2711	0	32668	
2712	0	33022	
2713	0	32744	
2714	0	32748	
2715	0	33074	
2716	0	32858	
2717	0	32633	
2718	0	32661	
2719	0	32468	
2720	0	32475	
2721	0	32664	
2722	0	32790	
2723	0	32972	
2724	0	32868	
2725	0	32556	
2726	0	32650	
2727	0	32996	
2728	0	32874	
2729	0	32648	
2730	0	32746	
2731	0	32883	
2732	0	32712	
2733	0	32736	
2734	0	32896	
2735	0	32714	
2736	0	32562	
2737	0	32444	
2738	0	32505	
2739	0	32794	
2740	0	32850	
2741	0	32840	
2742	0	33052	
2743	0	33006	
2744	0	32722	
2745	0	32672	
2746	0	32684	
2747	0	32461	
2748	0	32676	
2749	0	32920	
2750	0	32819	
2751	0	32740	
2752	0	32696	
2753	0	32672	
2754	0	32761	
2755	0	32608	
2756	0	32544	
2757	0	32660	
2758	0	32696	
2759	0	32619	
2760	0	32744	
2761	0	33168	
2762	0	32928	
2763	0	32846	
2764	0	33174	
2765	0	32832	
2766	0	32481	
2767	0	32606	
2768	0	32612	
2769	0	32894	
2770	0	32947	
2771	0	32672	
2772	0	32632	
2773	0	32736	
2774	0	32714	
2775	0	32472	
2776	0	32578	
2777	0	32612	
2778	0	32592	
2779	0	32768	
2780	0	32800	
2781	0	32872	
2782	0	32892	
2783	0	32744	
2784	0	32753	
2785	0	32868	
2786	0	32668	
2787	0	32508	
2788	0	32747	
2789	0	32836	
2790	0	32730	
2791	0	33014	
2792	0	33072	
2793	0	32912	
2794	0	32876	
2795	0	32704	
2796	0	32498	
2797	0	32432	
2798	0	32498	
2799	0	32746	
2800	0	32728	
2801	0	32760	
2802	0	32660	
2803	0	32664	
2804	0	32930	
2805	0	32792	
2806	0	32741	
2807	0	32676	
2808	0	32640	
2809	0	32752	
2810	0	33056	
2811	0	32796	
2812	0	32637	
2813	0	32592	
2814	0	32666	
2815	0	32960	
2816	0	32996	
2817	0	32780	
2818	0	32722	
2819	0	32784	
2820	0	32774	
2821	0	32768	
2822	0	32980	
2823	0	32762	
2824	0	32440	
2825	0	32586	
2826	0	32648	
2827	0	32512	
2828	0	32494	
2829	0	32536	
2830	0	32576	
2831	0	32836	
2832	0	32960	
2833	0	32880	
2834	0	32960	
2835	0	32692	
2836	0	32452	
2837	0	32784	
2838	0	32960	
2839	0	32933	
2840	0	32936	
2841	0	32837	
2842	0	32879	
2843	0	33028	
2844	0	32871	
2845	0	32832	
2846	0	32745	
2847	0	32636	
2848	0	32306	
2849	0	32418	
2850	0	32541	
2851	0	32580	
2852	0	32694	
2853	0	32965	
2854	0	32644	
2855	0	32448	
2856	0	32422	
2857	0	32466	
2858	0	32657	
2859	0	32746	
2860	0	32644	
2861	0	32938	
2862	0	33280	
2863	0	33192	
2864	0	32924	
2865	0	32817	
2866	0	33040	
2867	0	32866	
2868	0	32950	
2869	0	32808	
2870	0	32412	
2871	0	32678	
2872	0	32920	
2873	0	32820	
2874	0	32746	
2875	0	32488	
2876	0	32192	
2877	0	32452	
2878	0	32436	
2879	0	32352	
2880	0	32572	
2881	0	32813	
2882	0	32864	
2883	0	32912	
2884	0	32904	
2885	0	32580	
2886	0	32484	
2887	0	32690	
2888	0	32836	
2889	0	32820	
2890	0	33026	
2891	0	33004	
2892	0	33140	
2893	0	33301	
2894	0	32940	
2895	0	32640	
2896	0	32562	
2897	0	32558	
2898	0	32668	
2899	0	32836	
2900	0	32594	
2901	0	32536	
2902	0	32876	
2903	0	32968	
2904	0	32904	
2905	0	32813	
2906	0	32532	
2907	0	32500	
2908	0	32628	
2909	0	32592	
2910	0	32572	
2911	0	32624	
2912	0	32650	
2913	0	32628	
2914	0	32912	
2915	0	32784	
2916	0	32524	
2917	0	32624	
2918	0	32914	
2919	0	33088	
2920	0	33003	
2921	0	32816	
2922	0	32746	
2923	0	32901	
2924	0	33012	
2925	0	32848	
2926	0	32637	
2927	0	32408	
2928	0	32425	
2929	0	32620	
2930	0	32794	
2931	0	32542	
2932	0	32605	
2933	0	33032	
2934	0	32790	
2935	0	32690	
2936	0	32620	
2937	0	32480	
2938	0	32545	
2939	0	32819	
2940	0	33013	
2941	0	32916	
2942	0	33058	
2943	0	33048	
2944	0	33280	
2945	0	33174	
2946	0	32746	
2947	0	32462	
2948	0	32526	
2949	0	32568	
2950	0	32669	
2951	0	32930	
2952	0	32797	
2953	0	32726	
2954	0	32792	
2955	0	32668	
2956	0	32336	
2957	0	32344	
2958	0	32148	
2959	0	32252	
2960	0	32666	
2961	0	32916	
2962	0	32880	
2963	0	32882	
2964	0	32813	
2965	0	32816	
2966	0	32976	
2967	0	32901	
2968	0	32740	
2969	0	32738	
2970	0	33012	
2971	0	32904	
2972	0	33100	
2973	0	33066	
2974	0	32857	
2975	0	32699	
2976	0	32701	
2977	0	32502	
2978	0	32372	
2979	0	32504	
2980	0	32606	
2981	0	32724	
2982	0	32738	
2983	0	32650	
2984	0	32728	
2985	0	32732	
2986	0	32584	
2987	0	32581	
2988	0	32843	
2989	0	32818	
2990	0	32614	
2991	0	32732	
2992	0	32926	
2993	0	32864	
2994	0	32988	
2995	0	32724	
2996	0	32637	
2997	0	32676	
2998	0	32728	
2999	0	32754	
3000	0	32938	
3001	0	33057	
3002	0	33056	
3003	0	32984	
3004	0	32962	
3005	0	32592	
3006	0	32666	
3007	0	32692	
3008	0	32532	
3009	0	32536	
3010	0	32562	
3011	0	32616	
3012	0	32764	
3013	0	32840	
3014	0	32764	
3015	0	32672	
3016	0	32517	
3017	0	32334	
3018	0	32556	
3019	0	32756	
3020	0	32622	
3021	0	32600	
3022	0	33080	
3023	0	33116	
3024	0	32985	
3025	0	33084	
3026	0	32832	
3027	0	32784	
3028	0	32842	
3029	0	32614	
3030	0	32460	
3031	0	32752	
3032	0	32850	
3033	0	32829	
3034	0	32867	
3035	0	32770	
3036	0	32621	
3037	0	32506	
3038	0	32496	
3039	0	32534	
3040	0	32656	
3041	0	32696	
3042	0	32552	
3043	0	32746	
3044	0	33047	
3045	0	32500	
3046	0	32556	
3047	0	32737	
3048	0	32720	
3049	0	32721	
3050	0	32600	
3051	0	32858	
3052	0	32955	
3053	0	33019	
3054	0	33005	
3055	0	32952	
3056	0	33076	
3057	0	32690	
3058	0	32691	
3059	0	32930	
3060	0	32804	
3061	0	32859	
3062	0	33068	
3063	0	32874	
3064	0	32713	
3065	0	32562	
3066	0	32236	
3067	0	32380	
3068	0	32661	
3069	0	32504	
3070	0	32306	
3071	0	32503	
3072	0	32544	
3073	0	32780	
3074	0	33094	
3075	0	32893	
3076	0	32672	
3077	0	32690	
3078	0	33122	
3079	0	32814	
3080	0	32874	
3081	0	32900	
3082	0	32923	
3083	0	33062	
3084	0	32684	
3085	0	32580	
3086	0	32600	
3087	0	32422	
3088	0	32550	
3089	0	32825	
3090	0	32896	
3091	0	32628	
3092	0	32553	
3093	0	32952	
3094	0	32910	
3095	0	32752	
3096	0	32696	
3097	0	32704	
3098	0	32698	
3099	0	32468	
3100	0	32539	
3101	0	32714	
3102	0	32820	
3103	0	32804	
3104	0	32768	
3105	0	32796	
3106	0	32596	
3107	0	32512	
3108	0	32920	
3109	0	32912	
3110	0	32916	
3111	0	32805	
3112	0	32696	
3113	0	32920	
3114	0	33164	
3115	0	32842	
3116	0	32532	
3117	0	32774	
3118	0	32728	
3119	0	32323	
3120	0	32652	
3121	0	32704	
3122	0	32640	
3123	0	32762	
3124	0	32704	
3125	0	32654	
3126	0	32512	
3127	0	32560	
3128	0	32576	
3129	0	32832	
3130	0	32940	
3131	0	32820	
3132	0	33016	
3133	0	32852	
3134	0	32754	
3135	0	32884	
3136	0	32825	
3137	0	32780	
3138	0	32760	
3139	0	32830	
3140	0	32880	
3141	0	32848	
3142	0	32777	
3143	0	32728	
3144	0	32736	
3145	0	32876	
3146	0	32492	
3147	0	32329	
3148	0	32564	
3149	0	32674	
3150	0	32800	
3151	0	32736	
3152	0	32628	
3153	0	32608	
3154	0	32604	
3155	0	32760	
3156	0	32714	
3157	0	32740	
3158	0	32614	
3159	0	32496	
3160	0	32980	
3161	0	32976	
3162	0	32728	
3163	0	32704	
3164	0	32844	
3165	0	32620	
3166	0	32856	
3167	0	32872	
3168	0	32824	
3169	0	32848	
3170	0	32829	
3171	0	32844	
3172	0	32844	
3173	0	32656	
3174	0	32544	
3175	0	32526	
3176	0	32576	
3177	0	32632	
3178	0	32744	
3179	0	32864	
3180	0	32628	
3181	0	32740	
3182	0	32893	
3183	0	32810	
3184	0	32860	
3185	0	32866	
3186	0	32628	
3187	0	32712	
3188	0	32821	
3189	0	32764	
3190	0	32703	
3191	0	32960	
3192	0	32706	
3193	0	32660	
3194	0	32733	
3195	0	32644	
3196	0	32524	
3197	0	32586	
3198	0	32772	
3199	0	32680	
3200	0	32707	
3201	0	32844	
3202	0	32784	
3203	0	33005	
3204	0	32973	
3205	0	32696	
3206	0	32972	
3207	0	33020	
3208	0	32778	
3209	0	32904	
3210	0	32674	
3211	0	32448	
3212	0	32508	
3213	0	32650	
3214	0	32636	
3215	0	32545	
3216	0	32644	
3217	0	32532	
3218	0	32680	
3219	0	32712	
3220	0	32530	
3221	0	32581	
3222	0	32634	
3223	0	32635	
3224	0	32859	
3225	0	32982	
3226	0	32660	
3227	0	32514	
3228	0	32662	
3229	0	32676	
3230	0	32764	
3231	0	33068	
3232	0	32960	
3233	0	32778	
3234	0	32928	
3235	0	32825	
3236	0	32724	
3237	0	32970	
3238	0	32712	
3239	0	32740	
3240	0	32944	
3241	0	32890	
3242	0	32829	
3243	0	32981	
3244	0	32716	
3245	0	32626	
3246	0	32552	
3247	0	32504	
3248	0	32429	
3249	0	32537	
3250	0	32538	
3251	0	32581	
3252	0	32892	
3253	0	32866	
3254	0	32736	
3255	0	32812	
3256	0	32668	
3257	0	32539	
3258	0	32596	
3259	0	32783	
3260	0	32864	
3261	0	32944	
3262	0	32972	
3263	0	32857	
3264	0	32802	
3265	0	32688	
3266	0	32672	
3267	0	32715	
3268	0	32748	
3269	0	32524	
3270	0	32602	
3271	0	32804	
3272	0	33248	
3273	0	33120	
3274	0	33053	
3275	0	32797	
3276	0	32738	
3277	0	32674	
3278	0	32612	
3279	0	32587	
3280	0	32565	
3281	0	32656	
3282	0	32774	
3283	0	32932	
3284	0	32706	
3285	0	32476	
3286	0	32528	
3287	0	32453	
3288	0	32596	
3289	0	32872	
3290	0	32728	
3291	0	32536	
3292	0	32960	
3293	0	33112	
3294	0	32828	
3295	0	32884	
3296	0	32794	
3297	0	32620	
3298	0	32640	
3299	0	32696	
3300	0	32688	
3301	0	33065	
3302	0	32972	
3303	0	32669	
3304	0	32752	
3305	0	32826	
3306	0	32492	
3307	0	32461	
3308	0	32500	
3309	0	32404	
3310	0	32610	
3311	0	32842	
3312	0	32790	
3313	0	32936	
3314	0	32941	
3315	0	32576	
3316	0	32725	
3317	0	32844	
3318	0	32571	
3319	0	32532	
3320	0	32700	
3321	0	32792	
3322	0	32946	
3323	0	33044	
3324	0	33104	
3325	0	32944	
3326	0	32764	
3327	0	32500	
3328	0	32524	
3329	0	32608	
3330	0	32646	
3331	0	32542	
3332	0	33040	
3333	0	33004	
3334	0	32712	
3335	0	32704	
3336	0	32692	
3337	0	32518	
3338	0	32450	
3339	0	32660	
3340	0	32662	
3341	0	32929	
3342	0	33092	
3343	0	32946	
3344	0	32897	
3345	0	32944	
3346	0	32774	
3347	0	32716	
3348	0	32668	
3349	0	32610	
3350	0	32573	
3351	0	32880	
3352	0	32784	
3353	0	33066	
3354	0	33124	
3355	0	32661	
3356	0	32472	
3357	0	32460	
3358	0	32460	
3359	0	32618	
3360	0	32626	
3361	0	32580	
3362	0	32652	
3363	0	32876	
3364	0	32906	
3365	0	32865	
3366	0	32930	
3367	0	32696	
3368	0	32534	
3369	0	32482	
3370	0	32408	
3371	0	32478	
3372	0	32780	
3373	0	32952	
3374	0	33003	
3375	0	33084	
3376	0	32852	
3377	0	32508	
3378	0	32526	
3379	0	32560	
3380	0	32564	
3381	0	32800	
3382	0	33004	
3383	0	33085	
3384	0	33035	
3385	0	32880	
3386	0	32784	
3387	0	32736	
3388	0	32637	
3389	0	32542	
3390	0	32584	
3391	0	32646	
3392	0	32587	
3393	0	32794	
3394	0	33114	
3395	0	32870	
3396	0	32622	
3397	0	32464	
3398	0	32472	
3399	0	32600	
3400	0	32650	
3401	0	32680	
3402	0	32736	
3403	0	32976	
3404	0	32946	
3405	0	32862	
3406	0	32862	
3407	0	32602	
3408	0	32578	
3409	0	32732	
3410	0	32712	
3411	0	32646	
3412	0	32812	
3413	0	32716	
3414	0	32664	
3415	0	32990	
3416	0	32873	
3417	0	32640	
3418	0	33016	
3419	0	32937	
3420	0	32802	
3421	0	32810	
3422	0	33014	
3423	0	32892	
3424	0	33018	
3425	0	32792	
3426	0	32320	
3427	0	32240	
3428	0	32430	
3429	0	32546	
3430	0	32425	
3431	0	32632	
3432	0	32576	
3433	0	32604	
3434	0	32988	
3435	0	32952	
3436	0	32950	
3437	0	32700	
3438	0	32562	
3439	0	32720	
3440	0	32956	
3441	0	32816	
3442	0	32914	
3443	0	32929	
3444	0	32904	
3445	0	32998	
3446	0	33004	
3447	0	32700	
3448	0	32544	
3449	0	32554	
3450	0	32590	
3451	0	32464	
3452	0	32676	
3453	0	32754	
3454	0	32672	
3455	0	32647	
3456	0	32564	
3457	0	32656	
3458	0	32784	
3459	0	32512	
3460	0	32520	
3461	0	32859	
3462	0	32950	
3463	0	32800	
3464	0	32976	
3465	0	32792	
3466	0	32500	
3467	0	32781	
3468	0	32778	
3469	0	32646	
3470	0	32600	
3471	0	32652	
3472	0	32528	
3473	0	32900	
3474	0	33124	
3475	0	32972	
3476	0	32910	
3477	0	32680	
3478	0	32684	
3479	0	32808	
3480	0	32914	
3481	0	32701	
3482	0	32802	
3483	0	33230	
3484	0	32860	
3485	0	32568	
3486	0	32676	
3487	0	32522	
3488	0	32506	
3489	0	32582	
3490	0	32604	
3491	0	32760	
3492	0	32728	
3493	0	32636	
3494	0	32799	
3495	0	32908	
3496	0	32664	
3497	0	32632	
3498	0	32768	
3499	0	32820	
3500	0	32672	
3501	0	32712	
3502	0	32994	
3503	0	32901	
3504	0	32960	
3505	0	32860	
3506	0	32596	
3507	0	32566	
3508	0	32452	
3509	0	32484	
3510	0	32801	
3511	0	32774	
3512	0	32726	
3513	0	32904	
3514	0	32840	
3515	0	32650	
3516	0	32775	
3517	0	32952	
3518	0	32712	
3519	0	32636	
3520	0	32632	
3521	0	32624	
3522	0	32747	
3523	0	32752	
3524	0	32808	
3525	0	32720	
3526	0	32573	
3527	0	32520	
3528	0	32618	
3529	0	32812	
3530	0	32904	
3531	0	32810	
3532	0	32912	
3533	0	32811	
3534	0	32692	
3535	0	32962	
3536	0	32729	
3537	0	32496	
3538	0	32840	
3539	0	32729	
3540	0	32604	
3541	0	32772	
3542	0	32733	
3543	0	32768	
3544	0	32782	
3545	0	32680	
3546	0	32704	
3547	0	32784	
3548	0	32788	
3549	0	32576	
3550	0	32800	
3551	0	32916	
3552	0	32782	
3553	0	32694	
3554	0	32666	
3555	0	32638	
3556	0	32594	
3557	0	32626	
3558	0	32626	
3559	0	32628	
3560	0	32500	
3561	0	32484	
3562	0	32728	
3563	0	32852	
3564	0	32880	
3565	0	32980	
3566	0	32952	
3567	0	32910	
3568	0	32869	
3569	0	32964	
3570	0	32786	
3571	0	32744	
3572	0	33108	
3573	0	32816	
3574	0	32792	
3575	0	32802	
3576	0	32536	
3577	0	32560	
3578	0	32556	
3579	0	32448	
3580	0	32524	
3581	0	32581	
3582	0	32528	
3583	0	32662	
3584	0	33074	
3585	0	32857	
3586	0	32588	
3587	0	32617	
3588	0	32752	
3589	0	32700	
3590	0	32864	
3591	0	32722	
3592	0	32800	
3593	0	32996	
3594	0	32936	
3595	0	32788	
3596	0	32888	
3597	0	32728	
3598	0	32576	
3599	0	32876	
3600	0	32832	
3601	0	32560	
3602	0	32752	
3603	0	32850	
3604	0	32891	
3605	0	32816	
3606	0	32752	
3607	0	32646	
3608	0	32658	
3609	0	32566	
3610	0	32349	
3611	0	32602	
3612	0	32848	
3613	0	32720	
3614	0	32678	
3615	0	32840	
3616	0	32642	
3617	0	32572	
3618	0	32808	
3619	0	32910	
3620	0	32822	
3621	0	32810	
3622	0	32856	
3623	0	32969	
3624	0	32946	
3625	0	32920	
3626	0	32730	
3627	0	32688	
3628	0	32354	
3629	0	32444	
3630	0	32805	
3631	0	32820	
3632	0	32722	
3633	0	32908	
3634	0	32720	
3635	0	32588	
3636	0	32608	
3637	0	32673	
3638	0	32580	
3639	0	32712	
3640	0	32778	
3641	0	32736	
3642	0	32912	
3643	0	32720	
3644	0	32573	
3645	0	32666	
3646	0	32636	
3647	0	32556	
3648	0	32676	
3649	0	32770	
3650	0	32832	
3651	0	33010	
3652	0	33160	
3653	0	32892	
3654	0	33010	
3655	0	32788	
3656	0	32628	
3657	0	32474	
3658	0	32570	
3659	0	32550	
3660	0	32664	
3661	0	32824	
3662	0	32603	
3663	0	32592	
3664	0	32740	
3665	0	32608	
3666	0	32742	
3667	0	32756	
3668	0	32522	
3669	0	32634	
3670	0	32812	
3671	0	32822	
3672	0	32921	
3673	0	33220	
3674	0	32968	
3675	0	32869	
3676	0	32748	
3677	0	32660	
3678	0	32701	
3679	0	32775	
3680	0	32650	
3681	0	32744	
3682	0	32978	
3683	0	32792	
3684	0	32444	
3685	0	32722	
3686	0	32774	
3687	0	32484	
3688	0	32545	
3689	0	32488	
3690	0	32416	
3691	0	32840	
3692	0	32989	
3693	0	32840	
3694	0	32933	
3695	0	32877	
3696	0	32438	
3697	0	32508	
3698	0	32636	
3699	0	32690	
3700	0	32680	
3701	0	32828	
3702	0	32969	
3703	0	33268	
3704	0	33320	
3705	0	32880	
3706	0	32706	
3707	0	32820	
3708	0	32836	
3709	0	32760	
3710	0	32704	
3711	0	32528	
3712	0	32536	
3713	0	32746	
3714	0	32696	
3715	0	32580	
3716	0	32668	
3717	0	32210	
3718	0	32238	
3719	0	32656	
3720	0	32841	
3721	0	32788	
3722	0	32824	
3723	0	32736	
3724	0	32962	
3725	0	33116	
3726	0	32976	
3727	0	32866	
3728	0	32815	
3729	0	32692	
3730	0	32740	
3731	0	32996	
3732	0	32828	
3733	0	32690	
3734	0	32630	
3735	0	32468	
3736	0	32504	
3737	0	32500	
3738	0	32458	
3739	0	32672	
3740	0	32897	
3741	0	32763	
3742	0	32690	
3743	0	32747	
3744	0	32832	
3745	0	32744	
3746	0	32768	
3747	0	32992	
3748	0	32706	
3749	0	32650	
3750	0	32801	
3751	0	32738	
3752	0	32772	
3753	0	32864	
3754	0	32670	
3755	0	32754	
3756	0	32746	
3757	0	32558	
3758	0	32384	
3759	0	32602	
3760	0	32788	
3761	0	32970	
3762	0	33220	
3763	0	32936	
3764	0	32741	
3765	0	32722	
3766	0	32788	
3767	0	32780	
3768	0	32752	
3769	0	32580	
3770	0	32415	
3771	0	32704	
3772	0	32768	
3773	0	32876	
3774	0	33016	
3775	0	32729	
3776	0	32632	
3777	0	32633	
3778	0	32544	
3779	0	32526	
3780	0	32658	
3781	0	32686	
3782	0	32828	
3783	0	33040	
3784	0	32844	
3785	0	32582	
3786	0	32610	
3787	0	32864	
3788	0	32754	
3789	0	32636	
3790	0	32746	
3791	0	32736	
3792	0	32740	
3793	0	32853	
3794	0	32616	
3795	0	32661	
3796	0	32902	
3797	0	32606	
3798	0	32536	
3799	0	32692	
3800	0	32628	
3801	0	32664	
3802	0	33064	
3803	0	33074	
3804	0	32924	
3805	0	32802	
3806	0	32749	
3807	0	32736	
3808	0	32852	
3809	0	32664	
3810	0	32712	
3811	0	32884	
3812	0	32800	
3813	0	32616	
3814	0	32868	
3815	0	32813	
3816	0	32576	
3817	0	32644	
3818	0	32648	
3819	0	32326	
3820	0	32654	
3821	0	32706	
3822	0	32780	
3823	0	32937	
3824	0	32808	
3825	0	32768	
3826	0	32700	
3827	0	32438	
3828	0	32450	
3829	0	32692	
3830	0	32840	
3831	0	32768	
3832	0	32882	
3833	0	32992	
3834	0	32713	
3835	0	32795	
3836	0	32760	
3837	0	32780	
3838	0	32927	
3839	0	32754	
3840	0	32712	
3841	0	32856	
3842	0	32881	
3843	0	32748	
3844	0	32786	
3845	0	32790	
3846	0	32690	
3847	0	32402	
3848	0	32636	
3849	0	32684	
3850	0	32652	
3851	0	32760	
3852	0	32656	
3853	0	32800	
3854	0	32856	
3855	0	32554	
3856	0	32761	
3857	0	32804	
3858	0	32704	
3859	0	32848	
3860	0	33038	
3861	0	32997	
3862	0	32712	
3863	0	32774	
3864	0	32825	
3865	0	32668	
3866	0	32782	
3867	0	32734	
3868	0	32570	
3869	0	32664	
3870	0	32540	
3871	0	32371	
3872	0	32623	
3873	0	32864	
3874	0	32632	
3875	0	32636	
3876	0	32808	
3877	0	32654	
3878	0	32864	
3879	0	32928	
3880	0	32644	
3881	0	32674	
3882	0	33088	
3883	0	32857	
3884	0	32740	
3885	0	32788	
3886	0	32592	
3887	0	32563	
3888	0	32700	
3889	0	32738	
3890	0	32960	
3891	0	33001	
3892	0	32656	
3893	0	32520	
3894	0	32828	
3895	0	32832	
3896	0	32568	
3897	0	32778	
3898	0	32592	
3899	0	32538	
3900	0	32722	
3901	0	32720	
3902	0	32832	
3903	0	32837	
3904	0	32426	
3905	0	32522	
3906	0	32580	
3907	0	32700	
3908	0	32554	
3909	0	32652	
3910	0	32864	
3911	0	32770	
3912	0	32825	
3913	0	33016	
3914	0	33097	
3915	0	32992	
3916	0	32979	
3917	0	32796	
3918	0	33011	
3919	0	32780	
3920	0	32538	
3921	0	32642	
3922	0	32604	
3923	0	32520	
3924	0	32694	
3925	0	32796	
3926	0	32569	
3927	0	32416	
3928	0	32456	
3929	0	32448	
3930	0	32772	
3931	0	32644	
3932	0	32626	
3933	0	32746	
3934	0	32740	
3935	0	32775	
3936	0	33048	
3937	0	33125	
3938	0	32934	
3939	0	32878	
3940	0	32888	
3941	0	32837	
3942	0	32762	
3943	0	32930	
3944	0	32932	
3945	0	32682	
3946	0	32600	
3947	0	32582	
3948	0	32492	
3949	0	32517	
3950	0	32538	
3951	0	32562	
3952	0	32888	
3953	0	32786	
3954	0	32600	
3955	0	32761	
3956	0	32640	
3957	0	32480	
3958	0	32715	
3959	0	32784	
3960	0	32712	
3961	0	32678	
3962	0	32712	
3963	0	32736	
3964	0	33123	
3965	0	33010	
3966	0	32752	
3967	0	32640	
3968	0	32728	
3969	0	32500	
3970	0	32650	
3971	0	32920	
3972	0	32907	
3973	0	32806	
3974	0	32754	
3975	0	32622	
3976	0	32522	
3977	0	32552	
3978	0	32618	
3979	0	32683	
3980	0	32680	
3981	0	32792	
3982	0	32937	
3983	0	32910	
3984	0	32797	
3985	0	32654	
3986	0	32674	
3987	0	32496	
3988	0	32638	
3989	0	32748	
3990	0	32945	
3991	0	33004	
3992	0	33044	
3993	0	32969	
3994	0	32696	
3995	0	32644	
3996	0	32587	
3997	0	32565	
3998	0	32616	
3999	0	32648	
4000	0	32733	
4001	0	32952	
4002	0	32960	
4003	0	32856	
4004	0	32796	
4005	0	32620	
4006	0	32520	
4007	0	32598	
4008	0	32522	
4009	0	32472	
4010	0	32522	
4011	0	32844	
4012	0	32964	
4013	0	33076	
4014	0	32784	
4015	0	32611	
4016	0	32724	
4017	0	32940	
4018	0	32771	
4019	0	32868	
4020	0	33003	
4021	0	32898	
4022	0	32992	
4023	0	33001	
4024	0	32780	
4025	0	32742	
4026	0	32482	
4027	0	32212	
4028	0	32432	
4029	0	32532	
4030	0	32452	
4031	0	32634	
4032	0	32740	
4033	0	32660	
4034	0	32632	
4035	0	32628	
4036	0	32668	
4037	0	32616	
4038	0	32728	
4039	0	32782	
4040	0	32854	
4041	0	32996	
4042	0	33028	
4043	0	32812	
4044	0	32757	
4045	0	32825	
4046	0	32746	
4047	0	32836	
4048	0	32808	
4049	0	32644	
4050	0	32669	
4051	0	32690	
4052	0	32792	
4053	0	33036	
4054	0	33040	
4055	0	32720	
4056	0	32548	
4057	0	32560	
4058	0	32649	
4059	0	32800	
4060	0	32728	
4061	0	32544	
4062	0	32738	
4063	0	33112	
4064	0	32774	
4065	0	32624	
4066	0	32532	
4067	0	32537	
4068	0	32522	
4069	0	32632	
4070	0	32666	
4071	0	32689	
4072	0	32926	
4073	0	32918	
4074	0	32804	
4075	0	33016	
4076	0	32906	
4077	0	32720	
4078	0	32820	
4079	0	32845	
4080	0	32840	
4081	0	33053	
4082	0	32940	
4083	0	32844	
4084	0	32746	
4085	0	32658	
4086	0	32448	
4087	0	32436	
4088	0	32512	
4089	0	32426	
4090	0	32391	
4091	0	32456	
4092	0	32618	
4093	0	32880	
4094	0	33048	
4095	0	32674	
4096	0	32562	
4097	0	32636	
4098	0	32697	
4099	0	33024	
4100	0	33092	
4101	0	33174	
4102	0	33010	
4103	0	32925	
4104	0	32964	
4105	0	33090	
4106	0	32881	
4107	0	32564	
4108	0	32468	
4109	0	32618	
4110	0	32704	
4111	0	32684	
4112	0	32646	
4113	0	32828	
4114	0	32644	
4115	0	32404	
4116	0	32376	
4117	0	32583	
4118	0	32648	
4119	0	32573	
4120	0	32586	
4121	0	32929	
4122	0	32864	
4123	0	33038	
4124	0	33056	
4125	0	32730	
4126	0	32628	
4127	0	32754	
4128	0	32884	
4129	0	32882	
4130	0	32891	
4131	0	32780	
4132	0	32642	
4133	0	32744	
4134	0	32728	
4135	0	32650	
4136	0	32614	
4137	0	32298	
4138	0	32410	
4139	0	32562	
4140	0	32736	
4141	0	32864	
4142	0	32921	
4143	0	32928	
4144	0	32665	
4145	0	32736	
4146	0	32928	
4147	0	32872	
4148	0	32862	
4149	0	32796	
4150	0	32737	
4151	0	32681	
4152	0	32780	
4153	0	32948	
4154	0	32904	
4155	0	32809	
4156	0	32584	
4157	0	32387	
4158	0	32594	
4159	0	32691	
4160	0	32584	
4161	0	32828	
4162	0	32908	
4163	0	32764	
4164	0	32818	
4165	0	32845	
4166	0	32635	
4167	0	32594	
4168	0	32466	
4169	0	32306	
4170	0	32690	
4171	0	32931	
4172	0	32608	
4173	0	32770	
4174	0	32862	
4175	0	32755	
4176	0	32964	
4177	0	32945	
4178	0	32698	
4179	0	32755	
4180	0	32804	
4181	0	32800	
4182	0	33344	
4183	0	33218	
4184	0	32800	
4185	0	32762	
4186	0	32952	
4187	0	32728	
4188	0	32704	
4189	0	32568	
4190	0	32330	
4191	0	32457	
4192	0	32720	
4193	0	32768	
4194	0	32748	
4195	0	32696	
4196	0	32396	
4197	0	32402	
4198	0	32560	
4199	0	32564	
4200	0	32477	
4201	0	32600	
4202	0	32800	
4203	0	33057	
4204	0	33299	
4205	0	33120	
4206	0	32796	
4207	0	32716	
4208	0	32656	
4209	0	32746	
4210	0	32968	
4211	0	32792	
4212	0	32892	
4213	0	33018	
4214	0	32951	
4215	0	32736	
4216	0	32692	
4217	0	32392	
4218	0	32328	
4219	0	32546	
4220	0	32698	
4221	0	32594	
4222	0	32884	
4223	0	33036	
4224	0	32930	
4225	0	32792	
4226	0	32764	
4227	0	32456	
4228	0	32594	
4229	0	32576	
4230	0	32348	
4231	0	32672	
4232	0	32844	
4233	0	32804	
4234	0	32860	
4235	0	33016	
4236	0	32869	
4237	0	32672	
4238	0	32660	
4239	0	32676	
4240	0	32716	
4241	0	32708	
4242	0	32708	
4243	0	32960	
4244	0	33216	
4245	0	32699	
4246	0	32442	
4247	0	32720	
4248	0	32821	
4249	0	32694	
4250	0	32812	
4251	0	32752	
4252	0	32676	
4253	0	33002	
4254	0	32838	
4255	0	32600	
4256	0	32576	
4257	0	32612	
4258	0	32544	
4259	0	32758	
4260	0	32808	
4261	0	32612	
4262	0	32744	
4263	0	32928	
4264	0	32756	
4265	0	32732	
4266	0	32554	
4267	0	32488	
4268	0	32568	
4269	0	32806	
4270	0	32720	
4271	0	32488	
4272	0	32688	
4273	0	32896	
4274	0	32989	
4275	0	32878	
4276	0	32802	
4277	0	32896	
4278	0	33052	
4279	0	32848	
4280	0	32834	
4281	0	32812	
4282	0	32824	
4283	0	32788	
4284	0	32962	
4285	0	32797	
4286	0	32540	
4287	0	32656	
4288	0	32634	
4289	0	32516	
4290	0	32480	
4291	0	32340	
4292	0	32524	
4293	0	32752	
4294	0	32768	
4295	0	32573	
4296	0	32630	
4297	0	32676	
4298	0	32792	
4299	0	33089	
4300	0	32876	
4301	0	32768	
4302	0	33040	
4303	0	33113	
4304	0	33008	
4305	0	32744	
4306	0	32429	
4307	0	32492	
4308	0	32760	
4309	0	32728	
4310	0	32612	
4311	0	32848	
4312	0	32736	
4313	0	32748	
4314	0	32848	
4315	0	32868	
4316	0	32552	
4317	0	32578	
4318	0	32722	
4319	0	32596	
4320	0	32488	
4321	0	32772	
4322	0	32836	
4323	0	33047	
4324	0	33117	
4325	0	32777	
4326	0	32646	
4327	0	32706	
4328	0	32630	
4329	0	32556	
4330	0	32696	
4331	0	32762	
4332	0	32896	
4333	0	32984	
4334	0	32834	
4335	0	32509	
4336	0	32469	
4337	0	32556	
4338	0	32756	
4339	0	32812	
4340	0	32632	
4341	0	32612	
4342	0	33032	
4343	0	33080	
4344	0	32828	
4345	0	32740	
4346	0	32640	
4347	0	32402	
4348	0	32473	
4349	0	32635	
4350	0	32772	
4351	0	32854	
4352	0	33004	
4353	0	32850	
4354	0	32720	
4355	0	32705	
4356	0	32562	
4357	0	32836	
4358	0	32916	
4359	0	32752	
4360	0	32828	
4361	0	32922	
4362	0	32870	
4363	0	32841	
4364	0	32821	
4365	0	32657	
4366	0	32492	
4367	0	32532	
4368	0	32496	
4369	0	32448	
4370	0	32688	
4371	0	32652	
4372	0	32784	
4373	0	32786	
4374	0	32420	
4375	0	32424	
4376	0	32709	
4377	0	32744	
4378	0	32829	
4379	0	32918	
4380	0	32816	
4381	0	33032	
4382	0	33120	
4383	0	32980	
4384	0	32827	
4385	0	32866	
4386	0	32760	
4387	0	32627	
4388	0	32558	
4389	0	32460	
4390	0	32288	
4391	0	32688	
4392	0	33058	
4393	0	33008	
4394	0	33081	
4395	0	32874	
4396	0	32484	
4397	0	32660	
4398	0	32844	
4399	0	32786	
4400	0	32724	
4401	0	32724	
4402	0	32630	
4403	0	32684	
4404	0	32830	
4405	0	32621	
4406	0	32556	
4407	0	32564	
4408	0	32468	
4409	0	32482	
4410	0	32680	
4411	0	32912	
4412	0	32888	
4413	0	32946	
4414	0	32868	
4415	0	32848	
4416	0	32896	
4417	0	32696	
4418	0	32640	
4419	0	32988	
4420	0	33053	
4421	0	32962	
4422	0	33112	
4423	0	32736	
4424	0	32658	
4425	0	32744	
4426	0	32552	
4427	0	32488	
4428	0	32674	
4429	0	32560	
4430	0	32506	
4431	0	32688	
4432	0	32794	
4433	0	32831	
4434	0	32859	
4435	0	32688	
4436	0	32320	
4437	0	32508	
4438	0	32736	
4439	0	32753	
4440	0	32793	
4441	0	32890	
4442	0	32936	
4443	0	32972	
4444	0	32988	
4445	0	32730	
4446	0	32760	
4447	0	32834	
4448	0	32724	
4449	0	32804	
4450	0	32968	
4451	0	32820	
4452	0	32672	
4453	0	32820	
4454	0	32706	
4455	0	32592	
4456	0	32673	
4457	0	32480	
4458	0	32416	
4459	0	32680	
4460	0	32824	
4461	0	32789	
4462	0	32932	
4463	0	32720	
4464	0	32562	
4465	0	32736	
4466	0	32720	
4467	0	32534	
4468	0	32664	
4469	0	32505	
4470	0	32480	
4471	0	32788	
4472	0	32880	
4473	0	32885	
4474	0	32944	
4475	0	32912	
4476	0	32808	
4477	0	32786	
4478	0	32800	
4479	0	32620	
4480	0	32912	
4481	0	32992	
4482	0	32816	
4483	0	33020	
4484	0	33196	
4485	0	32717	
4486	0	32696	
4487	0	32843	
4488	0	32733	
4489	0	32616	
4490	0	32704	
4491	0	32696	
4492	0	32608	
4493	0	32712	
4494	0	32732	
4495	0	32642	
4496	0	32472	
4497	0	32440	
4498	0	32424	
4499	0	32466	
4500	0	32600	
4501	0	32592	
4502	0	32830	
4503	0	32968	
4504	0	32836	
4505	0	32724	
4506	0	32602	
4507	0	32502	
4508	0	32744	
4509	0	32754	
4510	0	32775	
4511	0	33088	
4512	0	32994	
4513	0	32974	
4514	0	33170	
4515	0	33012	
4516	0	32612	
4517	0	32536	
4518	0	32581	
4519	0	32448	
4520	0	32448	
4521	0	32844	
4522	0	32922	
4523	0	32737	
4524	0	32800	
4525	0	32788	
4526	0	32736	
4527	0	32520	
4528	0	32160	
4529	0	32420	
4530	0	32562	
4531	0	32635	
4532	0	32796	
4533	0	33032	
4534	0	32950	
4535	0	32800	
4536	0	32780	
4537	0	32736	
4538	0	32760	
4539	0	32800	
4540	0	32686	
4541	0	32944	
4542	0	33216	
4543	0	33194	
4544	0	32988	
4545	0	33264	
4546	0	32796	
4547	0	32504	
4548	0	32638	
4549	0	32722	
4550	0	32498	
4551	0	32633	
4552	0	32650	
4553	0	32544	
4554	0	32621	
4555	0	32478	
4556	0	32410	
4557	0	32276	
4558	0	32172	
4559	0	32232	
4560	0	32634	
4561	0	33030	
4562	0	33013	
4563	0	33168	
4564	0	33084	
4565	0	32918	
4566	0	32892	
4567	0	33064	
4568	0	32965	
4569	0	32814	
4570	0	32874	
4571	0	33040	
4572	0	32990	
4573	0	32869	
4574	0	32674	
4575	0	32532	
4576	0	32452	
4577	0	32256	
4578	0	32366	
4579	0	32562	
4580	0	32518	
4581	0	32336	
4582	0	32728	
4583	0	32853	
4584	0	32762	
4585	0	32747	
4586	0	32626	
4587	0	32458	
4588	0	32600	
4589	0	32652	
4590	0	32704	
4591	0	33006	
4592	0	32814	
4593	0	32594	
4594	0	33026	
4595	0	33068	
4596	0	32911	
4597	0	32884	
4598	0	32736	
4599	0	32768	
4600	0	32996	
4601	0	32978	
4602	0	32980	
4603	0	33024	
4604	0	32920	
4605	0	32654	
4606	0	32491	
4607	0	32648	
4608	0	32620	
4609	0	32564	
4610	0	32470	
4611	0	32512	
4612	0	32596	
4613	0	32684	
4614	0	32708	
4615	0	32564	
4616	0	32664	
4617	0	32660	
4618	0	32572	
4619	0	32600	
4620	0	32706	
4621	0	32775	
4622	0	32876	
4623	0	32910	
4624	0	33080	
4625	0	32977	
4626	0	32693	
4627	0	32738	
4628	0	33120	
4629	0	32906	
4630	0	32930	
4631	0	32856	
4632	0	32900	
4633	0	32808	
4634	0	32576	
4635	0	32552	
4636	0	32534	
4637	0	32573	
4638	0	32476	
4639	0	32400	
4640	0	32658	
4641	0	32644	
4642	0	32505	
4643	0	32786	
4644	0	32800	
4645	0	32614	
4646	0	32688	
4647	0	32680	
4648	0	32644	
4649	0	32896	
4650	0	32996	
4651	0	32896	
4652	0	32954	
4653	0	33080	
4654	0	32800	
4655	0	32964	
4656	0	33040	
4657	0	32820	
4658	0	32626	
4659	0	32701	
4660	0	32545	
4661	0	32558	
4662	0	32932	
4663	0	32752	
4664	0	32496	
4665	0	32416	
4666	0	32337	
4667	0	32457	
4668	0	32620	
4669	0	32848	
4670	0	32872	
4671	0	32970	
4672	0	32910	
4673	0	32878	
4674	0	32900	
4675	0	32840	
4676	0	32640	
4677	0	32868	
4678	0	32897	
4679	0	32762	
4680	0	32836	
4681	0	32960	
4682	0	32870	
4683	0	32848	
4684	0	32752	
4685	0	32610	
4686	0	32566	
4687	0	32434	
4688	0	32560	
4689	0	32620	
4690	0	32977	
4691	0	32722	
4692	0	32699	
4693	0	32774	
4694	0	32672	
4695	0	32632	
4696	0	32585	
4697	0	32720	
4698	0	32712	
4699	0	32594	
4700	0	32624	
4701	0	32824	
4702	0	32801	
4703	0	32688	
4704	0	32608	
4705	0	32574	
4706	0	32756	
4707	0	32708	
4708	0	32786	
4709	0	32884	
4710	0	32924	
4711	0	33210	
4712	0	32990	
4713	0	32818	
4714	0	32996	
4715	0	32786	
4716	0	32707	
4717	0	32692	
4718	0	32683	
4719	0	32504	
4720	0	32720	
4721	0	32752	
4722	0	32676	
4723	0	32748	
4724	0	32908	
4725	0	32872	
4726	0	32772	
4727	0	32708	
4728	0	32652	
4729	0	32530	
4730	0	32800	
4731	0	32940	
4732	0	32858	
4733	0	32854	
4734	0	32696	
4735	0	32634	
4736	0	32805	
4737	0	32596	
4738	0	32404	
4739	0	32636	
4740	0	32613	
4741	0	32708	
4742	0	32950	
4743	0	32765	
4744	0	32635	
4745	0	32740	
4746	0	32690	
4747	0	32610	
4748	0	32688	
4749	0	32656	
4750	0	32744	
4751	0	33008	
4752	0	33035	
4753	0	32832	
4754	0	32964	
4755	0	32760	
4756	0	32452	
4757	0	32472	
4758	0	32654	
4759	0	32808	
4760	0	32817	
4761	0	32752	
4762	0	32805	
4763	0	32820	
4764	0	32668	
4765	0	32680	
4766	0	32756	
4767	0	32608	
4768	0	32328	
4769	0	32644	
4770	0	32704	
4771	0	32776	
4772	0	33052	
4773	0	32888	
4774	0	32432	
4775	0	32659	
4776	0	32682	
4777	0	32664	
4778	0	32818	
4779	0	32746	
4780	0	32728	
4781	0	32965	
4782	0	33057	
4783	0	32760	
4784	0	32888	
4785	0	32918	
4786	0	32670	
4787	0	32554	
4788	0	32796	
4789	0	32652	
4790	0	32544	
4791	0	32740	
4792	0	32764	
4793	0	32884	
4794	0	32824	
4795	0	32620	
4796	0	32348	
4797	0	32526	
4798	0	32700	
4799	0	32800	
4800	0	32757	
4801	0	32688	
4802	0	32522	
4803	0	32624	
4804	0	32875	
4805	0	32787	
4806	0	32788	
4807	0	32756	
4808	0	32573	
4809	0	32848	
4810	0	32916	
4811	0	32876	
4812	0	33051	
4813	0	33224	
4814	0	32880	
4815	0	32836	
4816	0	32866	
4817	0	32618	
4818	0	32600	
4819	0	32662	
4820	0	32604	
4821	0	32696	
4822	0	32853	
4823	0	32680	
4824	0	32494	
4825	0	32836	
4826	0	32544	
4827	0	32460	
4828	0	32726	
4829	0	32940	
4830	0	32832	
4831	0	32820	
4832	0	33032	
4833	0	32931	
4834	0	33025	
4835	0	32872	
4836	0	32636	
4837	0	32560	
4838	0	32648	
4839	0	32684	
4840	0	32654	
4841	0	32712	
4842	0	32708	
4843	0	32938	
4844	0	32900	
4845	0	32466	
4846	0	32480	
4847	0	32502	
4848	0	32556	
4849	0	32768	
4850	0	32816	
4851	0	32752	
4852	0	32856	
4853	0	32900	
4854	0	32897	
4855	0	32908	
4856	0	32718	
4857	0	32420	
4858	0	32664	
4859	0	33088	
4860	0	32752	
4861	0	32608	
4862	0	32820	
4863	0	32746	
4864	0	32632	
4865	0	32714	
4866	0	32768	
4867	0	32708	
4868	0	32736	
4869	0	32596	
4870	0	32652	
4871	0	32972	
4872	0	32778	
4873	0	32746	
4874	0	32892	
4875	0	32728	
4876	0	32624	
4877	0	32780	
4878	0	32780	
4879	0	32461	
4880	0	32514	
4881	0	32681	
4882	0	32936	
4883	0	32965	
4884	0	33042	
4885	0	32852	
4886	0	32774	
4887	0	32756	
4888	0	32792	
4889	0	32700	
4890	0	32748	
4891	0	32596	
4892	0	32708	
4893	0	32960	
4894	0	32800	
4895	0	32662	
4896	0	32633	
4897	0	32534	
4898	0	32448	
4899	0	32509	
4900	0	32640	
4901	0	32768	
4902	0	32876	
4903	0	32834	
4904	0	32723	
4905	0	33058	
4906	0	32958	
4907	0	32733	
4908	0	32585	
4909	0	32514	
4910	0	32584	
4911	0	32796	
4912	0	32890	
4913	0	32726	
4914	0	32900	
4915	0	32892	
4916	0	32612	
4917	0	32588	
4918	0	32600	
4919	0	32544	
4920	0	32739	
4921	0	32742	
4922	0	32688	
4923	0	32939	
4924	0	33028	
4925	0	32732	
4926	0	32745	
4927	0	32784	
4928	0	32580	
4929	0	32610	
4930	0	32568	
4931	0	32516	
4932	0	32644	
4933	0	32882	
4934	0	32866	
4935	0	32882	
4936	0	32888	
4937	0	32562	
4938	0	32446	
4939	0	32598	
4940	0	32642	
4941	0	32920	
4942	0	33022	
4943	0	32836	
4944	0	32808	
4945	0	32840	
4946	0	32774	
4947	0	32793	
4948	0	32910	
4949	0	32668	
4950	0	32584	
4951	0	32704	
4952	0	32702	
4953	0	32764	
4954	0	33026	
4955	0	32682	
4956	0	32610	
4957	0	32858	
4958	0	32652	
4959	0	32442	
4960	0	32770	
4961	0	33052	
4962	0	32940	
4963	0	33076	
4964	0	32972	
4965	0	32848	
4966	0	32836	
4967	0	32730	
4968	0	32502	
4969	0	32534	
4970	0	32709	
4971	0	32666	
4972	0	32577	
4973	0	32874	
4974	0	32784	
4975	0	32652	
4976	0	32612	
4977	0	32641	
4978	0	32552	
4979	0	32536	
4980	0	32432	
4981	0	32584	
4982	0	32936	
4983	0	32836	
4984	0	32902	
4985	0	32794	
4986	0	32444	
4987	0	32380	
4988	0	32644	
4989	0	32704	
4990	0	32750	
4991	0	32904	
4992	0	33124	
4993	0	33108	
4994	0	33046	
4995	0	32878	
4996	0	32764	
4997	0	32775	
4998	0	32818	
4999	0	32752	
5000	0	32829	
5001	0	32820	
5002	0	32726	
5003	0	32893	
5004	0	32772	
5005	0	32460	
5006	0	32340	
5007	0	32392	
5008	0	32472	
5009	0	32603	
5010	0	32640	
5011	0	32762	
5012	0	32804	
5013	0	32822	
5014	0	32789	
5015	0	32922	
5016	0	32732	
5017	0	32568	
5018	0	32661	
5019	0	32860	
5020	0	32852	
5021	0	32988	
5022	0	33089	
5023	0	33330	
5024	0	32956	
5025	0	32906	
5026	0	32780	
5027	0	32728	
5028	0	32932	
5029	0	32688	
5030	0	32413	
5031	0	32586	
5032	0	32504	
5033	0	32370	
5034	0	32512	
5035	0	32427	
5036	0	32336	
5037	0	32463	
5038	0	32448	
5039	0	32448	
5040	0	32794	
5041	0	32920	
5042	0	33029	
5043	0	33188	
5044	0	33220	
5045	0	32948	
5046	0	32892	
5047	0	32928	
5048	0	32814	
5049	0	32962	
5050	0	33200	
5051	0	32952	
5052	0	32834	
5053	0	32674	
5054	0	32450	
5055	0	32524	
5056	0	32472	
5057	0	32296	
5058	0	32406	
5059	0	32554	
5060	0	32312	
5061	0	32578	
5062	0	32912	
5063	0	32828	
5064	0	32701	
5065	0	32782	
5066	0	32720	
5067	0	32534	
5068	0	32680	
5069	0	32912	
5070	0	32942	
5071	0	32930	
5072	0	32960	
5073	0	32884	
5074	0	33084	
5075	0	32768	
5076	0	32660	
5077	0	32654	
5078	0	32737	
5079	0	32668	
5080	0	32774	
5081	0	32864	
5082	0	32736	
5083	0	32708	
5084	0	32910	
5085	0	32696	
5086	0	32546	
5087	0	32530	
5088	0	32510	
5089	0	32610	
5090	0	32738	
5091	0	32750	
5092	0	32866	
5093	0	32973	
5094	0	32682	
5095	0	32670	
5096	0	32760	
5097	0	32708	
5098	0	32617	
5099	0	32632	
5100	0	32610	
5101	0	32708	
5102	0	32992	
5103	0	33030	
5104	0	32933	
5105	0	32804	
5106	0	32480	
5107	0	32558	
5108	0	32620	
5109	0	32592	
5110	0	32586	
5111	0	32708	
5112	0	32848	
5113	0	32726	
5114	0	32904	
5115	0	32836	
5116	0	32646	
5117	0	32642	
5118	0	32680	
5119	0	32844	
5120	0	32800	
5121	0	32746	
5122	0	32810	
5123	0	32936	
5124	0	32792	
5125	0	32712	
5126	0	32829	
5127	0	32672	
5128	0	32514	
5129	0	32484	
5130	0	32696	
5131	0	32736	
5132	0	32926	
5133	0	32921	
5134	0	32712	
5135	0	32784	
5136	0	32694	
5137	0	32640	
5138	0	32786	
5139	0	32872	
5140	0	32716	
5141	0	32748	
5142	0	33044	
5143	0	32744	
5144	0	32596	
5145	0	32852	
5146	0	32617	
5147	0	32404	
5148	0	32592	
5149	0	32584	
5150	0	32746	
5151	0	32816	
5152	0	32708	
5153	0	32780	
5154	0	33108	
5155	0	32892	
5156	0	32688	
5157	0	32740	
5158	0	32862	
5159	0	32646	
5160	0	32777	
5161	0	32874	
5162	0	32718	
5163	0	32728	
5164	0	32860	
5165	0	32676	
5166	0	32768	
5167	0	32644	
5168	0	32504	
5169	0	32656	
5170	0	32714	
5171	0	32786	
5172	0	32890	
5173	0	32988	
5174	0	32688	
5175	0	32604	
5176	0	32602	
5177	0	32572	
5178	0	32662	
5179	0	32760	
5180	0	32712	
5181	0	32730	
5182	0	32852	
5183	0	32780	
5184	0	32824	
5185	0	32932	
5186	0	32784	
5187	0	32620	
5188	0	32568	
5189	0	32699	
5190	0	32754	
5191	0	32876	
5192	0	33024	
5193	0	33006	
5194	0	33044	
5195	0	32774	
5196	0	32614	
5197	0	32536	
5198	0	32472	
5199	0	32514	
5200	0	32712	
5201	0	32793	
5202	0	32744	
5203	0	32850	
5204	0	32754	
5205	0	32512	
5206	0	32640	
5207	0	32632	
5208	0	32608	
5209	0	32898	
5210	0	32892	
5211	0	32868	
5212	0	32941	
5213	0	33021	
5214	0	33020	
5215	0	32864	
5216	0	32632	
5217	0	32386	
5218	0	32526	
5219	0	32674	
5220	0	32583	
5221	0	32672	
5222	0	32966	
5223	0	32804	
5224	0	32739	
5225	0	32618	
5226	0	32520	
5227	0	32613	
5228	0	32774	
5229	0	32640	
5230	0	32838	
5231	0	33192	
5232	0	32932	
5233	0	32780	
5234	0	32894	
5235	0	32828	
5236	0	32608	
5237	0	32450	
5238	0	32626	
5239	0	32656	
5240	0	32672	
5241	0	32764	
5242	0	32648	
5243	0	32698	
5244	0	32816	
5245	0	32584	
5246	0	32758	
5247	0	32786	
5248	0	32797	
5249	0	32830	
5250	0	33014	
5251	0	32792	
5252	0	32732	
5253	0	33061	
5254	0	33008	
5255	0	32788	
5256	0	32594	
5257	0	32712	
5258	0	32775	
5259	0	32864	
5260	0	32712	
5261	0	32260	
5262	0	32128	
5263	0	32262	
5264	0	32608	
5265	0	33244	
5266	0	33484	
5267	0	33316	
5268	0	32938	
5269	0	32192	
5270	0	32172	
5271	0	32304	
5272	0	32462	
5273	0	32840	
5274	0	33440	
5275	0	32996	
5276	0	32756	
5277	0	32730	
5278	0	32507	
5279	0	32340	
5280	0	32533	
5281	0	32874	
5282	0	32844	
5283	0	32922	
5284	0	32844	
5285	0	32538	
5286	0	32568	
5287	0	32522	
5288	0	32618	
5289	0	32946	
5290	0	32926	
5291	0	32824	
5292	0	33118	
5293	0	32976	
5294	0	32804	
5295	0	32708	
5296	0	32704	
5297	0	32748	
5298	0	32636	
5299	0	32584	
5300	0	32588	
5301	0	32824	
5302	0	32926	
5303	0	32716	
5304	0	32736	
5305	0	33004	
5306	0	32699	
5307	0	32676	
5308	0	32888	
5309	0	32660	
5310	0	32441	
5311	0	32670	
5312	0	32722	
5313	0	32684	
5314	0	32806	
5315	0	32852	
5316	0	32592	
5317	0	32570	
5318	0	32464	
5319	0	32456	
5320	0	32672	
5321	0	32844	
5322	0	32682	
5323	0	32762	
5324	0	32852	
5325	0	32720	
5326	0	32728	
5327	0	32984	
5328	0	32741	
5329	0	32698	
5330	0	32845	
5331	0	32876	
5332	0	32874	
5333	0	32900	
5334	0	32996	
5335	0	33007	
5336	0	32746	
5337	0	32578	
5338	0	32658	
5339	0	32716	
5340	0	32666	
5341	0	32577	
5342	0	32736	
5343	0	32740	
5344	0	32578	
5345	0	32552	
5346	0	32534	
5347	0	32706	
5348	0	32728	
5349	0	32614	
5350	0	32713	
5351	0	32816	
5352	0	32724	
5353	0	32656	
5354	0	32880	
5355	0	32858	
5356	0	32664	
5357	0	32580	
5358	0	32604	
5359	0	32720	
5360	0	32717	
5361	0	32768	
5362	0	33001	
5363	0	32948	
5364	0	32884	
5365	0	32866	
5366	0	33088	
5367	0	32864	
5368	0	32744	
5369	0	32866	
5370	0	32820	
5371	0	32720	
5372	0	32760	
5373	0	32792	
5374	0	32496	
5375	0	32672	
5376	0	32670	
5377	0	32336	
5378	0	32460	
5379	0	32396	
5380	0	32336	
5381	0	32572	
5382	0	32772	
5383	0	32800	
5384	0	32972	
5385	0	32876	
5386	0	32718	
5387	0	32820	
5388	0	33100	
5389	0	32928	
5390	0	32856	
5391	0	32980	
5392	0	32736	
5393	0	32658	
5394	0	32905	
5395	0	32813	
5396	0	32808	
5397	0	32760	
5398	0	32668	
5399	0	32500	
5400	0	32692	
5401	0	32672	
5402	0	32690	
5403	0	32914	
5404	0	32768	
5405	0	32464	
5406	0	32482	
5407	0	32658	
5408	0	32576	
5409	0	32768	
5410	0	32852	
5411	0	32701	
5412	0	32928	
5413	0	32897	
5414	0	32696	
5415	0	32772	
5416	0	32856	
5417	0	32616	
5418	0	32600	
5419	0	32852	
5420	0	32632	
5421	0	32728	
5422	0	32904	
5423	0	32669	
5424	0	32868	
5425	0	33048	
5426	0	32730	
5427	0	32634	
5428	0	32805	
5429	0	32955	
5430	0	32964	
5431	0	32988	
5432	0	32808	
5433	0	32755	
5434	0	32928	
5435	0	32718	
5436	0	32390	
5437	0	32502	
5438	0	32552	
5439	0	32525	
5440	0	32668	
5441	0	32737	
5442	0	32768	
5443	0	32976	
5444	0	32857	
5445	0	32768	
5446	0	32728	
5447	0	32588	
5448	0	32692	
5449	0	33036	
5450	0	32925	
5451	0	32748	
5452	0	32929	
5453	0	33028	
5454	0	32738	
5455	0	32730	
5456	0	32680	
5457	0	32545	
5458	0	32598	
5459	0	32720	
5460	0	32617	
5461	0	32500	
5462	0	32545	
5463	0	32644	
5464	0	32906	
5465	0	32892	
5466	0	32566	
5467	0	32436	
5468	0	32685	
5469	0	32746	
5470	0	32824	
5471	0	32954	
5472	0	32752	
5473	0	32768	
5474	0	32793	
5475	0	32676	
5476	0	32564	
5477	0	32656	
5478	0	32572	
5479	0	32540	
5480	0	32768	
5481	0	32662	
5482	0	32653	
5483	0	32928	
5484	0	33052	
5485	0	32828	
5486	0	32818	
5487	0	32880	
5488	0	32682	
5489	0	32676	
5490	0	32914	
5491	0	32765	
5492	0	33022	
5493	0	32842	
5494	0	32792	
5495	0	33016	
5496	0	32858	
5497	0	32484	
5498	0	32564	
5499	0	32720	
5500	0	32496	
5501	0	32664	
5502	0	32692	
5503	0	32672	
5504	0	32736	
5505	0	32800	
5506	0	32689	
5507	0	32604	
5508	0	32631	
5509	0	32545	
5510	0	32660	
5511	0	33012	
5512	0	33130	
5513	0	33106	
5514	0	32897	
5515	0	32624	
5516	0	32400	
5517	0	32646	
5518	0	32544	
5519	0	32558	
5520	0	32670	
5521	0	32804	
5522	0	32752	
5523	0	32868	
5524	0	32744	
5525	0	32728	
5526	0	32793	
5527	0	32584	
5528	0	32573	
5529	0	32922	
5530	0	32968	
5531	0	32852	
5532	0	32956	
5533	0	33152	
5534	0	32784	
5535	0	32585	
5536	0	32596	
5537	0	32563	
5538	0	32690	
5539	0	32664	
5540	0	32602	
5541	0	32716	
5542	0	32874	
5543	0	32608	
5544	0	32713	
5545	0	32801	
5546	0	32705	
5547	0	32716	
5548	0	32854	
5549	0	32676	
5550	0	32656	
5551	0	32864	
5552	0	32760	
5553	0	32931	
5554	0	32852	
5555	0	32706	
5556	0	32509	
5557	0	32558	
5558	0	32490	
5559	0	32642	
5560	0	32929	
5561	0	32602	
5562	0	32424	
5563	0	32795	
5564	0	32868	
5565	0	32810	
5566	0	32864	
5567	0	32840	
5568	0	32660	
5569	0	32812	
5570	0	32876	
5571	0	32848	
5572	0	33152	
5573	0	33082	
5574	0	32764	
5575	0	32738	
5576	0	32897	
5577	0	32676	
5578	0	32470	
5579	0	32613	
5580	0	32636	
5581	0	32584	
5582	0	32690	
5583	0	32756	
5584	0	32729	
5585	0	32656	
5586	0	32384	
5587	0	32686	
5588	0	32793	
5589	0	32669	
5590	0	32845	
5591	0	32928	
5592	0	32864	
5593	0	32916	
5594	0	33012	
5595	0	32813	
5596	0	32608	
5597	0	32699	
5598	0	32668	
5599	0	32711	
5600	0	32906	
5601	0	32696	
5602	0	32688	
5603	0	32996	
5604	0	32804	
5605	0	32742	
5606	0	32764	
5607	0	32632	
5608	0	32456	
5609	0	32626	
5610	0	32796	
5611	0	32813	
5612	0	32924	
5613	0	32908	
5614	0	32508	
5615	0	32550	
5616	0	32756	
5617	0	32628	
5618	0	32696	
5619	0	32606	
5620	0	32586	
5621	0	32768	
5622	0	32732	
5623	0	32580	
5624	0	32708	
5625	0	32841	
5626	0	32528	
5627	0	32642	
5628	0	32777	
5629	0	32626	
5630	0	32857	
5631	0	32933	
5632	0	32902	
5633	0	33110	
5634	0	33177	
5635	0	33016	
5636	0	32850	
5637	0	32812	
5638	0	32646	
5639	0	32540	
5640	0	32746	
5641	0	32796	
5642	0	32608	
5643	0	32676	
5644	0	32668	
5645	0	32482	
5646	0	32682	
5647	0	32504	
5648	0	32224	
5649	0	32472	
5650	0	32674	
5651	0	32728	
5652	0	33104	
5653	0	33018	
5654	0	33116	
5655	0	33122	
5656	0	32850	
5657	0	32736	
5658	0	32772	
5659	0	32857	
5660	0	32780	
5661	0	32948	
5662	0	32937	
5663	0	32828	
5664	0	32784	
5665	0	32576	
5666	0	32406	
5667	0	32472	
5668	0	32350	
5669	0	32370	
5670	0	32659	
5671	0	32720	
5672	0	32507	
5673	0	32988	
5674	0	33220	
5675	0	32854	
5676	0	32777	
5677	0	32660	
5678	0	32544	
5679	0	32583	
5680	0	32802	
5681	0	32865	
5682	0	32904	
5683	0	32942	
5684	0	32729	
5685	0	32728	
5686	0	32760	
5687	0	32648	
5688	0	32476	
5689	0	32644	
5690	0	32696	
5691	0	32486	
5692	0	32842	
5693	0	33044	
5694	0	33035	
5695	0	33068	
5696	0	32845	
5697	0	32700	
5698	0	32820	
5699	0	32516	
5700	0	32102	
5701	0	32254	
5702	0	32560	
5703	0	32542	
5704	0	32804	
5705	0	32992	
5706	0	32857	
5707	0	32802	
5708	0	32789	
5709	0	32646	
5710	0	32508	
5711	0	32696	
5712	0	32826	
5713	0	32938	
5714	0	33248	
5715	0	33075	
5716	0	33120	
5717	0	33072	
5718	0	32763	
5719	0	32676	
5720	0	32700	
5721	0	32697	
5722	0	32630	
5723	0	32933	
5724	0	32728	
5725	0	32352	
5726	0	32458	
5727	0	32320	
5728	0	32440	
5729	0	32778	
5730	0	32746	
5731	0	32857	
5732	0	32957	
5733	0	32854	
5734	0	32848	
5735	0	32916	
5736	0	32729	
5737	0	32728	
5738	0	32760	
5739	0	32724	
5740	0	32696	
5741	0	32801	
5742	0	32793	
5743	0	32820	
5744	0	33016	
5745	0	32635	
5746	0	32444	
5747	0	32690	
5748	0	32576	
5749	0	32486	
5750	0	32640	
5751	0	32692	
5752	0	32831	
5753	0	33040	
5754	0	32962	
5755	0	32664	
5756	0	32770	
5757	0	32736	
5758	0	32476	
5759	0	32720	
5760	0	32763	
5761	0	32689	
5762	0	32792	
5763	0	32872	
5764	0	32714	
5765	0	32600	
5766	0	32620	
5767	0	32572	
5768	0	32653	
5769	0	32692	
5770	0	32600	
5771	0	32424	
5772	0	32716	
5773	0	32940	
5774	0	32903	
5775	0	33174	
5776	0	32976	
5777	0	32778	
5778	0	32906	
5779	0	32762	
5780	0	32600	
5781	0	32897	
5782	0	32916	
5783	0	32640	
5784	0	32696	
5785	0	32682	
5786	0	32569	
5787	0	32330	
5788	0	32490	
5789	0	32668	
5790	0	32716	
5791	0	32812	
5792	0	32797	
5793	0	33072	
5794	0	33042	
5795	0	32634	
5796	0	32368	
5797	0	32478	
5798	0	32989	
5799	0	33115	
5800	0	33110	
5801	0	33092	
5802	0	33218	
5803	0	33060	
5804	0	32637	
5805	0	32096	
5806	0	31818	
5807	0	31884	
5808	0	32204	
5809	0	32468	
5810	0	32862	
5811	0	33076	
5812	0	33176	
5813	0	33146	
5814	0	32938	
5815	0	33144	
5816	0	32840	
5817	0	32848	
5818	0	32787	
5819	0	32690	
5820	0	32774	
5821	0	32768	
5822	0	32600	
5823	0	32524	
5824	0	32766	
5825	0	32832	
5826	0	32440	
5827	0	32604	
5828	0	32570	
5829	0	32576	
5830	0	32812	
5831	0	32848	
5832	0	32772	
5833	0	32831	
5834	0	32925	
5835	0	32752	
5836	0	32630	
5837	0	32564	
5838	0	32749	
5839	0	32953	
5840	0	32857	
5841	0	32756	
5842	0	32836	
5843	0	33056	
5844	0	32892	
5845	0	32770	
5846	0	32938	
5847	0	32539	
5848	0	32390	
5849	0	32417	
5850	0	32540	
5851	0	32812	
5852	0	32820	
5853	0	32674	
5854	0	32732	
5855	0	32874	
5856	0	32836	
5857	0	32602	
5858	0	32613	
5859	0	32740	
5860	0	32712	
5861	0	32765	
5862	0	32867	
5863	0	32836	
5864	0	32928	
5865	0	32793	
5866	0	32736	
5867	0	32793	
5868	0	32712	
5869	0	32754	
5870	0	32897	
5871	0	32920	
5872	0	32672	
5873	0	32999	
5874	0	32980	
5875	0	32891	
5876	0	32900	
5877	0	32618	
5878	0	32656	
5879	0	32730	
5880	0	32704	
5881	0	32667	
5882	0	32552	
5883	0	32741	
5884	0	32768	
5885	0	32732	
5886	0	32724	
5887	0	32272	
5888	0	32379	
5889	0	32744	
5890	0	32726	
5891	0	32795	
5892	0	33152	
5893	0	32964	
5894	0	32882	
5895	0	32857	
5896	0	32696	
5897	0	32662	
5898	0	32828	
5899	0	32864	
5900	0	32921	
5901	0	32955	
5902	0	32928	
5903	0	33044	
5904	0	33240	
5905	0	32793	
5906	0	32512	
5907	0	32448	
5908	0	32384	
5909	0	32240	
5910	0	32484	
5911	0	32642	
5912	0	32576	
5913	0	32592	
5914	0	32766	
5915	0	32728	
5916	0	32856	
5917	0	32794	
5918	0	32716	
5919	0	32936	
5920	0	32948	
5921	0	32800	
5922	0	32897	
5923	0	33044	
5924	0	33006	
5925	0	32829	
5926	0	32706	
5927	0	32536	
5928	0	32377	
5929	0	32549	
5930	0	32545	
5931	0	32710	
5932	0	33032	
5933	0	33120	
5934	0	32878	
5935	0	32736	
5936	0	32622	
5937	0	32602	
5938	0	32674	
5939	0	32752	
5940	0	32632	
5941	0	32728	
5942	0	32682	
5943	0	32588	
5944	0	32708	
5945	0	32616	
5946	0	32608	
5947	0	32714	
5948	0	32704	
5949	0	32664	
5950	0	32907	
5951	0	33172	
5952	0	33100	
5953	0	33298	
5954	0	33024	
5955	0	32850	
5956	0	32946	
5957	0	32832	
5958	0	32712	
5959	0	32588	
5960	0	32566	
5961	0	32370	
5962	0	32545	
5963	0	32634	
5964	0	32456	
5965	0	32617	
5966	0	32548	
5967	0	32440	
5968	0	32707	
5969	0	32748	
5970	0	32548	
5971	0	32820	
5972	0	33152	
5973	0	32986	
5974	0	33050	
5975	0	32897	
5976	0	32728	
5977	0	32732	
5978	0	32775	
5979	0	32649	
5980	0	32686	
5981	0	32775	
5982	0	32768	
5983	0	32736	
5984	0	33044	
5985	0	32775	
5986	0	32540	
5987	0	32706	
5988	0	32728	
5989	0	32317	
5990	0	32556	
5991	0	32782	
5992	0	32820	
5993	0	33032	
5994	0	33049	
5995	0	32827	
5996	0	32938	
5997	0	32576	
5998	0	32320	
5999	0	32306	
6000	0	32486	
6001	0	32452	
6002	0	32882	
6003	0	33006	
6004	0	32744	
6005	0	32732	
6006	0	32808	
6007	0	32656	
6008	0	32665	
6009	0	32888	
6010	0	32704	
6011	0	32817	
6012	0	33026	
6013	0	33208	
6014	0	33213	
6015	0	33218	
6016	0	32760	
6017	0	32348	
6018	0	32425	
6019	0	32232	
6020	0	32473	
6021	0	32640	
6022	0	32659	
6023	0	32652	
6024	0	32616	
6025	0	32682	
6026	0	32736	
6027	0	32880	
6028	0	32857	
6029	0	33005	
6030	0	33192	
6031	0	32982	
6032	0	33096	
6033	0	32940	
6034	0	32680	
6035	0	32430	
6036	0	32496	
6037	0	32379	
6038	0	32138	
6039	0	32308	
6040	0	32532	
6041	0	32558	
6042	0	32704	
6043	0	32969	
6044	0	32910	
6045	0	32852	
6046	0	33040	
6047	0	32978	
6048	0	33160	
6049	0	33243	
6050	0	32893	
6051	0	32715	
6052	0	32744	
6053	0	32792	
6054	0	32782	
6055	0	32762	
6056	0	32609	
6057	0	32390	
6058	0	32345	
6059	0	32402	
6060	0	32616	
6061	0	32832	
6062	0	32696	
6063	0	32772	
6064	0	32889	
6065	0	32788	
6066	0	32740	
6067	0	32960	
6068	0	32884	
6069	0	32628	
6070	0	32721	
6071	0	32706	
6072	0	32568	
6073	0	32648	
6074	0	32729	
6075	0	32672	
6076	0	32760	
6077	0	32644	
6078	0	32438	
6079	0	32840	
6080	0	32820	
6081	0	32752	
6082	0	32921	
6083	0	33004	
6084	0	32906	
6085	0	32904	
6086	0	32969	
6087	0	32945	
6088	0	32741	
6089	0	32632	
6090	0	32581	
6091	0	32518	
6092	0	32530	
6093	0	32514	
6094	0	32556	
6095	0	32736	
6096	0	32752	
6097	0	32360	
6098	0	32461	
6099	0	32292	
6100	0	32481	
6101	0	32806	
6102	0	33050	
6103	0	33160	
6104	0	33396	
6105	0	33032	
6106	0	33016	
6107	0	33011	
6108	0	32712	
6109	0	32700	
6110	0	32832	
6111	0	32744	
6112	0	32676	
6113	0	32973	
6114	0	32792	
6115	0	32668	
6116	0	32658	
6117	0	32590	
6118	0	32288	
6119	0	32392	
6120	0	32440	
6121	0	32578	
6122	0	32848	
6123	0	32988	
6124	0	32869	
6125	0	32992	
6126	0	33046	
6127	0	32676	
6128	0	32540	
6129	0	32648	
6130	0	32557	
6131	0	32744	
6132	0	32876	
6133	0	32772	
6134	0	33088	
6135	0	32964	
6136	0	32874	
6137	0	32793	
6138	0	32806	
6139	0	32636	
6140	0	32356	
6141	0	32880	
6142	0	33272	
6143	0	32832	
6144	0	32928	
6145	0	32328	
6146	0	32173	
6147	0	32136	
6148	0	32253	
6149	0	32939	
6150	0	32938	
6151	0	33146	
6152	0	32963	
6153	0	32806	
6154	0	32488	
6155	0	32380	
6156	0	32644	
6157	0	32749	
6158	0	32888	
6159	0	32960	
6160	0	32910	
6161	0	33013	
6162	0	33122	
6163	0	32929	
6164	0	32848	
6165	0	33005	
6166	0	32944	
6167	0	32608	
6168	0	32502	
6169	0	32452	
6170	0	32551	
6171	0	32481	
6172	0	32696	
6173	0	32626	
6174	0	32386	
6175	0	32664	
6176	0	32756	
6177	0	32804	
6178	0	32688	
6179	0	32488	
6180	0	32600	
6181	0	32890	
6182	0	32903	
6183	0	33072	
6184	0	32984	
6185	0	32816	
6186	0	32864	
6187	0	32848	
6188	0	32644	
6189	0	32470	
6190	0	32561	
6191	0	32616	
6192	0	32608	
6193	0	32854	
6194	0	33208	
6195	0	32994	
6196	0	32928	
6197	0	32444	
6198	0	32486	
6199	0	32836	
6200	0	32660	
6201	0	32522	
6202	0	33116	
6203	0	32962	
6204	0	32880	
6205	0	32908	
6206	0	32580	
6207	0	32390	
6208	0	32320	
6209	0	32296	
6210	0	32672	
6211	0	32870	
6212	0	32848	
6213	0	32586	
6214	0	32774	
6215	0	32972	
6216	0	32648	
6217	0	32456	
6218	0	32739	
6219	0	32748	
6220	0	32840	
6221	0	33034	
6222	0	33032	
6223	0	32820	
6224	0	32768	
6225	0	32652	
6226	0	32484	
6227	0	32532	
6228	0	32580	
6229	0	32808	
6230	0	33065	
6231	0	32738	
6232	0	32651	
6233	0	32968	
6234	0	32844	
6235	0	32676	
6236	0	32574	
6237	0	32628	
6238	0	32780	
6239	0	32980	
6240	0	33021	
6241	0	32627	
6242	0	32694	
6243	0	32568	
6244	0	32233	
6245	0	32472	
6246	0	32589	
6247	0	32517	
6248	0	32797	
6249	0	32856	
6250	0	32768	
6251	0	32916	
6252	0	32843	
6253	0	32812	
6254	0	33025	
6255	0	32918	
6256	0	32844	
6257	0	32948	
6258	0	32962	
6259	0	33046	
6260	0	32992	
6261	0	32747	
6262	0	32586	
6263	0	32622	
6264	0	32852	
6265	0	32620	
6266	0	32504	
6267	0	32512	
6268	0	32445	
6269	0	32492	
6270	0	32520	
6271	0	32609	
6272	0	32916	
6273	0	32876	
6274	0	32820	
6275	0	32816	
6276	0	32924	
6277	0	32705	
6278	0	32509	
6279	0	32688	
6280	0	32758	
6281	0	32748	
6282	0	32912	
6283	0	32860	
6284	0	32826	
6285	0	32984	
6286	0	32782	
6287	0	32450	
6288	0	32562	
6289	0	32740	
6290	0	32696	
6291	0	32730	
6292	0	33060	
6293	0	32936	
6294	0	33020	
6295	0	32820	
6296	0	32612	
6297	0	32554	
6298	0	32800	
6299	0	32736	
6300	0	32640	
6301	0	32752	
6302	0	32468	
6303	0	32650	
6304	0	32793	
6305	0	32464	
6306	0	32448	
6307	0	32540	
6308	0	32398	
6309	0	32606	
6310	0	32840	
6311	0	32930	
6312	0	32891	
6313	0	32960	
6314	0	32892	
6315	0	32768	
6316	0	32945	
6317	0	32708	
6318	0	32848	
6319	0	32968	
6320	0	32658	
6321	0	32740	
6322	0	32878	
6323	0	32700	
6324	0	32760	
6325	0	32868	
6326	0	32586	
6327	0	32376	
6328	0	32664	
6329	0	32580	
6330	0	32484	
6331	0	32568	
6332	0	32710	
6333	0	32928	
6334	0	33048	
6335	0	32764	
6336	0	32668	
6337	0	32772	
6338	0	32720	
6339	0	32467	
6340	0	32660	
6341	0	32844	
6342	0	32602	
6343	0	32687	
6344	0	33005	
6345	0	32813	
6346	0	32857	
6347	0	32956	
6348	0	32756	
6349	0	32736	
6350	0	32722	
6351	0	32756	
6352	0	33018	
6353	0	33162	
6354	0	32969	
6355	0	32805	
6356	0	32893	
6357	0	32737	
6358	0	32453	
6359	0	32568	
6360	0	32516	
6361	0	32412	
6362	0	32550	
6363	0	32724	
6364	0	32800	
6365	0	32678	
6366	0	32504	
6367	0	32334	
6368	0	32576	
6369	0	32680	
6370	0	32650	
6371	0	33052	
6372	0	33133	
6373	0	33228	
6374	0	33448	
6375	0	32996	
6376	0	32672	
6377	0	32165	
6378	0	32148	
6379	0	32634	
6380	0	32888	
6381	0	33376	
6382	0	33216	
6383	0	33180	
6384	0	32878	
6385	0	32336	
6386	0	32321	
6387	0	32281	
6388	0	32292	
6389	0	32544	
6390	0	32878	
6391	0	32736	
6392	0	32768	
6393	0	33056	
6394	0	32848	
6395	0	32504	
6396	0	32472	
6397	0	32390	
6398	0	32584	
6399	0	32766	
6400	0	32650	
6401	0	32760	
6402	0	33160	
6403	0	32754	
6404	0	32800	
6405	0	33518	
6406	0	33108	
6407	0	32560	
6408	0	32774	
6409	0	33064	
6410	0	32712	
6411	0	32556	
6412	0	32744	
6413	0	32896	
6414	0	32816	
6415	0	32534	
6416	0	32597	
6417	0	32770	
6418	0	32172	
6419	0	32072	
6420	0	32736	
6421	0	33072	
6422	0	32622	
6423	0	32506	
6424	0	33174	
6425	0	32985	
6426	0	32432	
6427	0	32533	
6428	0	32936	
6429	0	33234	
6430	0	32560	
6431	0	32504	
6432	0	33076	
6433	0	33468	
6434	0	32704	
6435	0	32512	
6436	0	32952	
6437	0	33047	
6438	0	32208	
6439	0	32100	
6440	0	32682	
6441	0	33008	
6442	0	32498	
6443	0	32316	
6444	0	32884	
6445	0	33212	
6446	0	32647	
6447	0	32216	
6448	0	32821	
6449	0	33248	
6450	0	32624	
6451	0	32408	
6452	0	32848	
6453	0	33276	
6454	0	32992	
6455	0	32534	
6456	0	32642	
6457	0	33128	
6458	0	32540	
6459	0	31986	
6460	0	32636	
6461	0	33339	
6462	0	33194	
6463	0	32790	
6464	0	32640	
6465	0	33144	
6466	0	33136	
6467	0	32624	
6468	0	32086	
6469	0	32664	
6470	0	32984	
6471	0	32162	
6472	0	32052	
6473	0	32708	
6474	0	33340	
6475	0	33006	
6476	0	32517	
6477	0	32518	
6478	0	33136	
6479	0	32890	
6480	0	32224	
6481	0	32478	
6482	0	33412	
6483	0	33234	
6484	0	32596	
6485	0	32370	
6486	0	32900	
6487	0	33188	
6488	0	32664	
6489	0	32120	
6490	0	32700	
6491	0	33172	
6492	0	32664	
6493	0	32208	
6494	0	32770	
6495	0	33144	
6496	0	32600	
6497	0	32184	
6498	0	32672	
6499	0	33234	
6500	0	32948	
6501	0	32536	
6502	0	32670	
6503	0	33402	
6504	0	33041	
6505	0	32570	
6506	0	32548	
6507	0	32960	
6508	0	32810	
6509	0	32604	
6510	0	32684	
6511	0	32612	
6512	0	32706	
6513	0	32733	
6514	0	32552	
6515	0	32618	
6516	0	32892	
6517	0	32564	
6518	0	32458	
6519	0	32660	
6520	0	32553	
6521	0	32814	
6522	0	32848	
6523	0	32782	
6524	0	32822	
6525	0	33160	
6526	0	32836	
6527	0	32586	
6528	0	32752	
6529	0	32944	
6530	0	32796	
6531	0	32840	
6532	0	32854	
6533	0	32944	
6534	0	33062	
6535	0	32796	
6536	0	32484	
6537	0	32534	
6538	0	32392	
6539	0	32504	
6540	0	32588	
6541	0	32696	
6542	0	33042	
6543	0	33140	
6544	0	32866	
6545	0	32754	
6546	0	32632	
6547	0	32232	
6548	0	32338	
6549	0	32445	
6550	0	32600	
6551	0	32656	
6552	0	32804	
6553	0	32893	
6554	0	33028	
6555	0	32992	
6556	0	32893	
6557	0	32789	
6558	0	32876	
6559	0	32834	
6560	0	32558	
6561	0	32592	
6562	0	32974	
6563	0	32956	
6564	0	32778	
6565	0	32692	
6566	0	32504	
6567	0	32680	
6568	0	32892	
6569	0	32556	
6570	0	32520	
6571	0	32714	
6572	0	32904	
6573	0	32776	
6574	0	32953	
6575	0	32984	
6576	0	32832	
6577	0	32788	
6578	0	32736	
6579	0	32736	
6580	0	32712	
6581	0	32573	
6582	0	32410	
6583	0	32664	
6584	0	32630	
6585	0	32416	
6586	0	32496	
6587	0	32532	
6588	0	32698	
6589	0	32826	
6590	0	32842	
6591	0	32749	
6592	0	33140	
6593	0	33130	
6594	0	32796	
6595	0	32828	
6596	0	33020	
6597	0	33040	
6598	0	32720	
6599	0	32332	
6600	0	32312	
6601	0	32577	
6602	0	32686	
6603	0	32485	
6604	0	32646	
6605	0	32820	
6606	0	32692	
6607	0	32744	
6608	0	32800	
6609	0	32644	
6610	0	32900	
6611	0	32920	
6612	0	32942	
6613	0	33046	
6614	0	33076	
6615	0	32924	
6616	0	32768	
6617	0	32856	
6618	0	32519	
6619	0	32320	
6620	0	32418	
6621	0	32512	
6622	0	32646	
6623	0	32640	
6624	0	32638	
6625	0	32776	
6626	0	32924	
6627	0	32778	
6628	0	32408	
6629	0	32658	
6630	0	32681	
6631	0	33068	
6632	0	33144	
6633	0	32968	
6634	0	32733	
6635	0	32936	
6636	0	32842	
6637	0	32650	
6638	0	32612	
6639	0	32652	
6640	0	32530	
6641	0	32568	
6642	0	32568	
6643	0	32560	
6644	0	33158	
6645	0	32892	
6646	0	32584	
6647	0	32854	
6648	0	32632	
6649	0	32486	
6650	0	32573	
6651	0	32692	
6652	0	32920	
6653	0	33256	
6654	0	32812	
6655	0	32736	
6656	0	32848	
6657	0	32566	
6658	0	32346	
6659	0	32587	
6660	0	32828	
6661	0	32800	
6662	0	32714	
6663	0	32480	
6664	0	32916	
6665	0	32912	
6666	0	32944	
6667	0	32612	
6668	0	32564	
6669	0	33202	
6670	0	33074	
6671	0	32736	
6672	0	32984	
6673	0	33258	
6674	0	33024	
6675	0	32884	
6676	0	32620	
6677	0	32331	
6678	0	32565	
6679	0	32502	
6680	0	32256	
6681	0	32596	
6682	0	32857	
6683	0	32536	
6684	0	32681	
6685	0	32610	
6686	0	32592	
6687	0	32707	
6688	0	33038	
6689	0	32828	
6690	0	33294	
6691	0	33287	
6692	0	33180	
6693	0	33026	
6694	0	32886	
6695	0	32638	
6696	0	32704	
6697	0	32621	
6698	0	32432	
6699	0	32533	
6700	0	32546	
6701	0	32477	
6702	0	32440	
6703	0	32470	
6704	0	32447	
6705	0	32578	
6706	0	32672	
6707	0	32664	
6708	0	32644	
6709	0	32949	
6710	0	32672	
6711	0	32718	
6712	0	32992	
6713	0	33248	
6714	0	33032	
6715	0	32916	
6716	0	32688	
6717	0	32553	
6718	0	32628	
6719	0	32762	
6720	0	32662	
6721	0	32663	
6722	0	32531	
6723	0	32568	
6724	0	32796	
6725	0	33005	
6726	0	32754	
6727	0	32883	
6728	0	32754	
6729	0	32648	
6730	0	32944	
6731	0	33058	
6732	0	32754	
6733	0	32976	
6734	0	32973	
6735	0	32754	
6736	0	32640	
6737	0	32612	
6738	0	32329	
6739	0	32430	
6740	0	32490	
6741	0	32481	
6742	0	32676	
6743	0	32844	
6744	0	32800	
6745	0	32744	
6746	0	33052	
6747	0	32858	
6748	0	32670	
6749	0	33054	
6750	0	33092	
6751	0	32840	
6752	0	32886	
6753	0	32928	
6754	0	32976	
6755	0	32901	
6756	0	32424	
6757	0	32128	
6758	0	32362	
6759	0	32360	
6760	0	32448	
6761	0	32628	
6762	0	32804	
6763	0	32824	
6764	0	32989	
6765	0	33158	
6766	0	33061	
6767	0	33185	
6768	0	32764	
6769	0	32576	
6770	0	32724	
6771	0	33048	
6772	0	32946	
6773	0	32808	
6774	0	33048	
6775	0	32658	
6776	0	32433	
6777	0	32452	
6778	0	32066	
6779	0	32352	
6780	0	32585	
6781	0	32564	
6782	0	32598	
6783	0	32795	
6784	0	32801	
6785	0	32860	
6786	0	32882	
6787	0	32882	
6788	0	32820	
6789	0	32872	
6790	0	32672	
6791	0	32685	
6792	0	32970	
6793	0	32900	
6794	0	32972	
6795	0	33038	
6796	0	32886	
6797	0	32544	
6798	0	32476	
6799	0	32522	
6800	0	32644	
6801	0	32864	
6802	0	32814	
6803	0	32629	
6804	0	33196	
6805	0	32976	
6806	0	32517	
6807	0	32444	
6808	0	32537	
6809	0	32270	
6810	0	32593	
6811	0	33136	
6812	0	33098	
6813	0	33204	
6814	0	33088	
6815	0	32674	
6816	0	32530	
6817	0	32444	
6818	0	32208	
6819	0	32396	
6820	0	32829	
6821	0	32768	
6822	0	32746	
6823	0	32688	
6824	0	33054	
6825	0	33052	
6826	0	32736	
6827	0	32474	
6828	0	33042	
6829	0	33064	
6830	0	32650	
6831	0	32538	
6832	0	33136	
6833	0	32946	
6834	0	32633	
6835	0	32664	
6836	0	32986	
6837	0	32572	
6838	0	31670	
6839	0	31720	
6840	0	32672	
6841	0	33090	
6842	0	32596	
6843	0	32946	
6844	0	33782	
6845	0	33253	
6846	0	32715	
6847	0	32677	
6848	0	33352	
6849	0	32916	
6850	0	32300	
6851	0	32674	
6852	0	33094	
6853	0	32994	
6854	0	32232	
6855	0	31713	
6856	0	30099	
6857	0	37788	
6858	0	10272	
6859	0	18224	
6860	0	58992	
6861	0	8166	
6862	0	36914	
6863	0	8637	
6864	0	12300	
6865	0	38976	
6866	0	48530	
6867	0	30744	
6868	0	17080	
6869	0	38198	
6870	0	53824	
6871	0	10855	
6872	0	35826	
6873	0	42785	
6874	0	23456	
6875	0	23764	
6876	0	29122	
6877	0	47141	
6878	0	31128	
6879	0	47954	
6880	0	39192	
6881	0	24128	
6882	0	26136	
6883	0	18830	
6884	0	29228	
6885	0	25812	
6886	0	31276	
6887	0	28270	
6888	0	25432	
6889	0	28273	
6890	0	35021	
6891	0	23423	
6892	0	40866	
6893	0	25636	
6894	0	38768	
6895	0	30460	
6896	0	27579	
6897	0	31340	
6898	0	32120	
6899	0	31610	
6900	0	32432	
6901	0	35728	
6902	0	29620	
6903	0	37672	
6904	0	38150	
6905	0	32172	
6906	0	30588	
6907	0	33282	
6908	0	35204	
6909	0	35122	
6910	0	32141	
6911	0	24894	
6912	0	32788	
6913	0	32712	
6914	0	35398	
6915	0	33812	
6916	0	27337	
6917	0	35925	
6918	0	36908	
6919	0	34324	
6920	0	26989	
6921	0	26544	
6922	0	41410	
6923	0	33898	
6924	0	33392	
6925	0	32458	
6926	0	32142	
6927	0	35160	
6928	0	31742	
6929	0	31739	
6930	0	38919	
6931	0	33560	
6932	0	30548	
6933	0	30660	
6934	0	32573	
6935	0	31536	
6936	0	32780	
6937	0	32660	
6938	0	33568	
6939	0	32386	
6940	0	32804	
6941	0	30712	
6942	0	32088	
6943	0	35488	
6944	0	32774	
6945	0	32084	
6946	0	32148	
6947	0	34873	
6948	0	33264	
6949	0	32312	
6950	0	32652	
6951	0	33856	
6952	0	33472	
6953	0	32777	
6954	0	30684	
6955	0	33795	
6956	0	33766	
6957	0	30048	
6958	0	32800	
6959	0	32760	
6960	0	34492	
6961	0	30664	
6962	0	30717	
6963	0	32152	
6964	0	32522	
6965	0	32856	
6966	0	30706	
6967	0	32732	
6968	0	33257	
6969	0	33470	
6970	0	31872	
6971	0	33292	
6972	0	33948	
6973	0	32052	
6974	0	30496	
6975	0	31874	
6976	0	32904	
6977	0	32860	
6978	0	32632	
6979	0	31412	
6980	0	33384	
6981	0	33152	
6982	0	33021	
6983	0	32050	
6984	0	33600	
6985	0	33068	
6986	0	31842	
6987	0	32550	
6988	0	34050	
6989	0	33620	
6990	0	31756	
6991	0	32424	
6992	0	33152	
6993	0	32816	
6994	0	32568	
6995	0	32682	
6996	0	33472	
6997	0	32744	
6998	0	32720	
6999	0	32741	
7000	0	33584	
7001	0	32253	
7002	0	32426	
7003	0	33519	
7004	0	33494	
7005	0	32520	
7006	0	32124	
7007	0	32616	
7008	0	32437	
7009	0	32576	
7010	0	32630	
7011	0	32714	
7012	0	32323	
7013	0	32065	
7014	0	33116	
7015	0	32692	
7016	0	32477	
7017	0	32088	
7018	0	32792	
7019	0	32196	
7020	0	32632	
7021	0	32276	
7022	0	32936	
7023	0	33240	
7024	0	32408	
7025	0	32576	
7026	0	32760	
7027	0	33368	
7028	0	32564	
7029	0	32048	
7030	0	32349	
7031	0	33349	
7032	0	32768	
7033	0	32228	
7034	0	32964	
7035	0	33340	
7036	0	32706	
7037	0	32178	
7038	0	32370	
7039	0	32942	
7040	0	33000	
7041	0	32434	
7042	0	32436	
7043	0	33426	
7044	0	33012	
7045	0	32755	
7046	0	32200	
7047	0	32868	
7048	0	32594	
7049	0	32386	
7050	0	32140	
7051	0	32490	
7052	0	33292	
7053	0	33170	
7054	0	32408	
7055	0	32804	
7056	0	33516	
7057	0	32976	
7058	0	32084	
7059	0	32364	
7060	0	32724	
7061	0	32960	
7062	0	32706	
7063	0	32672	
7064	0	32849	
7065	0	33221	
7066	0	32397	
7067	0	32110	
7068	0	32646	
7069	0	32752	
7070	0	32438	
7071	0	32562	
7072	0	33112	
7073	0	33324	
7074	0	32962	
7075	0	32480	
7076	0	32816	
7077	0	33312	
7078	0	32962	
7079	0	32186	
7080	0	32733	
7081	0	33394	
7082	0	32978	
7083	0	32268	
7084	0	32477	
7085	0	32848	
7086	0	32892	
7087	0	32153	
7088	0	31916	
7089	0	32396	
7090	0	32672	
7091	0	32295	
7092	0	32496	
7093	0	32842	
7094	0	33092	
7095	0	32682	
7096	0	32650	
7097	0	33032	
7098	0	33240	
7099	0	32938	
7100	0	32868	
7101	0	33245	
7102	0	33221	
7103	0	32616	
7104	0	32208	
7105	0	32796	
7106	0	32990	
7107	0	32740	
7108	0	32032	
7109	0	32065	
7110	0	32768	
7111	0	33144	
7112	0	32392	
7113	0	32292	
7114	0	32774	
7115	0	33286	
7116	0	32720	
7117	0	32480	
7118	0	32644	
7119	0	32730	
7120	0	32970	
7121	0	32780	
7122	0	32768	
7123	0	32852	
7124	0	32684	
7125	0	32586	
7126	0	33100	
7127	0	32740	
7128	0	32229	
7129	0	32180	
7130	0	32640	
7131	0	32896	
7132	0	32826	
7133	0	32712	
7134	0	32830	
7135	0	33160	
7136	0	33286	
7137	0	32878	
7138	0	32672	
7139	0	32916	
7140	0	32836	
7141	0	32840	
7142	0	32850	
7143	0	32518	
7144	0	32572	
7145	0	32496	
7146	0	32678	
7147	0	32576	
7148	0	32346	
7149	0	32096	
7150	0	32296	
7151	0	32800	
7152	0	32828	
7153	0	32764	
7154	0	32953	
7155	0	32927	
7156	0	32780	
7157	0	33023	
7158	0	32752	
7159	0	32492	
7160	0	33004	
7161	0	33084	
7162	0	32976	
7163	0	33308	
7164	0	32920	
7165	0	32608	
7166	0	32576	
7167	0	32448	
7168	0	32372	
7169	0	32415	
7170	0	32264	
7171	0	32342	
7172	0	32848	
7173	0	32888	
7174	0	32442	
7175	0	32681	
7176	0	32968	
7177	0	32648	
7178	0	32644	
7179	0	32968	
7180	0	33280	
7181	0	33250	
7182	0	33294	
7183	0	32908	
7184	0	32868	
7185	0	33120	
7186	0	32390	
7187	0	32332	
7188	0	32697	
7189	0	32620	
7190	0	32372	
7191	0	32612	
7192	0	32684	
7193	0	32932	
7194	0	32764	
7195	0	32219	
7196	0	32442	
7197	0	32952	
7198	0	32996	
7199	0	32572	
7200	0	32505	
7201	0	33332	
7202	0	33080	
7203	0	32630	
7204	0	32438	
7205	0	32692	
7206	0	33260	
7207	0	32584	
7208	0	31956	
7209	0	32928	
7210	0	33386	
7211	0	32530	
7212	0	32392	
7213	0	32752	
7214	0	33528	
7215	0	32820	
7216	0	32044	
7217	0	32720	
7218	0	33346	
7219	0	32288	
7220	0	32210	
7221	0	32954	
7222	0	33548	
7223	0	32586	
7224	0	31954	
7225	0	32957	
7226	0	33389	
7227	0	32296	
7228	0	32384	
7229	0	32610	
7230	0	33225	
7231	0	32606	
7232	0	32144	
7233	0	33208	
7234	0	33292	
7235	0	32349	
7236	0	32925	
7237	0	33026	
7238	0	32779	
7239	0	32798	
7240	0	32854	
7241	0	32632	
7242	0	32368	
7243	0	33088	
7244	0	33172	
7245	0	31940	
7246	0	32584	
7247	0	33372	
7248	0	32644	
7249	0	32208	
7250	0	32729	
7251	0	32893	
7252	0	32852	
7253	0	32185	
7254	0	32649	
7255	0	33039	
7256	0	32713	
7257	0	32425	
7258	0	32445	
7259	0	32460	
7260	0	33034	
7261	0	32696	
7262	0	32588	
7263	0	33308	
7264	0	32962	
7265	0	32416	
7266	0	32566	
7267	0	32786	
7268	0	32988	
7269	0	32673	
7270	0	32396	
7271	0	32601	
7272	0	32764	
7273	0	33309	
7274	0	32934	
7275	0	32412	
7276	0	33121	
7277	0	32817	
7278	0	32138	
7279	0	32800	
7280	0	33248	
7281	0	32656	
7282	0	32376	
7283	0	33184	
7284	0	33064	
7285	0	32768	
7286	0	32584	
7287	0	32487	
7288	0	32576	
7289	0	32996	
7290	0	32944	
7291	0	32587	
7292	0	32946	
7293	0	32936	
7294	0	32666	
7295	0	32862	
7296	0	32872	
7297	0	32678	
7298	0	32732	
7299	0	32200	
7300	0	32572	
7301	0	33098	
7302	0	32768	
7303	0	32736	
7304	0	33152	
7305	0	32576	
7306	0	32509	
7307	0	32594	
7308	0	32426	
7309	0	32736	
7310	0	32828	
7311	0	32474	
7312	0	32792	
7313	0	32740	
7314	0	32788	
7315	0	32952	
7316	0	32458	
7317	0	32670	
7318	0	32652	
7319	0	32362	
7320	0	32824	
7321	0	32625	
7322	0	32480	
7323	0	33226	
7324	0	33073	
7325	0	32656	
7326	0	32876	
7327	0	32720	
7328	0	32568	
7329	0	32736	
7330	0	32608	
7331	0	32802	
7332	0	32817	
7333	0	32568	
7334	0	32624	
7335	0	32986	
7336	0	32586	
7337	0	32688	
7338	0	33125	
7339	0	32197	
7340	0	32540	
7341	0	32926	
7342	0	32574	
7343	0	32766	
7344	0	32830	
7345	0	32896	
7346	0	32564	
7347	0	32584	
7348	0	32943	
7349	0	32774	
7350	0	32925	
7351	0	32874	
7352	0	32556	
7353	0	33006	
7354	0	32676	
7355	0	32532	
7356	0	32820	
7357	0	32524	
7358	0	32428	
7359	0	32660	
7360	0	32653	
7361	0	32626	
7362	0	32904	
7363	0	32858	
7364	0	32983	
7365	0	32878	
7366	0	32916	
7367	0	32952	
7368	0	32688	
7369	0	32691	
7370	0	32892	
7371	0	32800	
7372	0	32736	
7373	0	32738	
7374	0	32634	
7375	0	32464	
7376	0	32488	
7377	0	32728	
7378	0	32813	
7379	0	32336	
7380	0	32530	
7381	0	32888	
7382	0	32908	
7383	0	32743	
7384	0	33177	
7385	0	33098	
7386	0	32636	
7387	0	32712	
7388	0	33074	
7389	0	32700	
7390	0	32936	
7391	0	33188	
7392	0	32800	
7393	0	32360	
7394	0	32722	
7395	0	32680	
7396	0	32484	
7397	0	32552	
7398	0	32546	
7399	0	32586	
7400	0	32556	
7401	0	32752	
7402	0	32872	
7403	0	32824	
7404	0	33076	
7405	0	32926	
7406	0	32993	
7407	0	32744	
7408	0	32514	
7409	0	32791	
7410	0	32533	
7411	0	32544	
7412	0	33063	
7413	0	32665	
7414	0	32680	
7415	0	33008	
7416	0	32460	
7417	0	32574	
7418	0	32760	
7419	0	32590	
7420	0	32554	
7421	0	32737	
7422	0	32664	
7423	0	32840	
7424	0	33164	
7425	0	32732	
7426	0	32900	
7427	0	32858	
7428	0	32372	
7429	0	32468	
7430	0	33099	
7431	0	32881	
7432	0	32256	
7433	0	33018	
7434	0	33232	
7435	0	32548	
7436	0	32475	
7437	0	32784	
7438	0	32594	
7439	0	32492	
7440	0	32556	
7441	0	32644	
7442	0	33128	
7443	0	33072	
7444	0	32876	
7445	0	32963	
7446	0	32754	
7447	0	32408	
7448	0	32600	
7449	0	32696	
7450	0	32493	
7451	0	32662	
7452	0	33046	
7453	0	32804	
7454	0	32672	
7455	0	32957	
7456	0	32586	
7457	0	32261	
7458	0	32658	
7459	0	32706	
7460	0	32682	
7461	0	32924	
7462	0	32886	
7463	0	32920	
7464	0	33060	
7465	0	32913	
7466	0	32613	
7467	0	32640	
7468	0	32602	
7469	0	32660	
7470	0	32702	
7471	0	32704	
7472	0	33019	
7473	0	33080	
7474	0	32648	
7475	0	32437	
7476	0	32628	
7477	0	32845	
7478	0	32300	
7479	0	32416	
7480	0	32917	
7481	0	33050	
7482	0	32795	
7483	0	32768	
7484	0	32985	
7485	0	32858	
7486	0	32746	
7487	0	32262	
7488	0	32763	
7489	0	33128	
7490	0	32712	
7491	0	32484	
7492	0	32930	
7493	0	32986	
7494	0	32752	
7495	0	32532	
7496	0	32646	
7497	0	32483	
7498	0	32546	
7499	0	32724	
7500	0	32672	
7501	0	32656	
7502	0	32872	
7503	0	32684	
7504	0	32740	
7505	0	33084	
7506	0	33136	
7507	0	32874	
7508	0	32840	
7509	0	32728	
7510	0	32751	
7511	0	32764	
7512	0	32558	
7513	0	32800	
7514	0	32936	
7515	0	32851	
7516	0	32644	
7517	0	32509	
7518	0	32588	
7519	0	32640	
7520	0	32549	
7521	0	32408	
7522	0	32882	
7523	0	32940	
7524	0	32842	
7525	0	32990	
7526	0	32592	
7527	0	32520	
7528	0	32544	
7529	0	32464	
7530	0	32389	
7531	0	32784	
7532	0	33089	
7533	0	32946	
7534	0	32994	
7535	0	33236	
7536	0	32636	
7537	0	32522	
7538	0	32548	
7539	0	32622	
7540	0	32764	
7541	0	32648	
7542	0	32800	
7543	0	32804	
7544	0	32968	
7545	0	32692	
7546	0	32758	
7547	0	32588	
7548	0	32456	
7549	0	32524	
7550	0	32610	
7551	0	32762	
7552	0	32916	
7553	0	33192	
7554	0	32972	
7555	0	32720	
7556	0	32674	
7557	0	32560	
7558	0	32542	
7559	0	32605	
7560	0	32552	
7561	0	32725	
7562	0	32850	
7563	0	32929	
7564	0	32946	
7565	0	32906	
7566	0	32672	
7567	0	32576	
7568	0	32784	
7569	0	32866	
7570	0	32678	
7571	0	32749	
7572	0	32862	
7573	0	32784	
7574	0	32864	
7575	0	32857	
7576	0	32768	
7577	0	32766	
7578	0	32442	
7579	0	32498	
7580	0	32712	
7581	0	32840	
7582	0	32813	
7583	0	32762	
7584	0	32897	
7585	0	32746	
7586	0	32555	
7587	0	32732	
7588	0	32834	
7589	0	32722	
7590	0	32681	
7591	0	32760	
7592	0	32784	
7593	0	32824	
7594	0	32930	
7595	0	32968	
7596	0	32924	
7597	0	32576	
7598	0	32484	
7599	0	32658	
7600	0	32538	
7601	0	32518	
7602	0	32668	
7603	0	32674	
7604	0	32598	
7605	0	32764	
7606	0	32890	
7607	0	32420	
7608	0	32514	
7609	0	32774	
7610	0	32654	
7611	0	32776	
7612	0	33072	
7613	0	32904	
7614	0	32675	
7615	0	33028	
7616	0	33194	
7617	0	32760	
7618	0	32768	
7619	0	32692	
7620	0	32600	
7621	0	32660	
7622	0	32658	
7623	0	32876	
7624	0	32949	
7625	0	32700	
7626	0	32672	
7627	0	32697	
7628	0	32420	
7629	0	32312	
7630	0	32722	
7631	0	32586	
7632	0	32404	
7633	0	32730	
7634	0	33028	
7635	0	32880	
7636	0	32840	
7637	0	32649	
7638	0	32600	
7639	0	32450	
7640	0	32644	
7641	0	33090	
7642	0	33102	
7643	0	33004	
7644	0	32808	
7645	0	33362	
7646	0	32927	
7647	0	32701	
7648	0	32708	
7649	0	33056	
7650	0	32672	
7651	0	32858	
7652	0	32775	
7653	0	32944	
7654	0	32808	
7655	0	32512	
7656	0	32392	
7657	0	32545	
7658	0	32580	
7659	0	32165	
7660	0	32188	
7661	0	32784	
7662	0	32737	
7663	0	32434	
7664	0	32825	
7665	0	33036	
7666	0	32888	
7667	0	32676	
7668	0	32569	
7669	0	32933	
7670	0	33146	
7671	0	32904	
7672	0	32746	
7673	0	33128	
7674	0	33132	
7675	0	32884	
7676	0	32858	
7677	0	32717	
7678	0	32592	
7679	0	32496	
7680	0	32522	
7681	0	32460	
7682	0	32782	
7683	0	32858	
7684	0	32720	
7685	0	32643	
7686	0	32668	
7687	0	32624	
7688	0	32484	
7689	0	32664	
7690	0	32902	
7691	0	32578	
7692	0	32971	
7693	0	32738	
7694	0	32556	
7695	0	32784	
7696	0	32945	
7697	0	32928	
7698	0	32632	
7699	0	32836	
7700	0	33082	
7701	0	32644	
7702	0	32262	
7703	0	33130	
7704	0	33362	
7705	0	32608	
7706	0	32306	
7707	0	32988	
7708	0	32836	
7709	0	32352	
7710	0	32644	
7711	0	32992	
7712	0	32688	
7713	0	32354	
7714	0	32272	
7715	0	33082	
7716	0	32892	
7717	0	32701	
7718	0	32512	
7719	0	33120	
7720	0	32584	
7721	0	32517	
7722	0	32552	
7723	0	33240	
7724	0	32538	
7725	0	32688	
7726	0	33192	
7727	0	32982	
7728	0	32636	
7729	0	32989	
7730	0	32954	
7731	0	32968	
7732	0	32420	
7733	0	32608	
7734	0	32932	
7735	0	32804	
7736	0	32412	
7737	0	32774	
7738	0	32912	
7739	0	32688	
7740	0	32105	
7741	0	32708	
7742	0	32800	
7743	0	32648	
7744	0	32328	
7745	0	33080	
7746	0	32918	
7747	0	32856	
7748	0	32154	
7749	0	32582	
7750	0	33020	
7751	0	32776	
7752	0	32524	
7753	0	33132	
7754	0	33096	
7755	0	32612	
7756	0	32557	
7757	0	32980	
7758	0	32866	
7759	0	32520	
7760	0	32448	
7761	0	32586	
7762	0	32934	
7763	0	32888	
7764	0	32624	
7765	0	32688	
7766	0	33080	
7767	0	32683	
7768	0	32558	
7769	0	32540	
7770	0	32690	
7771	0	32944	
7772	0	33089	
7773	0	32772	
7774	0	32878	
7775	0	32994	
7776	0	32596	
7777	0	32342	
7778	0	32456	
7779	0	32612	
7780	0	32763	
7781	0	32692	
7782	0	32453	
7783	0	32704	
7784	0	32904	
7785	0	32524	
7786	0	32592	
7787	0	33066	
7788	0	32808	
7789	0	32440	
7790	0	32804	
7791	0	33160	
7792	0	33064	
7793	0	33040	
7794	0	32580	
7795	0	32626	
7796	0	32836	
7797	0	32560	
7798	0	32500	
7799	0	32856	
7800	0	32840	
7801	0	32658	
7802	0	32857	
7803	0	32800	
7804	0	32640	
7805	0	32600	
7806	0	32774	
7807	0	32706	
7808	0	32676	
7809	0	32801	
7810	0	32900	
7811	0	32946	
7812	0	32856	
7813	0	32754	
7814	0	32840	
7815	0	32784	
7816	0	32610	
7817	0	32600	
7818	0	32688	
7819	0	32728	
7820	0	32692	
7821	0	32794	
7822	0	32804	
7823	0	32912	
7824	0	32696	
7825	0	32604	
7826	0	32748	
7827	0	32956	
7828	0	32664	
7829	0	32468	
7830	0	32684	
7831	0	32899	
7832	0	32519	
7833	0	32692	
7834	0	32974	
7835	0	32864	
7836	0	32632	
7837	0	32528	
7838	0	32734	
7839	0	33068	
7840	0	32948	
7841	0	32715	
7842	0	32714	
7843	0	33160	
7844	0	32830	
7845	0	32674	
7846	0	32576	
7847	0	32780	
7848	0	32688	
7849	0	32170	
7850	0	32233	
7851	0	32914	
7852	0	32952	
7853	0	32448	
7854	0	32466	
7855	0	33424	
7856	0	33180	
7857	0	32464	
7858	0	32014	
7859	0	32644	
7860	0	32952	
7861	0	32416	
7862	0	32208	
7863	0	32954	
7864	0	33330	
7865	0	32740	
7866	0	32060	
7867	0	32886	
7868	0	33252	
7869	0	32532	
7870	0	31948	
7871	0	32726	
7872	0	33340	
7873	0	33258	
7874	0	32504	
7875	0	32775	
7876	0	33371	
7877	0	32897	
7878	0	32045	
7879	0	32408	
7880	0	32938	
7881	0	32992	
7882	0	32604	
7883	0	32343	
7884	0	32837	
7885	0	33352	
7886	0	32692	
7887	0	32024	
7888	0	32640	
7889	0	32972	
7890	0	32748	
7891	0	32560	
7892	0	33162	
7893	0	33142	
7894	0	33194	
7895	0	32486	
7896	0	32481	
7897	0	32988	
7898	0	32870	
7899	0	31941	
7900	0	32352	
7901	0	32964	
7902	0	32956	
7903	0	32128	
7904	0	32402	
7905	0	32809	
7906	0	32936	
7907	0	32504	
7908	0	32238	
7909	0	32688	
7910	0	33346	
7911	0	32956	
7912	0	32696	
7913	0	33246	
7914	0	33536	
7915	0	33024	
7916	0	32700	
7917	0	32774	
7918	0	32848	
7919	0	32704	
7920	0	32546	
7921	0	32430	
7922	0	33108	
7923	0	32670	
7924	0	32130	
7925	0	32462	
7926	0	32948	
7927	0	32760	
7928	0	32426	
7929	0	32456	
7930	0	32728	
7931	0	32940	
7932	0	32756	
7933	0	32664	
7934	0	32920	
7935	0	32990	
7936	0	32795	
7937	0	32708	
7938	0	32592	
7939	0	32671	
7940	0	32672	
7941	0	32912	
7942	0	32660	
7943	0	32802	
7944	0	32740	
7945	0	32620	
7946	0	32538	
7947	0	32957	
7948	0	32729	
7949	0	32708	
7950	0	32648	
7951	0	32796	
7952	0	32852	
7953	0	33008	
7954	0	32954	
7955	0	32796	
7956	0	32888	
7957	0	32656	
7958	0	32508	
7959	0	32293	
7960	0	32626	
7961	0	32605	
7962	0	32632	
7963	0	32635	
7964	0	32612	
7965	0	32624	
7966	0	32908	
7967	0	32282	
7968	0	32668	
7969	0	32864	
7970	0	32704	
7971	0	32752	
7972	0	32828	
7973	0	33006	
7974	0	33076	
7975	0	33326	
7976	0	32920	
7977	0	32833	
7978	0	32864	
7979	0	32826	
7980	0	32537	
7981	0	32630	
7982	0	32374	
7983	0	32638	
7984	0	32812	
7985	0	32556	
7986	0	32632	
7987	0	32797	
7988	0	32475	
7989	0	32428	
7990	0	32775	
7991	0	32856	
7992	0	32892	
7993	0	32793	
7994	0	33012	
7995	0	33070	
7996	0	33136	
7997	0	32709	
7998	0	32390	
7999	0	32578	
8000	0	33068	
8001	0	32739	
8002	0	32540	
8003	0	32800	
8004	0	33028	
8005	0	32858	
8006	0	32342	
8007	0	32578	
8008	0	33156	
8009	0	32784	
8010	0	32025	
8011	0	32425	
8012	0	33012	
8013	0	32952	
8014	0	32332	
8015	0	32704	
8016	0	33285	
8017	0	32830	
8018	0	32032	
8019	0	32362	
8020	0	33093	
8021	0	33137	
8022	0	32432	
8023	0	32272	
8024	0	33320	
8025	0	33122	
8026	0	32516	
8027	0	32184	
8028	0	32796	
8029	0	32992	
8030	0	32736	
8031	0	32098	
8032	0	32746	
8033	0	33224	
8034	0	33248	
8035	0	32674	
8036	0	32904	
8037	0	33082	
8038	0	32824	
8039	0	31956	
8040	0	32376	
8041	0	32944	
8042	0	33032	
8043	0	32728	
8044	0	32480	
8045	0	33024	
8046	0	32950	
8047	0	32148	
8048	0	32289	
8049	0	32845	
8050	0	33038	
8051	0	32578	
8052	0	32320	
8053	0	32952	
8054	0	33276	
8055	0	33064	
8056	0	32344	
8057	0	32600	
8058	0	33081	
8059	0	32862	
8060	0	32394	
8061	0	32692	
8062	0	33148	
8063	0	33076	
8064	0	32826	
8065	0	32510	
8066	0	32662	
8067	0	32968	
8068	0	32463	
8069	0	32156	
8070	0	32701	
8071	0	32958	
8072	0	32642	
8073	0	32426	
8074	0	32796	
8075	0	32944	
8076	0	32797	
8077	0	32538	
8078	0	32718	
8079	0	32930	
8080	0	32834	
8081	0	32368	
8082	0	32718	
8083	0	33150	
8084	0	32962	
8085	0	32800	
8086	0	32737	
8087	0	32760	
8088	0	32764	
8089	0	32704	
8090	0	32465	
8091	0	32768	
8092	0	32966	
8093	0	32710	
8094	0	32522	
8095	0	33202	
8096	0	32848	
8097	0	32852	
8098	0	32560	
8099	0	32519	
8100	0	32354	
8101	0	32768	
8102	0	32634	
8103	0	32706	
8104	0	32816	
8105	0	32724	
8106	0	32647	
8107	0	32644	
8108	0	32613	
8109	0	32706	
8110	0	32960	
8111	0	32840	
8112	0	32712	
8113	0	32940	
8114	0	33056	
8115	0	32786	
8116	0	32808	
8117	0	32940	
8118	0	32816	
8119	0	32647	
8120	0	32592	
8121	0	32620	
8122	0	32933	
8123	0	32800	
8124	0	32720	
8125	0	32738	
8126	0	32675	
8127	0	32392	
8128	0	32392	
8129	0	32484	
8130	0	32676	
8131	0	32924	
8132	0	32856	
8133	0	32586	
8134	0	32544	
8135	0	32998	
8136	0	32864	
8137	0	32704	
8138	0	32806	
8139	0	32842	
8140	0	32805	
8141	0	33044	
8142	0	32864	
8143	0	32932	
8144	0	32776	
8145	0	32580	
8146	0	32620	
8147	0	32760	
8148	0	32671	
8149	0	32500	
8150	0	32636	
8151	0	32966	
8152	0	32969	
8153	0	32672	
8154	0	32568	
8155	0	32640	
8156	0	32870	
8157	0	32682	
8158	0	32222	
8159	0	32620	
8160	0	32856	
8161	0	32692	
8162	0	32568	
8163	0	32548	
8164	0	32672	
8165	0	32964	
8166	0	32920	
8167	0	32665	
8168	0	32812	
8169	0	32930	
8170	0	32760	
8171	0	32745	
8172	0	33136	
8173	0	32912	
8174	0	32840	
8175	0	32762	
8176	0	32744	
8177	0	32869	
8178	0	32834	
8179	0	32362	
8180	0	32624	
8181	0	32736	
8182	0	32608	
8183	0	32608	
8184	0	32728	
8185	0	32716	
8186	0	32676	
8187	0	32672	
8188	0	32254	
8189	0	32472	
8190	0	32732	
8191	0	32824	
8192	0	32628	
8193	0	32904	
8194	0	32992	
8195	0	33052	
8196	0	32927	
8197	0	32608	
8198	0	32690	
8199	0	32964	
8200	0	32780	
8201	0	32536	
8202	0	32618	
8203	0	32832	
8204	0	32788	
8205	0	32733	
8206	0	32669	
8207	0	32685	
8208	0	33016	
8209	0	32688	
8210	0	32190	
8211	0	32775	
8212	0	33349	
8213	0	33129	
8214	0	32584	
8215	0	32636	
8216	0	32948	
8217	0	32738	
8218	0	32132	
8219	0	32217	
8220	0	32870	
8221	0	33000	
8222	0	32436	
8223	0	32584	
8224	0	33576	
8225	0	33120	
8226	0	32264	
8227	0	32384	
8228	0	33036	
8229	0	32936	
8230	0	32256	
8231	0	32320	
8232	0	33192	
8233	0	33576	
8234	0	32488	
8235	0	32120	
8236	0	32976	
8237	0	33280	
8238	0	32232	
8239	0	32112	
8240	0	32704	
8241	0	33320	
8242	0	32932	
8243	0	32344	
8244	0	32690	
8245	0	33132	
8246	0	32718	
8247	0	32181	
8248	0	32504	
8249	0	33021	
8250	0	32804	
8251	0	32672	
8252	0	32676	
8253	0	33176	
8254	0	33168	
8255	0	32568	
8256	0	32260	
8257	0	32786	
8258	0	33254	
8259	0	32694	
8260	0	32466	
8261	0	32624	
8262	0	33026	
8263	0	33256	
8264	0	32748	
8265	0	32332	
8266	0	32680	
8267	0	33016	
8268	0	32232	
8269	0	32144	
8270	0	32999	
8271	0	33296	
8272	0	32618	
8273	0	32260	
8274	0	32912	
8275	0	33200	
8276	0	32578	
8277	0	32152	
8278	0	32547	
8279	0	33252	
8280	0	32836	
8281	0	32428	
8282	0	32824	
8283	0	33080	
8284	0	32738	
8285	0	32418	
8286	0	32670	
8287	0	33076	
8288	0	32795	
8289	0	32313	
8290	0	32576	
8291	0	33414	
8292	0	33258	
8293	0	32890	
8294	0	32868	
8295	0	32788	
8296	0	32492	
8297	0	32569	
8298	0	32546	
8299	0	32536	
8300	0	32650	
8301	0	32940	
8302	0	32808	
8303	0	32792	
8304	0	32762	
8305	0	32948	
8306	0	32766	
8307	0	32252	
8308	0	32384	
8309	0	32740	
8310	0	32800	
8311	0	32232	
8312	0	32688	
8313	0	33210	
8314	0	32952	
8315	0	32555	
8316	0	32804	
8317	0	32864	
8318	0	32704	
8319	0	32504	
8320	0	32752	
8321	0	33090	
8322	0	33110	
8323	0	32658	
8324	0	32795	
8325	0	33036	
8326	0	32856	
8327	0	32192	
8328	0	32232	
8329	0	32644	
8330	0	32608	
8331	0	32432	
8332	0	32704	
8333	0	33118	
8334	0	33245	
8335	0	32860	
8336	0	32516	
8337	0	32680	
8338	0	32716	
8339	0	32229	
8340	0	32690	
8341	0	33152	
8342	0	32800	
8343	0	32788	
8344	0	33184	
8345	0	33005	
8346	0	32664	
8347	0	32544	
8348	0	32688	
8349	0	32602	
8350	0	32484	
8351	0	32592	
8352	0	33016	
8353	0	33004	
8354	0	32772	
8355	0	32792	
8356	0	32816	
8357	0	32460	
8358	0	32284	
8359	0	32592	
8360	0	32840	
8361	0	32733	
8362	0	32708	
8363	0	32930	
8364	0	33032	
8365	0	32902	
8366	0	32696	
8367	0	32500	
8368	0	32764	
8369	0	32692	
8370	0	32448	
8371	0	32684	
8372	0	32932	
8373	0	32740	
8374	0	32744	
8375	0	32941	
8376	0	33042	
8377	0	32604	
8378	0	32410	
8379	0	32622	
8380	0	32972	
8381	0	32728	
8382	0	32510	
8383	0	33192	
8384	0	33164	
8385	0	32640	
8386	0	32334	
8387	0	33028	
8388	0	32728	
8389	0	32448	
8390	0	32184	
8391	0	32813	
8392	0	32976	
8393	0	32673	
8394	0	32380	
8395	0	33005	
8396	0	32893	
8397	0	32372	
8398	0	32302	
8399	0	33096	
8400	0	33024	
8401	0	32384	
8402	0	32548	
8403	0	33320	
8404	0	33048	
8405	0	32792	
8406	0	32538	
8407	0	32921	
8408	0	33098	
8409	0	32640	
8410	0	32364	
8411	0	32884	
8412	0	32862	
8413	0	32306	
8414	0	32690	
8415	0	33345	
8416	0	32794	
8417	0	32466	
8418	0	32250	
8419	0	32690	
8420	0	32737	
8421	0	32446	
8422	0	32426	
8423	0	33114	
8424	0	32904	
8425	0	32508	
8426	0	32526	
8427	0	33108	
8428	0	32664	
8429	0	32365	
8430	0	32568	
8431	0	33102	
8432	0	32965	
8433	0	32848	
8434	0	32824	
8435	0	33636	
8436	0	32992	
8437	0	32600	
8438	0	32348	
8439	0	33336	
8440	0	32638	
8441	0	32412	
8442	0	32548	
8443	0	33188	
8444	0	32722	
8445	0	32741	
8446	0	32386	
8447	0	32792	
8448	0	32576	
8449	0	32300	
8450	0	32116	
8451	0	33180	
8452	0	32754	
8453	0	32580	
8454	0	32532	
8455	0	33100	
8456	0	32856	
8457	0	32650	
8458	0	32156	
8459	0	32666	
8460	0	32888	
8461	0	32901	
8462	0	32332	
8463	0	33316	
8464	0	33414	
8465	0	32856	
8466	0	32028	
8467	0	32642	
8468	0	32946	
8469	0	32929	
8470	0	32225	
8471	0	32668	
8472	0	33174	
8473	0	33330	
8474	0	32436	
8475	0	32544	
8476	0	33020	
8477	0	32836	
8478	0	32290	
8479	0	32340	
8480	0	32940	
8481	0	33057	
8482	0	32768	
8483	0	32196	
8484	0	32955	
8485	0	33224	
8486	0	32762	
8487	0	32304	
8488	0	32714	
8489	0	32962	
8490	0	32992	
8491	0	32448	
8492	0	32758	
8493	0	33060	
8494	0	33106	
8495	0	32194	
8496	0	32448	
8497	0	32728	
8498	0	33104	
8499	0	32592	
8500	0	32520	
8501	0	32829	
8502	0	33008	
8503	0	32908	
8504	0	32668	
8505	0	32528	
8506	0	32934	
8507	0	32532	
8508	0	32474	
8509	0	32692	
8510	0	33184	
8511	0	32938	
8512	0	32672	
8513	0	32818	
8514	0	32876	
8515	0	33116	
8516	0	32778	
8517	0	32464	
8518	0	32648	
8519	0	32704	
8520	0	32460	
8521	0	32416	
8522	0	33302	
8523	0	32808	
8524	0	32708	
8525	0	32920	
8526	0	32764	
8527	0	32673	
8528	0	32444	
8529	0	32492	
8530	0	32774	
8531	0	33024	
8532	0	33029	
8533	0	32672	
8534	0	32924	
8535	0	32862	
8536	0	32396	
8537	0	32457	
8538	0	32457	
8539	0	32968	
8540	0	32720	
8541	0	32640	
8542	0	32366	
8543	0	33006	
8544	0	32856	
8545	0	32768	
8546	0	32648	
8547	0	32692	
8548	0	32712	
8549	0	32685	
8550	0	32736	
8551	0	32842	
8552	0	32996	
8553	0	32765	
8554	0	32561	
8555	0	32640	
8556	0	33282	
8557	0	32708	
8558	0	32504	
8559	0	32420	
8560	0	32810	
8561	0	32908	
8562	0	33102	
8563	0	32524	
8564	0	32856	
8565	0	33128	
8566	0	32794	
8567	0	32168	
8568	0	32666	
8569	0	32878	
8570	0	32580	
8571	0	32664	
8572	0	32757	
8573	0	32756	
8574	0	32992	
8575	0	32866	
8576	0	32248	
8577	0	32600	
8578	0	32548	
8579	0	32848	
8580	0	32648	
8581	0	32728	
8582	0	32600	
8583	0	32668	
8584	0	32806	
8585	0	32704	
8586	0	33042	
8587	0	32957	
8588	0	32440	
8589	0	32665	
8590	0	32958	
8591	0	32929	
8592	0	33264	
8593	0	32844	
8594	0	33088	
8595	0	32896	
8596	0	32996	
8597	0	32500	
8598	0	32488	
8599	0	32840	
8600	0	32492	
8601	0	32608	
8602	0	32484	
8603	0	32841	
8604	0	32630	
8605	0	32496	
8606	0	32276	
8607	0	32302	
8608	0	32700	
8609	0	32650	
8610	0	32600	
8611	0	32966	
8612	0	32968	
8613	0	33164	
8614	0	33108	
