# OpenSignals Text File Format
# {"00:07:80:4D:2E:AD": {"sensor": ["RAW"], "device name": "00:07:80:4D:2E:AD", "column": ["nSeq", "DI", "CH1"], "sync interval": 2, "time": "13:33:1.261", "comments": "", "device connection": "BTH00:07:80:4D:2E:AD", "channels": [1], "keywords": "", "mode": 0, "digital IO": [0, 1], "firmware version": 773, "device": "biosignalsplux", "position": 0, "sampling rate": 1000, "label": ["CH1"], "resolution": [16], "date": "2019-3-12", "special": [{}]}}
# EndOfHeader
0	0	31700	
1	0	31680	
2	0	31788	
3	0	31841	
4	0	31692	
5	0	31680	
6	0	31802	
7	0	31840	
8	0	31696	
9	0	31692	
10	0	31788	
11	0	31848	
12	0	31696	
13	0	31680	
14	0	31796	
15	0	31844	
16	0	31688	
17	0	31688	
18	0	31796	
19	0	31844	
20	0	31696	
21	0	31676	
22	0	31792	
23	0	31840	
24	0	31688	
25	0	31680	
26	0	31800	
27	0	31844	
28	0	31692	
29	0	31688	
30	0	31808	
31	0	31840	
32	0	31696	
33	0	31688	
34	0	31804	
35	0	31852	
36	0	31700	
37	0	31704	
38	0	31804	
39	0	31845	
40	0	31702	
41	0	31704	
42	0	31804	
43	0	31840	
44	0	31708	
45	0	31708	
46	0	31812	
47	0	31840	
48	0	31694	
49	0	31720	
50	0	31816	
51	0	31864	
52	0	31696	
53	0	31712	
54	0	31824	
55	0	31840	
56	0	31696	
57	0	31716	
58	0	31832	
59	0	31856	
60	0	31700	
61	0	31716	
62	0	31828	
63	0	31848	
64	0	31696	
65	0	31720	
66	0	31832	
67	0	31852	
68	0	31708	
69	0	31732	
70	0	31836	
71	0	31848	
72	0	31702	
73	0	31736	
74	0	31852	
75	0	31856	
76	0	31716	
77	0	31756	
78	0	31852	
79	0	31856	
80	0	31712	
81	0	31756	
82	0	31852	
83	0	31848	
84	0	31708	
85	0	31744	
86	0	31856	
87	0	31849	
88	0	31708	
89	0	31760	
90	0	31868	
91	0	31848	
92	0	31708	
93	0	31768	
94	0	31860	
95	0	31852	
96	0	31704	
97	0	31760	
98	0	31876	
99	0	31852	
100	0	31708	
101	0	31768	
102	0	31868	
103	0	31844	
104	0	31704	
105	0	31760	
106	0	31868	
107	0	31844	
108	0	31716	
109	0	31772	
110	0	31876	
111	0	31856	
112	0	31712	
113	0	31768	
114	0	31880	
115	0	31848	
116	0	31708	
117	0	31776	
118	0	31880	
119	0	31852	
120	0	31716	
121	0	31784	
122	0	31880	
123	0	31848	
124	0	31712	
125	0	31776	
126	0	31872	
127	0	31840	
128	0	31704	
129	0	31784	
130	0	31888	
131	0	31840	
132	0	31704	
133	0	31776	
134	0	31876	
135	0	31845	
136	0	31704	
137	0	31784	
138	0	31880	
139	0	31844	
140	0	31712	
141	0	31794	
142	0	31888	
143	0	31836	
144	0	31700	
145	0	31772	
146	0	31888	
147	0	31840	
148	0	31704	
149	0	31792	
150	0	31892	
151	0	31856	
152	0	31712	
153	0	31796	
154	0	31900	
155	0	31828	
156	0	31712	
157	0	31792	
158	0	31900	
159	0	31848	
160	0	31708	
161	0	31796	
162	0	31896	
163	0	31832	
164	0	31700	
165	0	31792	
166	0	31892	
167	0	31832	
168	0	31700	
169	0	31808	
170	0	31904	
171	0	31832	
172	0	31696	
173	0	31788	
174	0	31892	
175	0	31828	
176	0	31692	
177	0	31808	
178	0	31904	
179	0	31832	
180	0	31696	
181	0	31800	
182	0	31905	
183	0	31824	
184	0	31684	
185	0	31788	
186	0	31904	
187	0	31832	
188	0	31688	
189	0	31800	
190	0	31900	
191	0	31824	
192	0	31688	
193	0	31800	
194	0	31902	
195	0	31820	
196	0	31680	
197	0	31800	
198	0	31916	
199	0	31824	
200	0	31688	
201	0	31812	
202	0	31904	
203	0	31808	
204	0	31692	
205	0	31808	
206	0	31904	
207	0	31820	
208	0	31676	
209	0	31816	
210	0	31912	
211	0	31812	
212	0	31688	
213	0	31816	
214	0	31908	
215	0	31816	
216	0	31680	
217	0	31808	
218	0	31928	
219	0	31820	
220	0	31696	
221	0	31824	
222	0	31908	
223	0	31824	
224	0	31692	
225	0	31828	
226	0	31924	
227	0	31816	
228	0	31696	
229	0	31824	
230	0	31928	
231	0	31813	
232	0	31704	
233	0	31832	
234	0	31928	
235	0	31816	
236	0	31704	
237	0	31840	
238	0	31944	
239	0	31828	
240	0	31712	
241	0	31840	
242	0	31936	
243	0	31820	
244	0	31728	
245	0	31840	
246	0	31936	
247	0	31824	
248	0	31724	
249	0	31844	
250	0	31944	
251	0	31828	
252	0	31724	
253	0	31844	
254	0	31952	
255	0	31830	
256	0	31732	
257	0	31856	
258	0	31952	
259	0	31834	
260	0	31746	
261	0	31864	
262	0	31960	
263	0	31832	
264	0	31744	
265	0	31866	
266	0	31952	
267	0	31828	
268	0	31744	
269	0	31868	
270	0	31976	
271	0	31828	
272	0	31744	
273	0	31876	
274	0	31973	
275	0	31824	
276	0	31764	
277	0	31872	
278	0	31976	
279	0	31836	
280	0	31772	
281	0	31892	
282	0	31980	
283	0	31840	
284	0	31768	
285	0	31888	
286	0	31984	
287	0	31840	
288	0	31776	
289	0	31892	
290	0	31976	
291	0	31832	
292	0	31768	
293	0	31888	
294	0	31988	
295	0	31824	
296	0	31776	
297	0	31888	
298	0	31988	
299	0	31832	
300	0	31788	
301	0	31908	
302	0	32004	
303	0	31832	
304	0	31788	
305	0	31896	
306	0	31984	
307	0	31832	
308	0	31792	
309	0	31908	
310	0	32000	
311	0	31832	
312	0	31776	
313	0	31900	
314	0	31984	
315	0	31825	
316	0	31788	
317	0	31904	
318	0	32004	
319	0	31828	
320	0	31808	
321	0	31906	
322	0	31994	
323	0	31840	
324	0	31796	
325	0	31908	
326	0	31996	
327	0	31836	
328	0	31804	
329	0	31916	
330	0	31992	
331	0	31824	
332	0	31800	
333	0	31908	
334	0	31988	
335	0	31820	
336	0	31796	
337	0	31908	
338	0	31984	
339	0	31828	
340	0	31808	
341	0	31912	
342	0	31988	
343	0	31824	
344	0	31808	
345	0	31916	
346	0	31984	
347	0	31828	
348	0	31812	
349	0	31924	
350	0	31970	
351	0	31832	
352	0	31808	
353	0	31912	
354	0	31972	
355	0	31816	
356	0	31808	
357	0	31924	
358	0	31972	
359	0	31816	
360	0	31808	
361	0	31928	
362	0	31968	
363	0	31816	
364	0	31812	
365	0	31920	
366	0	31972	
367	0	31816	
368	0	31812	
369	0	31936	
370	0	31964	
371	0	31812	
372	0	31812	
373	0	31917	
374	0	31956	
375	0	31804	
376	0	31804	
377	0	31928	
378	0	31960	
379	0	31812	
380	0	31824	
381	0	31932	
382	0	31956	
383	0	31812	
384	0	31828	
385	0	31928	
386	0	31956	
387	0	31808	
388	0	31816	
389	0	31936	
390	0	31948	
391	0	31800	
392	0	31816	
393	0	31928	
394	0	31936	
395	0	31788	
396	0	31816	
397	0	31928	
398	0	31948	
399	0	31792	
400	0	31832	
401	0	31936	
402	0	31944	
403	0	31796	
404	0	31832	
405	0	31932	
406	0	31945	
407	0	31812	
408	0	31840	
409	0	31936	
410	0	31940	
411	0	31812	
412	0	31832	
413	0	31928	
414	0	31936	
415	0	31788	
416	0	31824	
417	0	31936	
418	0	31936	
419	0	31784	
420	0	31836	
421	0	31936	
422	0	31944	
423	0	31796	
424	0	31828	
425	0	31936	
426	0	31936	
427	0	31799	
428	0	31832	
429	0	31948	
430	0	31924	
431	0	31792	
432	0	31828	
433	0	31924	
434	0	31916	
435	0	31780	
436	0	31832	
437	0	31940	
438	0	31924	
439	0	31776	
440	0	31840	
441	0	31940	
442	0	31928	
443	0	31784	
444	0	31836	
445	0	31952	
446	0	31920	
447	0	31772	
448	0	31844	
449	0	31948	
450	0	31921	
451	0	31776	
452	0	31840	
453	0	31940	
454	0	31908	
455	0	31768	
456	0	31841	
457	0	31952	
458	0	31900	
459	0	31768	
460	0	31848	
461	0	31940	
462	0	31904	
463	0	31764	
464	0	31844	
465	0	31944	
466	0	31900	
467	0	31760	
468	0	31848	
469	0	31964	
470	0	31904	
471	0	31760	
472	0	31856	
473	0	31948	
474	0	31896	
475	0	31748	
476	0	31860	
477	0	31948	
478	0	31888	
479	0	31756	
480	0	31856	
481	0	31964	
482	0	31902	
483	0	31764	
484	0	31872	
485	0	31964	
486	0	31904	
487	0	31764	
488	0	31872	
489	0	31977	
490	0	31904	
491	0	31768	
492	0	31876	
493	0	31968	
494	0	31900	
495	0	31768	
496	0	31872	
497	0	31980	
498	0	31912	
499	0	31772	
500	0	31880	
501	0	31976	
502	0	31916	
503	0	31780	
504	0	31888	
505	0	32000	
506	0	31920	
507	0	31788	
508	0	31900	
509	0	31996	
510	0	31940	
511	0	31792	
512	0	31904	
513	0	32004	
514	0	31920	
515	0	31768	
516	0	31908	
517	0	32006	
518	0	31920	
519	0	31788	
520	0	31912	
521	0	32022	
522	0	31928	
523	0	31792	
524	0	31908	
525	0	32008	
526	0	31940	
527	0	31804	
528	0	31916	
529	0	32028	
530	0	31932	
531	0	31804	
532	0	31932	
533	0	32024	
534	0	31936	
535	0	31808	
536	0	31936	
537	0	32032	
538	0	31940	
539	0	31809	
540	0	31936	
541	0	32032	
542	0	31936	
543	0	31808	
544	0	31940	
545	0	32040	
546	0	31952	
547	0	31808	
548	0	31944	
549	0	32052	
550	0	31952	
551	0	31808	
552	0	31944	
553	0	32048	
554	0	31948	
555	0	31820	
556	0	31952	
557	0	32056	
558	0	31952	
559	0	31828	
560	0	31960	
561	0	32060	
562	0	31964	
563	0	31828	
564	0	31960	
565	0	32056	
566	0	31956	
567	0	31844	
568	0	31972	
569	0	32072	
570	0	31972	
571	0	31856	
572	0	31984	
573	0	32080	
574	0	31960	
575	0	31845	
576	0	31981	
577	0	32088	
578	0	31960	
579	0	31868	
580	0	31992	
581	0	32078	
582	0	31964	
583	0	31868	
584	0	32000	
585	0	32104	
586	0	31978	
587	0	31884	
588	0	32012	
589	0	32112	
590	0	31980	
591	0	31904	
592	0	32016	
593	0	32120	
594	0	31988	
595	0	31900	
596	0	32024	
597	0	32128	
598	0	31984	
599	0	31904	
600	0	32036	
601	0	32112	
602	0	31980	
603	0	31904	
604	0	32024	
605	0	32116	
606	0	31976	
607	0	31904	
608	0	32028	
609	0	32124	
610	0	31972	
611	0	31908	
612	0	32024	
613	0	32124	
614	0	31984	
615	0	31900	
616	0	32024	
617	0	32124	
618	0	31972	
619	0	31908	
620	0	32026	
621	0	32128	
622	0	31968	
623	0	31904	
624	0	32024	
625	0	32112	
626	0	31968	
627	0	31904	
628	0	32028	
629	0	32128	
630	0	31968	
631	0	31908	
632	0	32024	
633	0	32124	
634	0	31956	
635	0	31896	
636	0	32024	
637	0	32116	
638	0	31952	
639	0	31904	
640	0	32024	
641	0	32112	
642	0	31944	
643	0	31904	
644	0	32016	
645	0	32096	
646	0	31952	
647	0	31904	
648	0	32016	
649	0	32096	
650	0	31944	
651	0	31900	
652	0	32020	
653	0	32096	
654	0	31924	
655	0	31900	
656	0	32012	
657	0	32100	
658	0	31936	
659	0	31906	
660	0	32016	
661	0	32088	
662	0	31928	
663	0	31896	
664	0	32012	
665	0	32084	
666	0	31920	
667	0	31892	
668	0	32020	
669	0	32084	
670	0	31924	
671	0	31900	
672	0	32012	
673	0	32080	
674	0	31916	
675	0	31908	
676	0	32016	
677	0	32076	
678	0	31928	
679	0	31908	
680	0	32012	
681	0	32084	
682	0	31916	
683	0	31904	
684	0	32016	
685	0	32066	
686	0	31912	
687	0	31906	
688	0	32012	
689	0	32064	
690	0	31912	
691	0	31917	
692	0	32020	
693	0	32068	
694	0	31908	
695	0	31908	
696	0	32020	
697	0	32064	
698	0	31916	
699	0	31912	
700	0	32024	
701	0	32066	
702	0	31904	
703	0	31912	
704	0	32016	
705	0	32068	
706	0	31904	
707	0	31904	
708	0	32032	
709	0	32056	
710	0	31900	
711	0	31912	
712	0	32028	
713	0	32048	
714	0	31904	
715	0	31922	
716	0	32024	
717	0	32056	
718	0	31904	
719	0	31920	
720	0	32032	
721	0	32052	
722	0	31896	
723	0	31916	
724	0	32028	
725	0	32041	
726	0	31892	
727	0	31928	
728	0	32024	
729	0	32036	
730	0	31892	
731	0	31928	
732	0	32024	
733	0	32036	
734	0	31884	
735	0	31936	
736	0	32032	
737	0	32032	
738	0	31892	
739	0	31924	
740	0	32036	
741	0	32032	
742	0	31892	
743	0	31924	
744	0	32032	
745	0	32032	
746	0	31888	
747	0	31920	
748	0	32036	
749	0	32032	
750	0	31873	
751	0	31928	
752	0	32020	
753	0	32032	
754	0	31876	
755	0	31928	
756	0	32032	
757	0	32028	
758	0	31868	
759	0	31922	
760	0	32032	
761	0	32020	
762	0	31876	
763	0	31924	
764	0	32024	
765	0	32008	
766	0	31860	
767	0	31928	
768	0	32028	
769	0	32016	
770	0	31860	
771	0	31920	
772	0	32032	
773	0	32006	
774	0	31848	
775	0	31916	
776	0	32040	
777	0	32004	
778	0	31856	
779	0	31924	
780	0	32037	
781	0	31996	
782	0	31860	
783	0	31928	
784	0	32028	
785	0	31992	
786	0	31848	
787	0	31940	
788	0	32032	
789	0	31980	
790	0	31844	
791	0	31920	
792	0	32024	
793	0	31976	
794	0	31836	
795	0	31932	
796	0	32036	
797	0	31972	
798	0	31840	
799	0	31948	
800	0	32034	
801	0	31984	
802	0	31840	
803	0	31936	
804	0	32044	
805	0	31976	
806	0	31840	
807	0	31932	
808	0	32036	
809	0	31980	
810	0	31836	
811	0	31936	
812	0	32024	
813	0	31970	
814	0	31816	
815	0	31936	
816	0	32028	
817	0	31964	
818	0	31820	
819	0	31936	
820	0	32044	
821	0	31970	
822	0	31828	
823	0	31940	
824	0	32032	
825	0	31960	
826	0	31816	
827	0	31936	
828	0	32040	
829	0	31944	
830	0	31812	
831	0	31940	
832	0	32028	
833	0	31944	
834	0	31804	
835	0	31928	
836	0	32024	
837	0	31940	
838	0	31800	
839	0	31924	
840	0	32034	
841	0	31940	
842	0	31800	
843	0	31924	
844	0	32032	
845	0	31944	
846	0	31808	
847	0	31936	
848	0	32032	
849	0	31936	
850	0	31800	
851	0	31928	
852	0	32032	
853	0	31940	
854	0	31792	
855	0	31932	
856	0	32024	
857	0	31924	
858	0	31810	
859	0	31936	
860	0	32032	
861	0	31932	
862	0	31808	
863	0	31952	
864	0	32034	
865	0	31937	
866	0	31812	
867	0	31940	
868	0	32040	
869	0	31932	
870	0	31820	
871	0	31944	
872	0	32036	
873	0	31924	
874	0	31812	
875	0	31936	
876	0	32044	
877	0	31928	
878	0	31816	
879	0	31944	
880	0	32044	
881	0	31952	
882	0	31820	
883	0	31956	
884	0	32048	
885	0	31936	
886	0	31828	
887	0	31952	
888	0	32056	
889	0	31936	
890	0	31836	
891	0	31964	
892	0	32052	
893	0	31932	
894	0	31828	
895	0	31944	
896	0	32056	
897	0	31936	
898	0	31840	
899	0	31964	
900	0	32060	
901	0	31940	
902	0	31840	
903	0	31960	
904	0	32052	
905	0	31936	
906	0	31856	
907	0	31964	
908	0	32064	
909	0	31944	
910	0	31852	
911	0	31968	
912	0	32064	
913	0	31936	
914	0	31836	
915	0	31956	
916	0	32072	
917	0	31928	
918	0	31860	
919	0	31976	
920	0	32076	
921	0	31936	
922	0	31860	
923	0	31976	
924	0	32072	
925	0	31944	
926	0	31864	
927	0	31976	
928	0	32080	
929	0	31940	
930	0	31868	
931	0	31988	
932	0	32076	
933	0	31936	
934	0	31852	
935	0	31988	
936	0	32072	
937	0	31936	
938	0	31868	
939	0	31992	
940	0	32088	
941	0	31936	
942	0	31876	
943	0	31984	
944	0	32088	
945	0	31928	
946	0	31864	
947	0	31984	
948	0	32088	
949	0	31940	
950	0	31876	
951	0	32004	
952	0	32096	
953	0	31928	
954	0	31864	
955	0	31988	
956	0	32080	
957	0	31920	
958	0	31876	
959	0	31996	
960	0	32096	
961	0	31920	
962	0	31872	
963	0	31988	
964	0	32084	
965	0	31920	
966	0	31874	
967	0	31996	
968	0	32092	
969	0	31921	
970	0	31892	
971	0	32004	
972	0	32072	
973	0	31904	
974	0	31884	
975	0	31996	
976	0	32072	
977	0	31904	
978	0	31876	
979	0	31992	
980	0	32064	
981	0	31904	
982	0	31872	
983	0	31986	
984	0	32064	
985	0	31900	
986	0	31880	
987	0	31992	
988	0	32066	
989	0	31904	
990	0	31888	
991	0	32004	
992	0	32060	
993	0	31900	
994	0	31880	
995	0	31988	
996	0	32060	
997	0	31896	
998	0	31888	
999	0	31980	
1000	0	32056	
1001	0	31896	
1002	0	31880	
1003	0	31996	
1004	0	32064	
1005	0	31908	
1006	0	31888	
1007	0	31993	
1008	0	32060	
1009	0	31912	
1010	0	31892	
1011	0	32004	
1012	0	32060	
1013	0	31900	
1014	0	31888	
1015	0	32004	
1016	0	32052	
1017	0	31896	
1018	0	31892	
1019	0	32000	
1020	0	32044	
1021	0	31896	
1022	0	31893	
1023	0	32000	
1024	0	32048	
1025	0	31896	
1026	0	31884	
1027	0	32004	
1028	0	32048	
1029	0	31904	
1030	0	31900	
1031	0	32005	
1032	0	32052	
1033	0	31896	
1034	0	31896	
1035	0	32002	
1036	0	32040	
1037	0	31888	
1038	0	31900	
1039	0	32008	
1040	0	32044	
1041	0	31888	
1042	0	31904	
1043	0	32000	
1044	0	32040	
1045	0	31892	
1046	0	31900	
1047	0	32024	
1048	0	32048	
1049	0	31888	
1050	0	31919	
1051	0	32024	
1052	0	32040	
1053	0	31888	
1054	0	31896	
1055	0	32020	
1056	0	32036	
1057	0	31880	
1058	0	31900	
1059	0	32016	
1060	0	32044	
1061	0	31880	
1062	0	31900	
1063	0	32020	
1064	0	32040	
1065	0	31882	
1066	0	31914	
1067	0	32016	
1068	0	32040	
1069	0	31884	
1070	0	31920	
1071	0	32024	
1072	0	32036	
1073	0	31888	
1074	0	31912	
1075	0	32012	
1076	0	32028	
1077	0	31884	
1078	0	31920	
1079	0	32016	
1080	0	32028	
1081	0	31880	
1082	0	31916	
1083	0	32016	
1084	0	32028	
1085	0	31876	
1086	0	31928	
1087	0	32036	
1088	0	32032	
1089	0	31886	
1090	0	31928	
1091	0	32032	
1092	0	32024	
1093	0	31872	
1094	0	31912	
1095	0	32012	
1096	0	32020	
1097	0	31872	
1098	0	31916	
1099	0	32024	
1100	0	32020	
1101	0	31868	
1102	0	31924	
1103	0	32024	
1104	0	32012	
1105	0	31868	
1106	0	31924	
1107	0	32032	
1108	0	32012	
1109	0	31877	
1110	0	31928	
1111	0	32032	
1112	0	32008	
1113	0	31860	
1114	0	31920	
1115	0	32028	
1116	0	32008	
1117	0	31860	
1118	0	31928	
1119	0	32032	
1120	0	32012	
1121	0	31864	
1122	0	31920	
1123	0	32024	
1124	0	32000	
1125	0	31864	
1126	0	31924	
1127	0	32032	
1128	0	32004	
1129	0	31868	
1130	0	31928	
1131	0	32032	
1132	0	32000	
1133	0	31860	
1134	0	31924	
1135	0	32028	
1136	0	32004	
1137	0	31852	
1138	0	31936	
1139	0	32040	
1140	0	32000	
1141	0	31852	
1142	0	31928	
1143	0	32028	
1144	0	31984	
1145	0	31844	
1146	0	31912	
1147	0	32032	
1148	0	31992	
1149	0	31860	
1150	0	31940	
1151	0	32036	
1152	0	31980	
1153	0	31854	
1154	0	31932	
1155	0	32036	
1156	0	31986	
1157	0	31848	
1158	0	31936	
1159	0	32036	
1160	0	31984	
1161	0	31840	
1162	0	31932	
1163	0	32036	
1164	0	31980	
1165	0	31840	
1166	0	31928	
1167	0	32028	
1168	0	31980	
1169	0	31840	
1170	0	31940	
1171	0	32044	
1172	0	31968	
1173	0	31832	
1174	0	31936	
1175	0	32032	
1176	0	31972	
1177	0	31828	
1178	0	31940	
1179	0	32032	
1180	0	31972	
1181	0	31840	
1182	0	31940	
1183	0	32036	
1184	0	31960	
1185	0	31828	
1186	0	31936	
1187	0	32024	
1188	0	31968	
1189	0	31832	
1190	0	31928	
1191	0	32029	
1192	0	31960	
1193	0	31832	
1194	0	31937	
1195	0	32036	
1196	0	31956	
1197	0	31816	
1198	0	31940	
1199	0	32044	
1200	0	31952	
1201	0	31820	
1202	0	31932	
1203	0	32040	
1204	0	31940	
1205	0	31820	
1206	0	31946	
1207	0	32036	
1208	0	31940	
1209	0	31804	
1210	0	31932	
1211	0	32032	
1212	0	31944	
1213	0	31816	
1214	0	31936	
1215	0	32036	
1216	0	31948	
1217	0	31808	
1218	0	31944	
1219	0	32032	
1220	0	31932	
1221	0	31809	
1222	0	31936	
1223	0	32032	
1224	0	31932	
1225	0	31800	
1226	0	31932	
1227	0	32038	
1228	0	31932	
1229	0	31800	
1230	0	31936	
1231	0	32024	
1232	0	31924	
1233	0	31800	
1234	0	31936	
1235	0	32024	
1236	0	31932	
1237	0	31804	
1238	0	31948	
1239	0	32036	
1240	0	31936	
1241	0	31804	
1242	0	31952	
1243	0	32034	
1244	0	31928	
1245	0	31820	
1246	0	31944	
1247	0	32044	
1248	0	31928	
1249	0	31828	
1250	0	31956	
1251	0	32044	
1252	0	31924	
1253	0	31822	
1254	0	31952	
1255	0	32040	
1256	0	31928	
1257	0	31812	
1258	0	31944	
1259	0	32040	
1260	0	31928	
1261	0	31820	
1262	0	31940	
1263	0	32040	
1264	0	31928	
1265	0	31808	
1266	0	31936	
1267	0	32032	
1268	0	31920	
1269	0	31825	
1270	0	31944	
1271	0	32052	
1272	0	31928	
1273	0	31816	
1274	0	31936	
1275	0	32044	
1276	0	31928	
1277	0	31830	
1278	0	31952	
1279	0	32056	
1280	0	31928	
1281	0	31824	
1282	0	31952	
1283	0	32056	
1284	0	31932	
1285	0	31840	
1286	0	31948	
1287	0	32064	
1288	0	31932	
1289	0	31832	
1290	0	31952	
1291	0	32048	
1292	0	31924	
1293	0	31828	
1294	0	31952	
1295	0	32052	
1296	0	31920	
1297	0	31840	
1298	0	31960	
1299	0	32060	
1300	0	31928	
1301	0	31840	
1302	0	31964	
1303	0	32064	
1304	0	31916	
1305	0	31840	
1306	0	31964	
1307	0	32056	
1308	0	31904	
1309	0	31828	
1310	0	31944	
1311	0	32032	
1312	0	31893	
1313	0	31816	
1314	0	31928	
1315	0	32020	
1316	0	31872	
1317	0	31812	
1318	0	31920	
1319	0	32024	
1320	0	31868	
1321	0	31800	
1322	0	31924	
1323	0	32008	
1324	0	31864	
1325	0	31800	
1326	0	31924	
1327	0	32012	
1328	0	31872	
1329	0	31808	
1330	0	31920	
1331	0	32012	
1332	0	31852	
1333	0	31784	
1334	0	31904	
1335	0	31996	
1336	0	31844	
1337	0	31780	
1338	0	31904	
1339	0	32000	
1340	0	31848	
1341	0	31780	
1342	0	31900	
1343	0	31992	
1344	0	31840	
1345	0	31784	
1346	0	31892	
1347	0	31988	
1348	0	31824	
1349	0	31772	
1350	0	31896	
1351	0	31988	
1352	0	31830	
1353	0	31756	
1354	0	31880	
1355	0	31984	
1356	0	31828	
1357	0	31770	
1358	0	31888	
1359	0	31994	
1360	0	31832	
1361	0	31774	
1362	0	31892	
1363	0	31984	
1364	0	31812	
1365	0	31764	
1366	0	31876	
1367	0	31980	
1368	0	31812	
1369	0	31764	
1370	0	31880	
1371	0	31968	
1372	0	31808	
1373	0	31744	
1374	0	31876	
1375	0	31956	
1376	0	31804	
1377	0	31744	
1378	0	31872	
1379	0	31969	
1380	0	31808	
1381	0	31756	
1382	0	31864	
1383	0	31956	
1384	0	31792	
1385	0	31748	
1386	0	31872	
1387	0	31952	
1388	0	31796	
1389	0	31748	
1390	0	31860	
1391	0	31956	
1392	0	31792	
1393	0	31728	
1394	0	31852	
1395	0	31932	
1396	0	31788	
1397	0	31740	
1398	0	31864	
1399	0	31944	
1400	0	31784	
1401	0	31740	
1402	0	31856	
1403	0	31944	
1404	0	31792	
1405	0	31736	
1406	0	31856	
1407	0	31936	
1408	0	31788	
1409	0	31736	
1410	0	31856	
1411	0	31936	
1412	0	31769	
1413	0	31728	
1414	0	31842	
1415	0	31928	
1416	0	31768	
1417	0	31720	
1418	0	31836	
1419	0	31932	
1420	0	31764	
1421	0	31716	
1422	0	31852	
1423	0	31924	
1424	0	31760	
1425	0	31720	
1426	0	31840	
1427	0	31928	
1428	0	31772	
1429	0	31724	
1430	0	31840	
1431	0	31920	
1432	0	31764	
1433	0	31708	
1434	0	31832	
1435	0	31920	
1436	0	31748	
1437	0	31712	
1438	0	31844	
1439	0	31916	
1440	0	31760	
1441	0	31724	
1442	0	31840	
1443	0	31920	
1444	0	31764	
1445	0	31724	
1446	0	31844	
1447	0	31926	
1448	0	31757	
1449	0	31732	
1450	0	31840	
1451	0	31920	
1452	0	31748	
1453	0	31712	
1454	0	31828	
1455	0	31896	
1456	0	31744	
1457	0	31712	
1458	0	31836	
1459	0	31904	
1460	0	31752	
1461	0	31720	
1462	0	31824	
1463	0	31904	
1464	0	31740	
1465	0	31720	
1466	0	31832	
1467	0	31904	
1468	0	31760	
1469	0	31720	
1470	0	31832	
1471	0	31912	
1472	0	31740	
1473	0	31716	
1474	0	31824	
1475	0	31896	
1476	0	31740	
1477	0	31709	
1478	0	31824	
1479	0	31896	
1480	0	31740	
1481	0	31716	
1482	0	31824	
1483	0	31896	
1484	0	31732	
1485	0	31704	
1486	0	31828	
1487	0	31892	
1488	0	31744	
1489	0	31708	
1490	0	31828	
1491	0	31892	
1492	0	31736	
1493	0	31708	
1494	0	31820	
1495	0	31884	
1496	0	31720	
1497	0	31704	
1498	0	31812	
1499	0	31880	
1500	0	31730	
1501	0	31704	
1502	0	31816	
1503	0	31884	
1504	0	31720	
1505	0	31700	
1506	0	31808	
1507	0	31884	
1508	0	31728	
1509	0	31700	
1510	0	31820	
1511	0	31880	
1512	0	31724	
1513	0	31700	
1514	0	31820	
1515	0	31872	
1516	0	31716	
1517	0	31700	
1518	0	31808	
1519	0	31872	
1520	0	31716	
1521	0	31696	
1522	0	31808	
1523	0	31884	
1524	0	31716	
1525	0	31688	
1526	0	31804	
1527	0	31880	
1528	0	31725	
1529	0	31704	
1530	0	31812	
1531	0	31872	
1532	0	31720	
1533	0	31696	
1534	0	31804	
1535	0	31872	
1536	0	31720	
1537	0	31684	
1538	0	31804	
1539	0	31870	
1540	0	31712	
1541	0	31688	
1542	0	31802	
1543	0	31872	
1544	0	31716	
1545	0	31688	
1546	0	31808	
1547	0	31876	
1548	0	31712	
1549	0	31692	
1550	0	31809	
1551	0	31872	
1552	0	31716	
1553	0	31696	
1554	0	31808	
1555	0	31872	
1556	0	31712	
1557	0	31692	
1558	0	31800	
1559	0	31876	
1560	0	31724	
1561	0	31688	
1562	0	31800	
1563	0	31872	
1564	0	31712	
1565	0	31692	
1566	0	31800	
1567	0	31882	
1568	0	31712	
1569	0	31704	
1570	0	31809	
1571	0	31868	
1572	0	31717	
1573	0	31688	
1574	0	31800	
1575	0	31872	
1576	0	31720	
1577	0	31680	
1578	0	31800	
1579	0	31860	
1580	0	31708	
1581	0	31672	
1582	0	31800	
1583	0	31856	
1584	0	31700	
1585	0	31680	
1586	0	31792	
1587	0	31868	
1588	0	31712	
1589	0	31700	
1590	0	31804	
1591	0	31868	
1592	0	31696	
1593	0	31684	
1594	0	31804	
1595	0	31852	
1596	0	31698	
1597	0	31688	
1598	0	31792	
1599	0	31852	
1600	0	31696	
1601	0	31680	
1602	0	31792	
1603	0	31844	
1604	0	31684	
1605	0	31688	
1606	0	31804	
1607	0	31840	
1608	0	31704	
1609	0	31704	
1610	0	31816	
1611	0	31840	
1612	0	31688	
1613	0	31696	
1614	0	31800	
1615	0	31836	
1616	0	31696	
1617	0	31700	
1618	0	31808	
1619	0	31832	
1620	0	31692	
1621	0	31700	
1622	0	31800	
1623	0	31840	
1624	0	31680	
1625	0	31692	
1626	0	31808	
1627	0	31844	
1628	0	31688	
1629	0	31704	
1630	0	31812	
1631	0	31848	
1632	0	31688	
1633	0	31692	
1634	0	31816	
1635	0	31840	
1636	0	31696	
1637	0	31704	
1638	0	31808	
1639	0	31842	
1640	0	31696	
1641	0	31704	
1642	0	31808	
1643	0	31841	
1644	0	31684	
1645	0	31692	
1646	0	31808	
1647	0	31836	
1648	0	31684	
1649	0	31700	
1650	0	31808	
1651	0	31840	
1652	0	31684	
1653	0	31696	
1654	0	31808	
1655	0	31832	
1656	0	31680	
1657	0	31700	
1658	0	31812	
1659	0	31840	
1660	0	31682	
1661	0	31700	
1662	0	31808	
1663	0	31820	
1664	0	31668	
1665	0	31692	
1666	0	31800	
1667	0	31820	
1668	0	31672	
1669	0	31704	
1670	0	31812	
1671	0	31822	
1672	0	31664	
1673	0	31696	
1674	0	31808	
1675	0	31812	
1676	0	31664	
1677	0	31712	
1678	0	31804	
1679	0	31816	
1680	0	31672	
1681	0	31704	
1682	0	31804	
1683	0	31808	
1684	0	31664	
1685	0	31700	
1686	0	31804	
1687	0	31808	
1688	0	31672	
1689	0	31704	
1690	0	31804	
1691	0	31804	
1692	0	31656	
1693	0	31704	
1694	0	31808	
1695	0	31796	
1696	0	31660	
1697	0	31712	
1698	0	31800	
1699	0	31808	
1700	0	31656	
1701	0	31708	
1702	0	31804	
1703	0	31804	
1704	0	31652	
1705	0	31704	
1706	0	31800	
1707	0	31796	
1708	0	31652	
1709	0	31700	
1710	0	31800	
1711	0	31792	
1712	0	31644	
1713	0	31700	
1714	0	31796	
1715	0	31788	
1716	0	31644	
1717	0	31700	
1718	0	31796	
1719	0	31792	
1720	0	31648	
1721	0	31700	
1722	0	31800	
1723	0	31792	
1724	0	31640	
1725	0	31700	
1726	0	31796	
1727	0	31772	
1728	0	31640	
1729	0	31704	
1730	0	31812	
1731	0	31788	
1732	0	31636	
1733	0	31708	
1734	0	31812	
1735	0	31796	
1736	0	31640	
1737	0	31712	
1738	0	31812	
1739	0	31796	
1740	0	31656	
1741	0	31716	
1742	0	31820	
1743	0	31792	
1744	0	31644	
1745	0	31704	
1746	0	31808	
1747	0	31788	
1748	0	31648	
1749	0	31712	
1750	0	31812	
1751	0	31792	
1752	0	31648	
1753	0	31708	
1754	0	31812	
1755	0	31788	
1756	0	31656	
1757	0	31712	
1758	0	31820	
1759	0	31788	
1760	0	31644	
1761	0	31716	
1762	0	31812	
1763	0	31780	
1764	0	31644	
1765	0	31714	
1766	0	31816	
1767	0	31792	
1768	0	31650	
1769	0	31700	
1770	0	31812	
1771	0	31780	
1772	0	31644	
1773	0	31704	
1774	0	31800	
1775	0	31780	
1776	0	31636	
1777	0	31706	
1778	0	31808	
1779	0	31784	
1780	0	31648	
1781	0	31708	
1782	0	31812	
1783	0	31784	
1784	0	31636	
1785	0	31700	
1786	0	31808	
1787	0	31784	
1788	0	31632	
1789	0	31704	
1790	0	31800	
1791	0	31776	
1792	0	31629	
1793	0	31700	
1794	0	31792	
1795	0	31772	
1796	0	31624	
1797	0	31700	
1798	0	31792	
1799	0	31776	
1800	0	31630	
1801	0	31698	
1802	0	31800	
1803	0	31772	
1804	0	31632	
1805	0	31704	
1806	0	31792	
1807	0	31768	
1808	0	31624	
1809	0	31688	
1810	0	31808	
1811	0	31748	
1812	0	31616	
1813	0	31688	
1814	0	31788	
1815	0	31748	
1816	0	31616	
1817	0	31700	
1818	0	31804	
1819	0	31752	
1820	0	31616	
1821	0	31696	
1822	0	31804	
1823	0	31750	
1824	0	31604	
1825	0	31690	
1826	0	31802	
1827	0	31756	
1828	0	31616	
1829	0	31688	
1830	0	31804	
1831	0	31738	
1832	0	31604	
1833	0	31688	
1834	0	31780	
1835	0	31744	
1836	0	31612	
1837	0	31696	
1838	0	31796	
1839	0	31750	
1840	0	31604	
1841	0	31692	
1842	0	31792	
1843	0	31736	
1844	0	31596	
1845	0	31688	
1846	0	31800	
1847	0	31744	
1848	0	31600	
1849	0	31704	
1850	0	31804	
1851	0	31728	
1852	0	31604	
1853	0	31688	
1854	0	31784	
1855	0	31724	
1856	0	31596	
1857	0	31696	
1858	0	31802	
1859	0	31736	
1860	0	31604	
1861	0	31696	
1862	0	31800	
1863	0	31728	
1864	0	31600	
1865	0	31700	
1866	0	31800	
1867	0	31740	
1868	0	31588	
1869	0	31704	
1870	0	31794	
1871	0	31736	
1872	0	31604	
1873	0	31692	
1874	0	31800	
1875	0	31728	
1876	0	31600	
1877	0	31708	
1878	0	31808	
1879	0	31736	
1880	0	31600	
1881	0	31704	
1882	0	31816	
1883	0	31740	
1884	0	31612	
1885	0	31720	
1886	0	31796	
1887	0	31740	
1888	0	31600	
1889	0	31704	
1890	0	31808	
1891	0	31732	
1892	0	31604	
1893	0	31712	
1894	0	31800	
1895	0	31728	
1896	0	31584	
1897	0	31696	
1898	0	31816	
1899	0	31732	
1900	0	31604	
1901	0	31712	
1902	0	31810	
1903	0	31726	
1904	0	31588	
1905	0	31708	
1906	0	31816	
1907	0	31730	
1908	0	31600	
1909	0	31724	
1910	0	31808	
1911	0	31728	
1912	0	31600	
1913	0	31704	
1914	0	31800	
1915	0	31716	
1916	0	31592	
1917	0	31708	
1918	0	31808	
1919	0	31728	
1920	0	31584	
1921	0	31716	
1922	0	31816	
1923	0	31728	
1924	0	31594	
1925	0	31716	
1926	0	31816	
1927	0	31728	
1928	0	31596	
1929	0	31716	
1930	0	31816	
1931	0	31728	
1932	0	31592	
1933	0	31712	
1934	0	31812	
1935	0	31704	
1936	0	31592	
1937	0	31700	
1938	0	31808	
1939	0	31712	
1940	0	31584	
1941	0	31716	
1942	0	31820	
1943	0	31716	
1944	0	31584	
1945	0	31720	
1946	0	31804	
1947	0	31704	
1948	0	31588	
1949	0	31708	
1950	0	31812	
1951	0	31712	
1952	0	31592	
1953	0	31712	
1954	0	31804	
1955	0	31708	
1956	0	31580	
1957	0	31708	
1958	0	31808	
1959	0	31708	
1960	0	31588	
1961	0	31712	
1962	0	31808	
1963	0	31704	
1964	0	31576	
1965	0	31708	
1966	0	31808	
1967	0	31696	
1968	0	31588	
1969	0	31708	
1970	0	31812	
1971	0	31692	
1972	0	31588	
1973	0	31704	
1974	0	31796	
1975	0	31692	
1976	0	31576	
1977	0	31696	
1978	0	31800	
1979	0	31688	
1980	0	31572	
1981	0	31708	
1982	0	31800	
1983	0	31684	
1984	0	31580	
1985	0	31712	
1986	0	31792	
1987	0	31680	
1988	0	31576	
1989	0	31704	
1990	0	31808	
1991	0	31692	
1992	0	31584	
1993	0	31704	
1994	0	31788	
1995	0	31672	
1996	0	31572	
1997	0	31692	
1998	0	31792	
1999	0	31672	
2000	0	31576	
2001	0	31700	
2002	0	31784	
2003	0	31664	
2004	0	31568	
2005	0	31696	
2006	0	31780	
2007	0	31664	
2008	0	31576	
2009	0	31688	
2010	0	31788	
2011	0	31668	
2012	0	31572	
2013	0	31680	
2014	0	31776	
2015	0	31644	
2016	0	31576	
2017	0	31696	
2018	0	31784	
2019	0	31660	
2020	0	31572	
2021	0	31688	
2022	0	31784	
2023	0	31648	
2024	0	31560	
2025	0	31680	
2026	0	31776	
2027	0	31648	
2028	0	31568	
2029	0	31680	
2030	0	31780	
2031	0	31636	
2032	0	31568	
2033	0	31680	
2034	0	31772	
2035	0	31628	
2036	0	31564	
2037	0	31680	
2038	0	31768	
2039	0	31620	
2040	0	31556	
2041	0	31672	
2042	0	31780	
2043	0	31624	
2044	0	31560	
2045	0	31672	
2046	0	31772	
2047	0	31612	
2048	0	31548	
2049	0	31672	
2050	0	31768	
2051	0	31608	
2052	0	31552	
2053	0	31668	
2054	0	31770	
2055	0	31612	
2056	0	31560	
2057	0	31672	
2058	0	31768	
2059	0	31609	
2060	0	31556	
2061	0	31672	
2062	0	31758	
2063	0	31604	
2064	0	31548	
2065	0	31672	
2066	0	31764	
2067	0	31606	
2068	0	31556	
2069	0	31676	
2070	0	31772	
2071	0	31600	
2072	0	31560	
2073	0	31672	
2074	0	31752	
2075	0	31592	
2076	0	31556	
2077	0	31672	
2078	0	31764	
2079	0	31604	
2080	0	31568	
2081	0	31672	
2082	0	31756	
2083	0	31592	
2084	0	31572	
2085	0	31680	
2086	0	31752	
2087	0	31604	
2088	0	31572	
2089	0	31688	
2090	0	31768	
2091	0	31612	
2092	0	31568	
2093	0	31684	
2094	0	31752	
2095	0	31592	
2096	0	31564	
2097	0	31680	
2098	0	31760	
2099	0	31604	
2100	0	31580	
2101	0	31684	
2102	0	31748	
2103	0	31588	
2104	0	31568	
2105	0	31696	
2106	0	31744	
2107	0	31604	
2108	0	31580	
2109	0	31698	
2110	0	31760	
2111	0	31592	
2112	0	31580	
2113	0	31680	
2114	0	31748	
2115	0	31596	
2116	0	31584	
2117	0	31688	
2118	0	31752	
2119	0	31594	
2120	0	31584	
2121	0	31696	
2122	0	31750	
2123	0	31584	
2124	0	31580	
2125	0	31688	
2126	0	31751	
2127	0	31596	
2128	0	31593	
2129	0	31696	
2130	0	31744	
2131	0	31596	
2132	0	31588	
2133	0	31684	
2134	0	31744	
2135	0	31592	
2136	0	31592	
2137	0	31700	
2138	0	31750	
2139	0	31604	
2140	0	31604	
2141	0	31704	
2142	0	31748	
2143	0	31588	
2144	0	31588	
2145	0	31700	
2146	0	31740	
2147	0	31592	
2148	0	31596	
2149	0	31704	
2150	0	31741	
2151	0	31596	
2152	0	31596	
2153	0	31712	
2154	0	31748	
2155	0	31592	
2156	0	31596	
2157	0	31712	
2158	0	31758	
2159	0	31596	
2160	0	31609	
2161	0	31712	
2162	0	31744	
2163	0	31600	
2164	0	31600	
2165	0	31708	
2166	0	31736	
2167	0	31592	
2168	0	31604	
2169	0	31716	
2170	0	31744	
2171	0	31592	
2172	0	31608	
2173	0	31708	
2174	0	31736	
2175	0	31592	
2176	0	31608	
2177	0	31708	
2178	0	31740	
2179	0	31592	
2180	0	31608	
2181	0	31712	
2182	0	31728	
2183	0	31576	
2184	0	31608	
2185	0	31716	
2186	0	31744	
2187	0	31588	
2188	0	31608	
2189	0	31720	
2190	0	31744	
2191	0	31584	
2192	0	31604	
2193	0	31720	
2194	0	31740	
2195	0	31588	
2196	0	31608	
2197	0	31724	
2198	0	31740	
2199	0	31600	
2200	0	31628	
2201	0	31712	
2202	0	31740	
2203	0	31592	
2204	0	31620	
2205	0	31718	
2206	0	31740	
2207	0	31592	
2208	0	31620	
2209	0	31724	
2210	0	31736	
2211	0	31592	
2212	0	31616	
2213	0	31728	
2214	0	31736	
2215	0	31588	
2216	0	31620	
2217	0	31728	
2218	0	31736	
2219	0	31596	
2220	0	31636	
2221	0	31728	
2222	0	31732	
2223	0	31584	
2224	0	31620	
2225	0	31720	
2226	0	31728	
2227	0	31580	
2228	0	31624	
2229	0	31732	
2230	0	31728	
2231	0	31592	
2232	0	31620	
2233	0	31740	
2234	0	31720	
2235	0	31588	
2236	0	31632	
2237	0	31732	
2238	0	31748	
2239	0	31592	
2240	0	31640	
2241	0	31728	
2242	0	31728	
2243	0	31592	
2244	0	31624	
2245	0	31732	
2246	0	31728	
2247	0	31580	
2248	0	31632	
2249	0	31734	
2250	0	31728	
2251	0	31584	
2252	0	31624	
2253	0	31732	
2254	0	31732	
2255	0	31576	
2256	0	31620	
2257	0	31728	
2258	0	31736	
2259	0	31576	
2260	0	31628	
2261	0	31732	
2262	0	31720	
2263	0	31572	
2264	0	31640	
2265	0	31728	
2266	0	31724	
2267	0	31582	
2268	0	31620	
2269	0	31724	
2270	0	31718	
2271	0	31572	
2272	0	31632	
2273	0	31736	
2274	0	31720	
2275	0	31588	
2276	0	31632	
2277	0	31736	
2278	0	31728	
2279	0	31588	
2280	0	31648	
2281	0	31748	
2282	0	31720	
2283	0	31582	
2284	0	31640	
2285	0	31740	
2286	0	31712	
2287	0	31580	
2288	0	31644	
2289	0	31744	
2290	0	31732	
2291	0	31584	
2292	0	31652	
2293	0	31752	
2294	0	31716	
2295	0	31584	
2296	0	31656	
2297	0	31764	
2298	0	31736	
2299	0	31596	
2300	0	31660	
2301	0	31764	
2302	0	31740	
2303	0	31592	
2304	0	31676	
2305	0	31769	
2306	0	31742	
2307	0	31596	
2308	0	31660	
2309	0	31766	
2310	0	31732	
2311	0	31600	
2312	0	31672	
2313	0	31780	
2314	0	31736	
2315	0	31600	
2316	0	31688	
2317	0	31784	
2318	0	31748	
2319	0	31608	
2320	0	31688	
2321	0	31796	
2322	0	31752	
2323	0	31616	
2324	0	31700	
2325	0	31792	
2326	0	31746	
2327	0	31622	
2328	0	31700	
2329	0	31800	
2330	0	31756	
2331	0	31620	
2332	0	31704	
2333	0	31792	
2334	0	31748	
2335	0	31608	
2336	0	31700	
2337	0	31802	
2338	0	31756	
2339	0	31620	
2340	0	31712	
2341	0	31820	
2342	0	31760	
2343	0	31624	
2344	0	31720	
2345	0	31818	
2346	0	31756	
2347	0	31630	
2348	0	31712	
2349	0	31812	
2350	0	31752	
2351	0	31628	
2352	0	31712	
2353	0	31820	
2354	0	31752	
2355	0	31616	
2356	0	31728	
2357	0	31824	
2358	0	31756	
2359	0	31620	
2360	0	31728	
2361	0	31824	
2362	0	31744	
2363	0	31612	
2364	0	31736	
2365	0	31828	
2366	0	31756	
2367	0	31616	
2368	0	31736	
2369	0	31832	
2370	0	31744	
2371	0	31612	
2372	0	31728	
2373	0	31824	
2374	0	31744	
2375	0	31608	
2376	0	31732	
2377	0	31820	
2378	0	31748	
2379	0	31608	
2380	0	31732	
2381	0	31828	
2382	0	31748	
2383	0	31604	
2384	0	31728	
2385	0	31828	
2386	0	31750	
2387	0	31616	
2388	0	31736	
2389	0	31840	
2390	0	31744	
2391	0	31600	
2392	0	31740	
2393	0	31820	
2394	0	31732	
2395	0	31593	
2396	0	31732	
2397	0	31828	
2398	0	31732	
2399	0	31608	
2400	0	31744	
2401	0	31828	
2402	0	31736	
2403	0	31608	
2404	0	31728	
2405	0	31836	
2406	0	31728	
2407	0	31612	
2408	0	31736	
2409	0	31824	
2410	0	31732	
2411	0	31612	
2412	0	31732	
2413	0	31830	
2414	0	31712	
2415	0	31604	
2416	0	31728	
2417	0	31832	
2418	0	31720	
2419	0	31604	
2420	0	31736	
2421	0	31828	
2422	0	31736	
2423	0	31604	
2424	0	31740	
2425	0	31832	
2426	0	31724	
2427	0	31600	
2428	0	31734	
2429	0	31832	
2430	0	31720	
2431	0	31616	
2432	0	31740	
2433	0	31824	
2434	0	31706	
2435	0	31616	
2436	0	31732	
2437	0	31824	
2438	0	31712	
2439	0	31616	
2440	0	31748	
2441	0	31832	
2442	0	31716	
2443	0	31628	
2444	0	31736	
2445	0	31837	
2446	0	31716	
2447	0	31628	
2448	0	31748	
2449	0	31840	
2450	0	31716	
2451	0	31616	
2452	0	31754	
2453	0	31844	
2454	0	31712	
2455	0	31612	
2456	0	31728	
2457	0	31828	
2458	0	31704	
2459	0	31628	
2460	0	31752	
2461	0	31852	
2462	0	31716	
2463	0	31624	
2464	0	31752	
2465	0	31840	
2466	0	31704	
2467	0	31628	
2468	0	31756	
2469	0	31850	
2470	0	31724	
2471	0	31628	
2472	0	31758	
2473	0	31852	
2474	0	31704	
2475	0	31636	
2476	0	31756	
2477	0	31836	
2478	0	31704	
2479	0	31636	
2480	0	31756	
2481	0	31844	
2482	0	31700	
2483	0	31636	
2484	0	31756	
2485	0	31852	
2486	0	31704	
2487	0	31640	
2488	0	31764	
2489	0	31860	
2490	0	31712	
2491	0	31644	
2492	0	31764	
2493	0	31840	
2494	0	31704	
2495	0	31636	
2496	0	31748	
2497	0	31848	
2498	0	31688	
2499	0	31628	
2500	0	31744	
2501	0	31840	
2502	0	31696	
2503	0	31636	
2504	0	31756	
2505	0	31848	
2506	0	31684	
2507	0	31640	
2508	0	31752	
2509	0	31848	
2510	0	31696	
2511	0	31636	
2512	0	31744	
2513	0	31836	
2514	0	31680	
2515	0	31636	
2516	0	31744	
2517	0	31828	
2518	0	31674	
2519	0	31640	
2520	0	31748	
2521	0	31844	
2522	0	31680	
2523	0	31628	
2524	0	31748	
2525	0	31844	
2526	0	31680	
2527	0	31628	
2528	0	31744	
2529	0	31840	
2530	0	31680	
2531	0	31636	
2532	0	31740	
2533	0	31836	
2534	0	31680	
2535	0	31620	
2536	0	31736	
2537	0	31840	
2538	0	31668	
2539	0	31624	
2540	0	31732	
2541	0	31828	
2542	0	31672	
2543	0	31616	
2544	0	31732	
2545	0	31832	
2546	0	31680	
2547	0	31620	
2548	0	31750	
2549	0	31828	
2550	0	31668	
2551	0	31628	
2552	0	31732	
2553	0	31824	
2554	0	31669	
2555	0	31620	
2556	0	31728	
2557	0	31828	
2558	0	31668	
2559	0	31636	
2560	0	31744	
2561	0	31828	
2562	0	31672	
2563	0	31628	
2564	0	31740	
2565	0	31828	
2566	0	31660	
2567	0	31624	
2568	0	31744	
2569	0	31832	
2570	0	31664	
2571	0	31636	
2572	0	31740	
2573	0	31824	
2574	0	31668	
2575	0	31620	
2576	0	31736	
2577	0	31828	
2578	0	31660	
2579	0	31628	
2580	0	31736	
2581	0	31824	
2582	0	31664	
2583	0	31624	
2584	0	31728	
2585	0	31824	
2586	0	31652	
2587	0	31616	
2588	0	31744	
2589	0	31820	
2590	0	31664	
2591	0	31624	
2592	0	31748	
2593	0	31816	
2594	0	31664	
2595	0	31626	
2596	0	31732	
2597	0	31816	
2598	0	31652	
2599	0	31624	
2600	0	31736	
2601	0	31800	
2602	0	31648	
2603	0	31624	
2604	0	31728	
2605	0	31800	
2606	0	31652	
2607	0	31624	
2608	0	31740	
2609	0	31816	
2610	0	31664	
2611	0	31636	
2612	0	31748	
2613	0	31816	
2614	0	31662	
2615	0	31632	
2616	0	31736	
2617	0	31808	
2618	0	31652	
2619	0	31644	
2620	0	31752	
2621	0	31800	
2622	0	31653	
2623	0	31632	
2624	0	31750	
2625	0	31806	
2626	0	31660	
2627	0	31636	
2628	0	31752	
2629	0	31816	
2630	0	31656	
2631	0	31640	
2632	0	31744	
2633	0	31808	
2634	0	31652	
2635	0	31636	
2636	0	31746	
2637	0	31808	
2638	0	31656	
2639	0	31648	
2640	0	31756	
2641	0	31808	
2642	0	31652	
2643	0	31640	
2644	0	31746	
2645	0	31804	
2646	0	31652	
2647	0	31632	
2648	0	31752	
2649	0	31808	
2650	0	31656	
2651	0	31640	
2652	0	31744	
2653	0	31808	
2654	0	31656	
2655	0	31640	
2656	0	31756	
2657	0	31792	
2658	0	31648	
2659	0	31640	
2660	0	31760	
2661	0	31808	
2662	0	31648	
2663	0	31644	
2664	0	31748	
2665	0	31796	
2666	0	31640	
2667	0	31636	
2668	0	31752	
2669	0	31804	
2670	0	31652	
2671	0	31640	
2672	0	31756	
2673	0	31792	
2674	0	31644	
2675	0	31632	
2676	0	31748	
2677	0	31798	
2678	0	31640	
2679	0	31648	
2680	0	31748	
2681	0	31796	
2682	0	31640	
2683	0	31636	
2684	0	31748	
2685	0	31792	
2686	0	31624	
2687	0	31636	
2688	0	31744	
2689	0	31788	
2690	0	31644	
2691	0	31637	
2692	0	31768	
2693	0	31788	
2694	0	31624	
2695	0	31644	
2696	0	31760	
2697	0	31784	
2698	0	31640	
2699	0	31660	
2700	0	31756	
2701	0	31784	
2702	0	31644	
2703	0	31644	
2704	0	31756	
2705	0	31776	
2706	0	31632	
2707	0	31648	
2708	0	31740	
2709	0	31784	
2710	0	31636	
2711	0	31652	
2712	0	31756	
2713	0	31780	
2714	0	31624	
2715	0	31644	
2716	0	31760	
2717	0	31796	
2718	0	31632	
2719	0	31656	
2720	0	31760	
2721	0	31788	
2722	0	31644	
2723	0	31656	
2724	0	31756	
2725	0	31788	
2726	0	31644	
2727	0	31652	
2728	0	31764	
2729	0	31784	
2730	0	31636	
2731	0	31656	
2732	0	31764	
2733	0	31776	
2734	0	31628	
2735	0	31652	
2736	0	31760	
2737	0	31776	
2738	0	31636	
2739	0	31664	
2740	0	31768	
2741	0	31780	
2742	0	31636	
2743	0	31668	
2744	0	31768	
2745	0	31768	
2746	0	31632	
2747	0	31660	
2748	0	31752	
2749	0	31776	
2750	0	31632	
2751	0	31660	
2752	0	31768	
2753	0	31772	
2754	0	31632	
2755	0	31656	
2756	0	31768	
2757	0	31768	
2758	0	31624	
2759	0	31656	
2760	0	31760	
2761	0	31780	
2762	0	31620	
2763	0	31660	
2764	0	31756	
2765	0	31756	
2766	0	31608	
2767	0	31648	
2768	0	31754	
2769	0	31766	
2770	0	31616	
2771	0	31648	
2772	0	31744	
2773	0	31744	
2774	0	31612	
2775	0	31636	
2776	0	31752	
2777	0	31756	
2778	0	31612	
2779	0	31648	
2780	0	31756	
2781	0	31748	
2782	0	31612	
2783	0	31652	
2784	0	31756	
2785	0	31748	
2786	0	31601	
2787	0	31636	
2788	0	31744	
2789	0	31732	
2790	0	31608	
2791	0	31636	
2792	0	31740	
2793	0	31728	
2794	0	31600	
2795	0	31632	
2796	0	31744	
2797	0	31732	
2798	0	31592	
2799	0	31636	
2800	0	31740	
2801	0	31732	
2802	0	31600	
2803	0	31640	
2804	0	31744	
2805	0	31726	
2806	0	31588	
2807	0	31644	
2808	0	31740	
2809	0	31732	
2810	0	31592	
2811	0	31636	
2812	0	31740	
2813	0	31728	
2814	0	31584	
2815	0	31640	
2816	0	31740	
2817	0	31724	
2818	0	31588	
2819	0	31648	
2820	0	31748	
2821	0	31736	
2822	0	31596	
2823	0	31648	
2824	0	31748	
2825	0	31724	
2826	0	31584	
2827	0	31650	
2828	0	31748	
2829	0	31728	
2830	0	31594	
2831	0	31648	
2832	0	31740	
2833	0	31728	
2834	0	31588	
2835	0	31640	
2836	0	31740	
2837	0	31724	
2838	0	31584	
2839	0	31648	
2840	0	31758	
2841	0	31728	
2842	0	31592	
2843	0	31646	
2844	0	31757	
2845	0	31724	
2846	0	31592	
2847	0	31648	
2848	0	31758	
2849	0	31716	
2850	0	31586	
2851	0	31652	
2852	0	31748	
2853	0	31712	
2854	0	31580	
2855	0	31636	
2856	0	31748	
2857	0	31734	
2858	0	31584	
2859	0	31660	
2860	0	31766	
2861	0	31736	
2862	0	31584	
2863	0	31664	
2864	0	31752	
2865	0	31732	
2866	0	31596	
2867	0	31676	
2868	0	31760	
2869	0	31720	
2870	0	31584	
2871	0	31660	
2872	0	31752	
2873	0	31720	
2874	0	31584	
2875	0	31664	
2876	0	31764	
2877	0	31724	
2878	0	31588	
2879	0	31668	
2880	0	31764	
2881	0	31732	
2882	0	31580	
2883	0	31658	
2884	0	31760	
2885	0	31732	
2886	0	31580	
2887	0	31668	
2888	0	31752	
2889	0	31716	
2890	0	31584	
2891	0	31666	
2892	0	31760	
2893	0	31716	
2894	0	31584	
2895	0	31664	
2896	0	31760	
2897	0	31712	
2898	0	31576	
2899	0	31662	
2900	0	31776	
2901	0	31724	
2902	0	31584	
2903	0	31672	
2904	0	31776	
2905	0	31724	
2906	0	31598	
2907	0	31676	
2908	0	31764	
2909	0	31720	
2910	0	31588	
2911	0	31660	
2912	0	31760	
2913	0	31720	
2914	0	31576	
2915	0	31668	
2916	0	31764	
2917	0	31716	
2918	0	31580	
2919	0	31676	
2920	0	31776	
2921	0	31728	
2922	0	31584	
2923	0	31676	
2924	0	31780	
2925	0	31728	
2926	0	31580	
2927	0	31684	
2928	0	31784	
2929	0	31732	
2930	0	31592	
2931	0	31688	
2932	0	31788	
2933	0	31732	
2934	0	31588	
2935	0	31693	
2936	0	31780	
2937	0	31728	
2938	0	31596	
2939	0	31696	
2940	0	31796	
2941	0	31748	
2942	0	31620	
2943	0	31704	
2944	0	31796	
2945	0	31748	
2946	0	31622	
2947	0	31716	
2948	0	31820	
2949	0	31760	
2950	0	31620	
2951	0	31716	
2952	0	31808	
2953	0	31764	
2954	0	31616	
2955	0	31712	
2956	0	31816	
2957	0	31760	
2958	0	31624	
2959	0	31720	
2960	0	31829	
2961	0	31777	
2962	0	31648	
2963	0	31732	
2964	0	31836	
2965	0	31784	
2966	0	31644	
2967	0	31736	
2968	0	31840	
2969	0	31796	
2970	0	31660	
2971	0	31756	
2972	0	31860	
2973	0	31800	
2974	0	31652	
2975	0	31756	
2976	0	31860	
2977	0	31804	
2978	0	31672	
2979	0	31768	
2980	0	31868	
2981	0	31824	
2982	0	31688	
2983	0	31788	
2984	0	31888	
2985	0	31832	
2986	0	31696	
2987	0	31808	
2988	0	31904	
2989	0	31848	
2990	0	31724	
2991	0	31834	
2992	0	31936	
2993	0	31868	
2994	0	31724	
2995	0	31836	
2996	0	31944	
2997	0	31880	
2998	0	31740	
2999	0	31856	
3000	0	31968	
3001	0	31904	
3002	0	31768	
3003	0	31878	
3004	0	31973	
3005	0	31908	
3006	0	31776	
3007	0	31880	
3008	0	31992	
3009	0	31921	
3010	0	31788	
3011	0	31904	
3012	0	32012	
3013	0	31928	
3014	0	31796	
3015	0	31916	
3016	0	32024	
3017	0	31956	
3018	0	31808	
3019	0	31940	
3020	0	32040	
3021	0	31968	
3022	0	31840	
3023	0	31960	
3024	0	32056	
3025	0	31978	
3026	0	31848	
3027	0	31972	
3028	0	32072	
3029	0	32000	
3030	0	31876	
3031	0	31972	
3032	0	32092	
3033	0	32004	
3034	0	31868	
3035	0	31992	
3036	0	32092	
3037	0	32020	
3038	0	31880	
3039	0	31996	
3040	0	32104	
3041	0	32036	
3042	0	31884	
3043	0	32016	
3044	0	32120	
3045	0	32036	
3046	0	31896	
3047	0	32020	
3048	0	32128	
3049	0	32052	
3050	0	31908	
3051	0	32036	
3052	0	32128	
3053	0	32048	
3054	0	31914	
3055	0	32032	
3056	0	32140	
3057	0	32048	
3058	0	31916	
3059	0	32048	
3060	0	32148	
3061	0	32052	
3062	0	31916	
3063	0	32040	
3064	0	32144	
3065	0	32044	
3066	0	31916	
3067	0	32040	
3068	0	32142	
3069	0	32060	
3070	0	31912	
3071	0	32052	
3072	0	32146	
3073	0	32052	
3074	0	31926	
3075	0	32040	
3076	0	32152	
3077	0	32048	
3078	0	31916	
3079	0	32052	
3080	0	32136	
3081	0	32048	
3082	0	31912	
3083	0	32048	
3084	0	32152	
3085	0	32044	
3086	0	31916	
3087	0	32049	
3088	0	32152	
3089	0	32052	
3090	0	31920	
3091	0	32058	
3092	0	32148	
3093	0	32048	
3094	0	31920	
3095	0	32061	
3096	0	32152	
3097	0	32048	
3098	0	31932	
3099	0	32048	
3100	0	32148	
3101	0	32052	
3102	0	31920	
3103	0	32048	
3104	0	32152	
3105	0	32036	
3106	0	31920	
3107	0	32052	
3108	0	32152	
3109	0	32056	
3110	0	31920	
3111	0	32052	
3112	0	32156	
3113	0	32032	
3114	0	31920	
3115	0	32048	
3116	0	32140	
3117	0	32040	
3118	0	31912	
3119	0	32058	
3120	0	32150	
3121	0	32033	
3122	0	31916	
3123	0	32052	
3124	0	32148	
3125	0	32044	
3126	0	31908	
3127	0	32048	
3128	0	32156	
3129	0	32048	
3130	0	31928	
3131	0	32052	
3132	0	32148	
3133	0	32040	
3134	0	31912	
3135	0	32052	
3136	0	32144	
3137	0	32044	
3138	0	31920	
3139	0	32052	
3140	0	32140	
3141	0	32032	
3142	0	31920	
3143	0	32056	
3144	0	32132	
3145	0	32032	
3146	0	31916	
3147	0	32044	
3148	0	32144	
3149	0	32036	
3150	0	31936	
3151	0	32052	
3152	0	32148	
3153	0	32028	
3154	0	31916	
3155	0	32052	
3156	0	32152	
3157	0	32028	
3158	0	31928	
3159	0	32040	
3160	0	32149	
3161	0	32032	
3162	0	31928	
3163	0	32048	
3164	0	32144	
3165	0	32016	
3166	0	31916	
3167	0	32052	
3168	0	32152	
3169	0	32028	
3170	0	31928	
3171	0	32048	
3172	0	32156	
3173	0	32024	
3174	0	31940	
3175	0	32056	
3176	0	32148	
3177	0	32024	
3178	0	31940	
3179	0	32060	
3180	0	32160	
3181	0	32032	
3182	0	31932	
3183	0	32064	
3184	0	32152	
3185	0	32024	
3186	0	31940	
3187	0	32060	
3188	0	32160	
3189	0	32028	
3190	0	31932	
3191	0	32064	
3192	0	32164	
3193	0	32028	
3194	0	31940	
3195	0	32064	
3196	0	32168	
3197	0	32032	
3198	0	31948	
3199	0	32084	
3200	0	32172	
3201	0	32040	
3202	0	31952	
3203	0	32076	
3204	0	32176	
3205	0	32028	
3206	0	31946	
3207	0	32072	
3208	0	32180	
3209	0	32040	
3210	0	31960	
3211	0	32082	
3212	0	32188	
3213	0	32044	
3214	0	31960	
3215	0	32100	
3216	0	32200	
3217	0	32044	
3218	0	31976	
3219	0	32108	
3220	0	32196	
3221	0	32064	
3222	0	31976	
3223	0	32092	
3224	0	32200	
3225	0	32044	
3226	0	31976	
3227	0	32112	
3228	0	32196	
3229	0	32052	
3230	0	31986	
3231	0	32113	
3232	0	32202	
3233	0	32056	
3234	0	32000	
3235	0	32116	
3236	0	32208	
3237	0	32056	
3238	0	32004	
3239	0	32132	
3240	0	32220	
3241	0	32068	
3242	0	31996	
3243	0	32116	
3244	0	32216	
3245	0	32052	
3246	0	32000	
3247	0	32112	
3248	0	32216	
3249	0	32048	
3250	0	32000	
3251	0	32120	
3252	0	32212	
3253	0	32053	
3254	0	32008	
3255	0	32121	
3256	0	32212	
3257	0	32056	
3258	0	32012	
3259	0	32128	
3260	0	32224	
3261	0	32040	
3262	0	32008	
3263	0	32128	
3264	0	32208	
3265	0	32044	
3266	0	32005	
3267	0	32120	
3268	0	32208	
3269	0	32048	
3270	0	32008	
3271	0	32128	
3272	0	32212	
3273	0	32040	
3274	0	32000	
3275	0	32128	
3276	0	32208	
3277	0	32048	
3278	0	32032	
3279	0	32124	
3280	0	32212	
3281	0	32048	
3282	0	32008	
3283	0	32128	
3284	0	32208	
3285	0	32032	
3286	0	32004	
3287	0	32124	
3288	0	32204	
3289	0	32034	
3290	0	31996	
3291	0	32132	
3292	0	32188	
3293	0	32032	
3294	0	32012	
3295	0	32112	
3296	0	32192	
3297	0	32038	
3298	0	32008	
3299	0	32124	
3300	0	32192	
3301	0	32032	
3302	0	32008	
3303	0	32120	
3304	0	32193	
3305	0	32028	
3306	0	32010	
3307	0	32112	
3308	0	32173	
3309	0	32020	
3310	0	31992	
3311	0	32120	
3312	0	32168	
3313	0	32000	
3314	0	31996	
3315	0	32108	
3316	0	32168	
3317	0	32008	
3318	0	31996	
3319	0	32120	
3320	0	32168	
3321	0	32016	
3322	0	32008	
3323	0	32120	
3324	0	32168	
3325	0	32012	
3326	0	32000	
3327	0	32108	
3328	0	32164	
3329	0	32000	
3330	0	31992	
3331	0	32104	
3332	0	32164	
3333	0	31996	
3334	0	31992	
3335	0	32100	
3336	0	32144	
3337	0	31996	
3338	0	31992	
3339	0	32112	
3340	0	32168	
3341	0	32004	
3342	0	31992	
3343	0	32108	
3344	0	32148	
3345	0	31984	
3346	0	32004	
3347	0	32104	
3348	0	32136	
3349	0	32004	
3350	0	32004	
3351	0	32114	
3352	0	32144	
3353	0	31988	
3354	0	32004	
3355	0	32120	
3356	0	32144	
3357	0	31992	
3358	0	32024	
3359	0	32120	
3360	0	32140	
3361	0	32004	
3362	0	32020	
3363	0	32136	
3364	0	32152	
3365	0	31984	
3366	0	32020	
3367	0	32128	
3368	0	32128	
3369	0	31996	
3370	0	32024	
3371	0	32128	
3372	0	32136	
3373	0	32000	
3374	0	32024	
3375	0	32148	
3376	0	32132	
3377	0	31984	
3378	0	32028	
3379	0	32148	
3380	0	32152	
3381	0	32000	
3382	0	32040	
3383	0	32144	
3384	0	32144	
3385	0	31988	
3386	0	32028	
3387	0	32140	
3388	0	32160	
3389	0	32000	
3390	0	32044	
3391	0	32144	
3392	0	32148	
3393	0	31992	
3394	0	32040	
3395	0	32148	
3396	0	32148	
3397	0	31996	
3398	0	32044	
3399	0	32156	
3400	0	32148	
3401	0	31996	
3402	0	32048	
3403	0	32168	
3404	0	32152	
3405	0	32004	
3406	0	32056	
3407	0	32164	
3408	0	32156	
3409	0	32012	
3410	0	32060	
3411	0	32168	
3412	0	32152	
3413	0	32008	
3414	0	32060	
3415	0	32168	
3416	0	32152	
3417	0	32008	
3418	0	32072	
3419	0	32176	
3420	0	32164	
3421	0	32008	
3422	0	32072	
3423	0	32172	
3424	0	32152	
3425	0	32008	
3426	0	32072	
3427	0	32168	
3428	0	32148	
3429	0	32016	
3430	0	32080	
3431	0	32168	
3432	0	32152	
3433	0	32004	
3434	0	32064	
3435	0	32174	
3436	0	32144	
3437	0	32000	
3438	0	32080	
3439	0	32180	
3440	0	32136	
3441	0	32008	
3442	0	32076	
3443	0	32176	
3444	0	32156	
3445	0	32008	
3446	0	32084	
3447	0	32176	
3448	0	32140	
3449	0	32004	
3450	0	32068	
3451	0	32176	
3452	0	32144	
3453	0	31996	
3454	0	32048	
3455	0	32160	
3456	0	32120	
3457	0	31980	
3458	0	32052	
3459	0	32160	
3460	0	32116	
3461	0	31984	
3462	0	32060	
3463	0	32164	
3464	0	32132	
3465	0	31984	
3466	0	32052	
3467	0	32160	
3468	0	32112	
3469	0	31976	
3470	0	32052	
3471	0	32168	
3472	0	32124	
3473	0	31980	
3474	0	32052	
3475	0	32152	
3476	0	32100	
3477	0	31960	
3478	0	32044	
3479	0	32148	
3480	0	32112	
3481	0	31960	
3482	0	32056	
3483	0	32144	
3484	0	32096	
3485	0	31956	
3486	0	32040	
3487	0	32148	
3488	0	32096	
3489	0	31968	
3490	0	32052	
3491	0	32152	
3492	0	32100	
3493	0	31944	
3494	0	32036	
3495	0	32144	
3496	0	32080	
3497	0	31944	
3498	0	32040	
3499	0	32144	
3500	0	32088	
3501	0	31940	
3502	0	32036	
3503	0	32140	
3504	0	32084	
3505	0	31940	
3506	0	32040	
3507	0	32144	
3508	0	32089	
3509	0	31944	
3510	0	32040	
3511	0	32136	
3512	0	32068	
3513	0	31928	
3514	0	32042	
3515	0	32132	
3516	0	32064	
3517	0	31928	
3518	0	32052	
3519	0	32144	
3520	0	32068	
3521	0	31928	
3522	0	32044	
3523	0	32148	
3524	0	32056	
3525	0	31920	
3526	0	32040	
3527	0	32160	
3528	0	32072	
3529	0	31932	
3530	0	32048	
3531	0	32164	
3532	0	32064	
3533	0	31924	
3534	0	32052	
3535	0	32152	
3536	0	32064	
3537	0	31916	
3538	0	32044	
3539	0	32148	
3540	0	32064	
3541	0	31924	
3542	0	32048	
3543	0	32156	
3544	0	32056	
3545	0	31928	
3546	0	32060	
3547	0	32168	
3548	0	32056	
3549	0	31924	
3550	0	32064	
3551	0	32160	
3552	0	32064	
3553	0	31936	
3554	0	32068	
3555	0	32160	
3556	0	32056	
3557	0	31932	
3558	0	32066	
3559	0	32160	
3560	0	32064	
3561	0	31936	
3562	0	32064	
3563	0	32164	
3564	0	32056	
3565	0	31938	
3566	0	32068	
3567	0	32160	
3568	0	32068	
3569	0	31940	
3570	0	32084	
3571	0	32181	
3572	0	32076	
3573	0	31940	
3574	0	32076	
3575	0	32172	
3576	0	32064	
3577	0	31936	
3578	0	32072	
3579	0	32172	
3580	0	32064	
3581	0	31948	
3582	0	32068	
3583	0	32172	
3584	0	32064	
3585	0	31936	
3586	0	32068	
3587	0	32176	
3588	0	32064	
3589	0	31952	
3590	0	32090	
3591	0	32186	
3592	0	32068	
3593	0	31945	
3594	0	32068	
3595	0	32176	
3596	0	32052	
3597	0	31952	
3598	0	32072	
3599	0	32176	
3600	0	32052	
3601	0	31944	
3602	0	32080	
3603	0	32180	
3604	0	32056	
3605	0	31960	
3606	0	32080	
3607	0	32169	
3608	0	32056	
3609	0	31956	
3610	0	32076	
3611	0	32180	
3612	0	32048	
3613	0	31952	
3614	0	32072	
3615	0	32168	
3616	0	32044	
3617	0	31952	
3618	0	32076	
3619	0	32176	
3620	0	32040	
3621	0	31952	
3622	0	32076	
3623	0	32172	
3624	0	32040	
3625	0	31956	
3626	0	32088	
3627	0	32176	
3628	0	32036	
3629	0	31964	
3630	0	32084	
3631	0	32184	
3632	0	32040	
3633	0	31968	
3634	0	32080	
3635	0	32176	
3636	0	32028	
3637	0	31968	
3638	0	32076	
3639	0	32180	
3640	0	32032	
3641	0	31960	
3642	0	32072	
3643	0	32172	
3644	0	32012	
3645	0	31956	
3646	0	32078	
3647	0	32180	
3648	0	32020	
3649	0	31952	
3650	0	32080	
3651	0	32172	
3652	0	32028	
3653	0	31952	
3654	0	32080	
3655	0	32168	
3656	0	32020	
3657	0	31957	
3658	0	32072	
3659	0	32168	
3660	0	32030	
3661	0	31968	
3662	0	32088	
3663	0	32168	
3664	0	32016	
3665	0	31960	
3666	0	32072	
3667	0	32172	
3668	0	32020	
3669	0	31960	
3670	0	32090	
3671	0	32188	
3672	0	32020	
3673	0	31960	
3674	0	32088	
3675	0	32184	
3676	0	32020	
3677	0	31972	
3678	0	32088	
3679	0	32176	
3680	0	32024	
3681	0	31972	
3682	0	32092	
3683	0	32180	
3684	0	32024	
3685	0	31968	
3686	0	32092	
3687	0	32172	
3688	0	32012	
3689	0	31968	
3690	0	32092	
3691	0	32192	
3692	0	32024	
3693	0	31980	
3694	0	32092	
3695	0	32184	
3696	0	32024	
3697	0	31972	
3698	0	32100	
3699	0	32200	
3700	0	32044	
3701	0	31996	
3702	0	32108	
3703	0	32196	
3704	0	32032	
3705	0	31992	
3706	0	32100	
3707	0	32200	
3708	0	32032	
3709	0	32000	
3710	0	32116	
3711	0	32200	
3712	0	32044	
3713	0	32000	
3714	0	32124	
3715	0	32220	
3716	0	32032	
3717	0	32008	
3718	0	32124	
3719	0	32208	
3720	0	32040	
3721	0	32012	
3722	0	32122	
3723	0	32200	
3724	0	32024	
3725	0	32000	
3726	0	32116	
3727	0	32200	
3728	0	32036	
3729	0	32016	
3730	0	32124	
3731	0	32200	
3732	0	32034	
3733	0	32024	
3734	0	32120	
3735	0	32188	
3736	0	32040	
3737	0	32013	
3738	0	32120	
3739	0	32192	
3740	0	32040	
3741	0	32020	
3742	0	32128	
3743	0	32192	
3744	0	32032	
3745	0	32004	
3746	0	32124	
3747	0	32180	
3748	0	32024	
3749	0	32010	
3750	0	32124	
3751	0	32188	
3752	0	32016	
3753	0	32012	
3754	0	32120	
3755	0	32180	
3756	0	32020	
3757	0	32012	
3758	0	32124	
3759	0	32176	
3760	0	32016	
3761	0	32008	
3762	0	32116	
3763	0	32176	
3764	0	32020	
3765	0	32020	
3766	0	32116	
3767	0	32164	
3768	0	32016	
3769	0	32004	
3770	0	32124	
3771	0	32168	
3772	0	32008	
3773	0	32004	
3774	0	32112	
3775	0	32160	
3776	0	32012	
3777	0	32012	
3778	0	32126	
3779	0	32172	
3780	0	32012	
3781	0	32008	
3782	0	32128	
3783	0	32168	
3784	0	32000	
3785	0	32016	
3786	0	32120	
3787	0	32156	
3788	0	32000	
3789	0	32008	
3790	0	32116	
3791	0	32152	
3792	0	32000	
3793	0	32014	
3794	0	32112	
3795	0	32141	
3796	0	31996	
3797	0	32008	
3798	0	32112	
3799	0	32160	
3800	0	32004	
3801	0	32008	
3802	0	32128	
3803	0	32160	
3804	0	32004	
3805	0	32008	
3806	0	32120	
3807	0	32148	
3808	0	32004	
3809	0	32020	
3810	0	32132	
3811	0	32148	
3812	0	32000	
3813	0	32016	
3814	0	32124	
3815	0	32148	
3816	0	31984	
3817	0	32012	
3818	0	32124	
3819	0	32152	
3820	0	32004	
3821	0	32024	
3822	0	32132	
3823	0	32160	
3824	0	32004	
3825	0	32028	
3826	0	32136	
3827	0	32160	
3828	0	32004	
3829	0	32032	
3830	0	32140	
3831	0	32156	
3832	0	32004	
3833	0	32032	
3834	0	32140	
3835	0	32158	
3836	0	31992	
3837	0	32036	
3838	0	32144	
3839	0	32156	
3840	0	32016	
3841	0	32044	
3842	0	32156	
3843	0	32156	
3844	0	32008	
3845	0	32048	
3846	0	32156	
3847	0	32168	
3848	0	32020	
3849	0	32048	
3850	0	32156	
3851	0	32168	
3852	0	32016	
3853	0	32048	
3854	0	32152	
3855	0	32160	
3856	0	32018	
3857	0	32064	
3858	0	32172	
3859	0	32176	
3860	0	32024	
3861	0	32076	
3862	0	32184	
3863	0	32164	
3864	0	32024	
3865	0	32072	
3866	0	32176	
3867	0	32176	
3868	0	32024	
3869	0	32072	
3870	0	32181	
3871	0	32168	
3872	0	32016	
3873	0	32064	
3874	0	32176	
3875	0	32168	
3876	0	32010	
3877	0	32084	
3878	0	32184	
3879	0	32172	
3880	0	32032	
3881	0	32092	
3882	0	32200	
3883	0	32172	
3884	0	32024	
3885	0	32088	
3886	0	32200	
3887	0	32172	
3888	0	32032	
3889	0	32096	
3890	0	32200	
3891	0	32168	
3892	0	32008	
3893	0	32096	
3894	0	32184	
3895	0	32164	
3896	0	32020	
3897	0	32092	
3898	0	32196	
3899	0	32168	
3900	0	32020	
3901	0	32100	
3902	0	32208	
3903	0	32168	
3904	0	32024	
3905	0	32100	
3906	0	32208	
3907	0	32156	
3908	0	32024	
3909	0	32108	
3910	0	32208	
3911	0	32164	
3912	0	32024	
3913	0	32096	
3914	0	32202	
3915	0	32164	
3916	0	32016	
3917	0	32100	
3918	0	32196	
3919	0	32160	
3920	0	32020	
3921	0	32112	
3922	0	32208	
3923	0	32156	
3924	0	32008	
3925	0	32096	
3926	0	32200	
3927	0	32160	
3928	0	32016	
3929	0	32105	
3930	0	32204	
3931	0	32148	
3932	0	32020	
3933	0	32092	
3934	0	32192	
3935	0	32136	
3936	0	32000	
3937	0	32096	
3938	0	32204	
3939	0	32148	
3940	0	32000	
3941	0	32097	
3942	0	32196	
3943	0	32144	
3944	0	32004	
3945	0	32096	
3946	0	32200	
3947	0	32152	
3948	0	32004	
3949	0	32100	
3950	0	32200	
3951	0	32136	
3952	0	32000	
3953	0	32096	
3954	0	32204	
3955	0	32128	
3956	0	31996	
3957	0	32096	
3958	0	32204	
3959	0	32136	
3960	0	32007	
3961	0	32104	
3962	0	32208	
3963	0	32128	
3964	0	31998	
3965	0	32100	
3966	0	32204	
3967	0	32148	
3968	0	32004	
3969	0	32104	
3970	0	32208	
3971	0	32144	
3972	0	31992	
3973	0	32104	
3974	0	32200	
3975	0	32132	
3976	0	31996	
3977	0	32092	
3978	0	32194	
3979	0	32128	
3980	0	31996	
3981	0	32108	
3982	0	32200	
3983	0	32132	
3984	0	32000	
3985	0	32104	
3986	0	32216	
3987	0	32128	
3988	0	32002	
3989	0	32108	
3990	0	32212	
3991	0	32132	
3992	0	31984	
3993	0	32108	
3994	0	32208	
3995	0	32108	
3996	0	31984	
3997	0	32108	
3998	0	32212	
3999	0	32124	
4000	0	31992	
4001	0	32116	
4002	0	32216	
4003	0	32136	
4004	0	31996	
4005	0	32120	
4006	0	32224	
4007	0	32132	
4008	0	32005	
4009	0	32128	
4010	0	32224	
4011	0	32128	
4012	0	31996	
4013	0	32124	
4014	0	32232	
4015	0	32120	
4016	0	31976	
4017	0	32120	
4018	0	32220	
4019	0	32128	
4020	0	31988	
4021	0	32120	
4022	0	32224	
4023	0	32124	
4024	0	31992	
4025	0	32120	
4026	0	32224	
4027	0	32120	
4028	0	31996	
4029	0	32128	
4030	0	32240	
4031	0	32120	
4032	0	31992	
4033	0	32116	
4034	0	32224	
4035	0	32104	
4036	0	32000	
4037	0	32116	
4038	0	32212	
4039	0	32108	
4040	0	31992	
4041	0	32132	
4042	0	32224	
4043	0	32108	
4044	0	31984	
4045	0	32124	
4046	0	32216	
4047	0	32116	
4048	0	31996	
4049	0	32124	
4050	0	32224	
4051	0	32108	
4052	0	31992	
4053	0	32132	
4054	0	32216	
4055	0	32096	
4056	0	31988	
4057	0	32114	
4058	0	32222	
4059	0	32108	
4060	0	31992	
4061	0	32124	
4062	0	32208	
4063	0	32100	
4064	0	32000	
4065	0	32128	
4066	0	32232	
4067	0	32088	
4068	0	32000	
4069	0	32128	
4070	0	32224	
4071	0	32088	
4072	0	32004	
4073	0	32120	
4074	0	32212	
4075	0	32092	
4076	0	31992	
4077	0	32120	
4078	0	32220	
4079	0	32088	
4080	0	31992	
4081	0	32128	
4082	0	32212	
4083	0	32084	
4084	0	31992	
4085	0	32120	
4086	0	32224	
4087	0	32084	
4088	0	32000	
4089	0	32128	
4090	0	32232	
4091	0	32088	
4092	0	32004	
4093	0	32120	
4094	0	32224	
4095	0	32068	
4096	0	32012	
4097	0	32120	
4098	0	32224	
4099	0	32080	
4100	0	32016	
4101	0	32128	
4102	0	32228	
4103	0	32076	
4104	0	32012	
4105	0	32128	
4106	0	32224	
4107	0	32074	
4108	0	32016	
4109	0	32152	
4110	0	32240	
4111	0	32084	
4112	0	32024	
4113	0	32144	
4114	0	32244	
4115	0	32074	
4116	0	32024	
4117	0	32140	
4118	0	32242	
4119	0	32084	
4120	0	32036	
4121	0	32156	
4122	0	32232	
4123	0	32064	
4124	0	32028	
4125	0	32152	
4126	0	32248	
4127	0	32072	
4128	0	32040	
4129	0	32160	
4130	0	32256	
4131	0	32096	
4132	0	32048	
4133	0	32156	
4134	0	32252	
4135	0	32093	
4136	0	32040	
4137	0	32164	
4138	0	32257	
4139	0	32084	
4140	0	32048	
4141	0	32164	
4142	0	32256	
4143	0	32090	
4144	0	32048	
4145	0	32168	
4146	0	32248	
4147	0	32092	
4148	0	32064	
4149	0	32184	
4150	0	32260	
4151	0	32096	
4152	0	32068	
4153	0	32184	
4154	0	32256	
4155	0	32092	
4156	0	32056	
4157	0	32168	
4158	0	32252	
4159	0	32088	
4160	0	32064	
4161	0	32184	
4162	0	32252	
4163	0	32088	
4164	0	32052	
4165	0	32180	
4166	0	32244	
4167	0	32096	
4168	0	32068	
4169	0	32188	
4170	0	32256	
4171	0	32100	
4172	0	32076	
4173	0	32188	
4174	0	32248	
4175	0	32085	
4176	0	32072	
4177	0	32188	
4178	0	32248	
4179	0	32084	
4180	0	32080	
4181	0	32184	
4182	0	32252	
4183	0	32092	
4184	0	32084	
4185	0	32188	
4186	0	32236	
4187	0	32080	
4188	0	32084	
4189	0	32188	
4190	0	32244	
4191	0	32080	
4192	0	32088	
4193	0	32200	
4194	0	32244	
4195	0	32084	
4196	0	32088	
4197	0	32204	
4198	0	32236	
4199	0	32080	
4200	0	32088	
4201	0	32204	
4202	0	32232	
4203	0	32080	
4204	0	32088	
4205	0	32192	
4206	0	32228	
4207	0	32072	
4208	0	32096	
4209	0	32208	
4210	0	32228	
4211	0	32076	
4212	0	32100	
4213	0	32204	
4214	0	32212	
4215	0	32064	
4216	0	32096	
4217	0	32204	
4218	0	32224	
4219	0	32072	
4220	0	32096	
4221	0	32216	
4222	0	32222	
4223	0	32068	
4224	0	32096	
4225	0	32204	
4226	0	32204	
4227	0	32056	
4228	0	32092	
4229	0	32212	
4230	0	32216	
4231	0	32064	
4232	0	32104	
4233	0	32216	
4234	0	32208	
4235	0	32068	
4236	0	32100	
4237	0	32208	
4238	0	32208	
4239	0	32060	
4240	0	32112	
4241	0	32224	
4242	0	32212	
4243	0	32060	
4244	0	32108	
4245	0	32212	
4246	0	32188	
4247	0	32052	
4248	0	32104	
4249	0	32208	
4250	0	32188	
4251	0	32048	
4252	0	32120	
4253	0	32228	
4254	0	32192	
4255	0	32048	
4256	0	32128	
4257	0	32224	
4258	0	32204	
4259	0	32052	
4260	0	32120	
4261	0	32228	
4262	0	32184	
4263	0	32050	
4264	0	32128	
4265	0	32228	
4266	0	32180	
4267	0	32052	
4268	0	32128	
4269	0	32232	
4270	0	32192	
4271	0	32044	
4272	0	32132	
4273	0	32232	
4274	0	32196	
4275	0	32048	
4276	0	32136	
4277	0	32244	
4278	0	32200	
4279	0	32056	
4280	0	32136	
4281	0	32256	
4282	0	32192	
4283	0	32048	
4284	0	32140	
4285	0	32244	
4286	0	32176	
4287	0	32040	
4288	0	32132	
4289	0	32248	
4290	0	32180	
4291	0	32040	
4292	0	32156	
4293	0	32252	
4294	0	32186	
4295	0	32052	
4296	0	32148	
4297	0	32256	
4298	0	32188	
4299	0	32044	
4300	0	32164	
4301	0	32256	
4302	0	32184	
4303	0	32044	
4304	0	32148	
4305	0	32256	
4306	0	32180	
4307	0	32040	
4308	0	32160	
4309	0	32256	
4310	0	32180	
4311	0	32024	
4312	0	32152	
4313	0	32260	
4314	0	32168	
4315	0	32028	
4316	0	32160	
4317	0	32256	
4318	0	32172	
4319	0	32032	
4320	0	32164	
4321	0	32260	
4322	0	32168	
4323	0	32028	
4324	0	32176	
4325	0	32260	
4326	0	32164	
4327	0	32028	
4328	0	32160	
4329	0	32260	
4330	0	32164	
4331	0	32024	
4332	0	32160	
4333	0	32256	
4334	0	32156	
4335	0	32022	
4336	0	32160	
4337	0	32256	
4338	0	32156	
4339	0	32032	
4340	0	32160	
4341	0	32262	
4342	0	32152	
4343	0	32032	
4344	0	32160	
4345	0	32250	
4346	0	32136	
4347	0	32032	
4348	0	32152	
4349	0	32260	
4350	0	32140	
4351	0	32048	
4352	0	32160	
4353	0	32256	
4354	0	32128	
4355	0	32028	
4356	0	32160	
4357	0	32252	
4358	0	32140	
4359	0	32032	
4360	0	32172	
4361	0	32272	
4362	0	32128	
4363	0	32032	
4364	0	32156	
4365	0	32256	
4366	0	32128	
4367	0	32040	
4368	0	32160	
4369	0	32268	
4370	0	32124	
4371	0	32036	
4372	0	32164	
4373	0	32252	
4374	0	32110	
4375	0	32028	
4376	0	32160	
4377	0	32263	
4378	0	32108	
4379	0	32036	
4380	0	32168	
4381	0	32276	
4382	0	32112	
4383	0	32056	
4384	0	32160	
4385	0	32256	
4386	0	32108	
4387	0	32044	
4388	0	32172	
4389	0	32264	
4390	0	32100	
4391	0	32048	
4392	0	32160	
4393	0	32252	
4394	0	32088	
4395	0	32040	
4396	0	32164	
4397	0	32256	
4398	0	32092	
4399	0	32048	
4400	0	32172	
4401	0	32260	
4402	0	32108	
4403	0	32044	
4404	0	32164	
4405	0	32256	
4406	0	32108	
4407	0	32040	
4408	0	32164	
4409	0	32256	
4410	0	32116	
4411	0	32048	
4412	0	32164	
4413	0	32253	
4414	0	32104	
4415	0	32024	
4416	0	32156	
4417	0	32244	
4418	0	32112	
4419	0	32032	
4420	0	32160	
4421	0	32260	
4422	0	32120	
4423	0	32040	
4424	0	32152	
4425	0	32256	
4426	0	32117	
4427	0	32032	
4428	0	32164	
4429	0	32260	
4430	0	32132	
4431	0	32020	
4432	0	32149	
4433	0	32252	
4434	0	32128	
4435	0	32016	
4436	0	32144	
4437	0	32244	
4438	0	32140	
4439	0	32012	
4440	0	32152	
4441	0	32244	
4442	0	32144	
4443	0	32008	
4444	0	32136	
4445	0	32236	
4446	0	32140	
4447	0	32020	
4448	0	32140	
4449	0	32256	
4450	0	32140	
4451	0	32026	
4452	0	32148	
4453	0	32250	
4454	0	32128	
4455	0	32016	
4456	0	32148	
4457	0	32248	
4458	0	32136	
4459	0	32036	
4460	0	32156	
4461	0	32262	
4462	0	32132	
4463	0	32044	
4464	0	32160	
4465	0	32248	
4466	0	32124	
4467	0	32032	
4468	0	32164	
4469	0	32256	
4470	0	32132	
4471	0	32044	
4472	0	32164	
4473	0	32262	
4474	0	32116	
4475	0	32036	
4476	0	32160	
4477	0	32256	
4478	0	32112	
4479	0	32036	
4480	0	32168	
4481	0	32268	
4482	0	32128	
4483	0	32048	
4484	0	32180	
4485	0	32276	
4486	0	32124	
4487	0	32058	
4488	0	32188	
4489	0	32272	
4490	0	32128	
4491	0	32048	
4492	0	32188	
4493	0	32280	
4494	0	32116	
4495	0	32056	
4496	0	32172	
4497	0	32272	
4498	0	32100	
4499	0	32056	
4500	0	32184	
4501	0	32280	
4502	0	32112	
4503	0	32068	
4504	0	32188	
4505	0	32280	
4506	0	32108	
4507	0	32068	
4508	0	32184	
4509	0	32272	
4510	0	32120	
4511	0	32080	
4512	0	32196	
4513	0	32268	
4514	0	32100	
4515	0	32076	
4516	0	32184	
4517	0	32256	
4518	0	32096	
4519	0	32064	
4520	0	32180	
4521	0	32268	
4522	0	32100	
4523	0	32076	
4524	0	32188	
4525	0	32261	
4526	0	32096	
4527	0	32080	
4528	0	32204	
4529	0	32260	
4530	0	32100	
4531	0	32101	
4532	0	32200	
4533	0	32252	
4534	0	32100	
4535	0	32080	
4536	0	32192	
4537	0	32248	
4538	0	32092	
4539	0	32084	
4540	0	32208	
4541	0	32248	
4542	0	32092	
4543	0	32088	
4544	0	32196	
4545	0	32240	
4546	0	32088	
4547	0	32092	
4548	0	32196	
4549	0	32244	
4550	0	32096	
4551	0	32096	
4552	0	32212	
4553	0	32232	
4554	0	32092	
4555	0	32088	
4556	0	32200	
4557	0	32240	
4558	0	32080	
4559	0	32092	
4560	0	32216	
4561	0	32228	
4562	0	32080	
4563	0	32092	
4564	0	32216	
4565	0	32224	
4566	0	32076	
4567	0	32104	
4568	0	32212	
4569	0	32224	
4570	0	32084	
4571	0	32116	
4572	0	32200	
4573	0	32224	
4574	0	32068	
4575	0	32100	
4576	0	32216	
4577	0	32204	
4578	0	32060	
4579	0	32104	
4580	0	32212	
4581	0	32200	
4582	0	32056	
4583	0	32108	
4584	0	32216	
4585	0	32204	
4586	0	32060	
4587	0	32104	
4588	0	32228	
4589	0	32204	
4590	0	32052	
4591	0	32104	
4592	0	32216	
4593	0	32216	
4594	0	32052	
4595	0	32112	
4596	0	32212	
4597	0	32184	
4598	0	32050	
4599	0	32112	
4600	0	32212	
4601	0	32180	
4602	0	32040	
4603	0	32112	
4604	0	32216	
4605	0	32180	
4606	0	32044	
4607	0	32112	
4608	0	32216	
4609	0	32176	
4610	0	32044	
4611	0	32112	
4612	0	32224	
4613	0	32172	
4614	0	32032	
4615	0	32108	
4616	0	32212	
4617	0	32156	
4618	0	32024	
4619	0	32108	
4620	0	32220	
4621	0	32160	
4622	0	32016	
4623	0	32108	
4624	0	32216	
4625	0	32152	
4626	0	32020	
4627	0	32100	
4628	0	32220	
4629	0	32152	
4630	0	32008	
4631	0	32116	
4632	0	32220	
4633	0	32160	
4634	0	32012	
4635	0	32128	
4636	0	32224	
4637	0	32152	
4638	0	32012	
4639	0	32112	
4640	0	32224	
4641	0	32140	
4642	0	32012	
4643	0	32120	
4644	0	32216	
4645	0	32140	
4646	0	32006	
4647	0	32112	
4648	0	32232	
4649	0	32144	
4650	0	32004	
4651	0	32136	
4652	0	32224	
4653	0	32138	
4654	0	31992	
4655	0	32120	
4656	0	32220	
4657	0	32140	
4658	0	32000	
4659	0	32116	
4660	0	32220	
4661	0	32124	
4662	0	32006	
4663	0	32128	
4664	0	32216	
4665	0	32140	
4666	0	32000	
4667	0	32132	
4668	0	32232	
4669	0	32128	
4670	0	32004	
4671	0	32132	
4672	0	32224	
4673	0	32132	
4674	0	31996	
4675	0	32132	
4676	0	32228	
4677	0	32120	
4678	0	32004	
4679	0	32136	
4680	0	32236	
4681	0	32128	
4682	0	32000	
4683	0	32132	
4684	0	32240	
4685	0	32122	
4686	0	32000	
4687	0	32140	
4688	0	32228	
4689	0	32120	
4690	0	32012	
4691	0	32140	
4692	0	32240	
4693	0	32120	
4694	0	32016	
4695	0	32136	
4696	0	32240	
4697	0	32124	
4698	0	32016	
4699	0	32144	
4700	0	32244	
4701	0	32116	
4702	0	32016	
4703	0	32148	
4704	0	32240	
4705	0	32112	
4706	0	32020	
4707	0	32136	
4708	0	32244	
4709	0	32112	
4710	0	32028	
4711	0	32156	
4712	0	32252	
4713	0	32120	
4714	0	32032	
4715	0	32148	
4716	0	32248	
4717	0	32108	
4718	0	32048	
4719	0	32160	
4720	0	32262	
4721	0	32104	
4722	0	32044	
4723	0	32160	
4724	0	32256	
4725	0	32096	
4726	0	32032	
4727	0	32156	
4728	0	32256	
4729	0	32100	
4730	0	32048	
4731	0	32164	
4732	0	32262	
4733	0	32096	
4734	0	32036	
4735	0	32160	
4736	0	32260	
4737	0	32096	
4738	0	32048	
4739	0	32160	
4740	0	32260	
4741	0	32088	
4742	0	32044	
4743	0	32160	
4744	0	32252	
4745	0	32084	
4746	0	32036	
4747	0	32164	
4748	0	32252	
4749	0	32084	
4750	0	32048	
4751	0	32160	
4752	0	32244	
4753	0	32072	
4754	0	32040	
4755	0	32152	
4756	0	32232	
4757	0	32080	
4758	0	32040	
4759	0	32165	
4760	0	32236	
4761	0	32076	
4762	0	32048	
4763	0	32164	
4764	0	32216	
4765	0	32068	
4766	0	32040	
4767	0	32160	
4768	0	32220	
4769	0	32056	
4770	0	32060	
4771	0	32168	
4772	0	32212	
4773	0	32056	
4774	0	32048	
4775	0	32164	
4776	0	32204	
4777	0	32056	
4778	0	32060	
4779	0	32172	
4780	0	32216	
4781	0	32056	
4782	0	32056	
4783	0	32160	
4784	0	32204	
4785	0	32042	
4786	0	32052	
4787	0	32172	
4788	0	32204	
4789	0	32036	
4790	0	32048	
4791	0	32170	
4792	0	32196	
4793	0	32036	
4794	0	32057	
4795	0	32164	
4796	0	32189	
4797	0	32036	
4798	0	32057	
4799	0	32176	
4800	0	32184	
4801	0	32040	
4802	0	32068	
4803	0	32176	
4804	0	32178	
4805	0	32044	
4806	0	32064	
4807	0	32176	
4808	0	32180	
4809	0	32032	
4810	0	32068	
4811	0	32176	
4812	0	32172	
4813	0	32024	
4814	0	32072	
4815	0	32174	
4816	0	32168	
4817	0	32020	
4818	0	32080	
4819	0	32184	
4820	0	32156	
4821	0	32028	
4822	0	32084	
4823	0	32184	
4824	0	32174	
4825	0	32012	
4826	0	32088	
4827	0	32176	
4828	0	32152	
4829	0	32009	
4830	0	32080	
4831	0	32184	
4832	0	32144	
4833	0	32012	
4834	0	32080	
4835	0	32182	
4836	0	32152	
4837	0	32008	
4838	0	32080	
4839	0	32180	
4840	0	32152	
4841	0	32016	
4842	0	32088	
4843	0	32196	
4844	0	32148	
4845	0	32004	
4846	0	32088	
4847	0	32192	
4848	0	32140	
4849	0	31996	
4850	0	32088	
4851	0	32188	
4852	0	32140	
4853	0	32004	
4854	0	32092	
4855	0	32194	
4856	0	32140	
4857	0	32000	
4858	0	32104	
4859	0	32204	
4860	0	32148	
4861	0	31992	
4862	0	32104	
4863	0	32200	
4864	0	32128	
4865	0	32000	
4866	0	32088	
4867	0	32196	
4868	0	32132	
4869	0	31992	
4870	0	32100	
4871	0	32196	
4872	0	32128	
4873	0	31976	
4874	0	32088	
4875	0	32196	
4876	0	32120	
4877	0	31984	
4878	0	32092	
4879	0	32196	
4880	0	32136	
4881	0	31988	
4882	0	32092	
4883	0	32192	
4884	0	32128	
4885	0	31976	
4886	0	32096	
4887	0	32196	
4888	0	32108	
4889	0	31980	
4890	0	32088	
4891	0	32188	
4892	0	32116	
4893	0	31980	
4894	0	32080	
4895	0	32188	
4896	0	32108	
4897	0	31988	
4898	0	32084	
4899	0	32188	
4900	0	32120	
4901	0	31990	
4902	0	32080	
4903	0	32192	
4904	0	32122	
4905	0	31988	
4906	0	32096	
4907	0	32188	
4908	0	32116	
4909	0	31972	
4910	0	32092	
4911	0	32196	
4912	0	32117	
4913	0	31956	
4914	0	32076	
4915	0	32168	
4916	0	32108	
4917	0	31964	
4918	0	32080	
4919	0	32188	
4920	0	32104	
4921	0	31972	
4922	0	32092	
4923	0	32192	
4924	0	32120	
4925	0	31968	
4926	0	32084	
4927	0	32192	
4928	0	32108	
4929	0	31976	
4930	0	32098	
4931	0	32184	
4932	0	32104	
4933	0	31960	
4934	0	32068	
4935	0	32168	
4936	0	32096	
4937	0	31960	
4938	0	32076	
4939	0	32168	
4940	0	32108	
4941	0	31964	
4942	0	32080	
4943	0	32184	
4944	0	32100	
4945	0	31962	
4946	0	32088	
4947	0	32184	
4948	0	32096	
4949	0	31960	
4950	0	32084	
4951	0	32184	
4952	0	32097	
4953	0	31952	
4954	0	32072	
4955	0	32178	
4956	0	32080	
4957	0	31948	
4958	0	32076	
4959	0	32188	
4960	0	32092	
4961	0	31948	
4962	0	32084	
4963	0	32180	
4964	0	32084	
4965	0	31944	
4966	0	32084	
4967	0	32172	
4968	0	32080	
4969	0	31948	
4970	0	32088	
4971	0	32188	
4972	0	32084	
4973	0	31956	
4974	0	32064	
4975	0	32176	
4976	0	32064	
4977	0	31946	
4978	0	32072	
4979	0	32172	
4980	0	32068	
4981	0	31944	
4982	0	32076	
4983	0	32176	
4984	0	32068	
4985	0	31946	
4986	0	32072	
4987	0	32188	
4988	0	32068	
4989	0	31952	
4990	0	32072	
4991	0	32188	
4992	0	32072	
4993	0	31956	
4994	0	32080	
4995	0	32184	
4996	0	32064	
4997	0	31936	
4998	0	32072	
4999	0	32172	
5000	0	32068	
5001	0	31944	
5002	0	32080	
5003	0	32180	
5004	0	32060	
5005	0	31944	
5006	0	32080	
5007	0	32176	
5008	0	32060	
5009	0	31952	
5010	0	32076	
5011	0	32168	
5012	0	32053	
5013	0	31948	
5014	0	32072	
5015	0	32172	
5016	0	32048	
5017	0	31944	
5018	0	32064	
5019	0	32168	
5020	0	32048	
5021	0	31952	
5022	0	32072	
5023	0	32176	
5024	0	32056	
5025	0	31952	
5026	0	32080	
5027	0	32172	
5028	0	32048	
5029	0	31956	
5030	0	32084	
5031	0	32176	
5032	0	32052	
5033	0	31948	
5034	0	32080	
5035	0	32168	
5036	0	32032	
5037	0	31948	
5038	0	32080	
5039	0	32168	
5040	0	32048	
5041	0	31952	
5042	0	32080	
5043	0	32172	
5044	0	32036	
5045	0	31968	
5046	0	32076	
5047	0	32168	
5048	0	32044	
5049	0	31972	
5050	0	32080	
5051	0	32172	
5052	0	32032	
5053	0	31952	
5054	0	32072	
5055	0	32172	
5056	0	32032	
5057	0	31956	
5058	0	32076	
5059	0	32164	
5060	0	32032	
5061	0	31948	
5062	0	32076	
5063	0	32160	
5064	0	32032	
5065	0	31956	
5066	0	32072	
5067	0	32176	
5068	0	32032	
5069	0	31964	
5070	0	32080	
5071	0	32182	
5072	0	32024	
5073	0	31960	
5074	0	32080	
5075	0	32164	
5076	0	32024	
5077	0	31952	
5078	0	32076	
5079	0	32168	
5080	0	32013	
5081	0	31956	
5082	0	32076	
5083	0	32168	
5084	0	32016	
5085	0	31952	
5086	0	32080	
5087	0	32176	
5088	0	32012	
5089	0	31968	
5090	0	32084	
5091	0	32180	
5092	0	32004	
5093	0	31964	
5094	0	32080	
5095	0	32168	
5096	0	32018	
5097	0	31960	
5098	0	32084	
5099	0	32176	
5100	0	32012	
5101	0	31956	
5102	0	32068	
5103	0	32164	
5104	0	32016	
5105	0	31960	
5106	0	32076	
5107	0	32176	
5108	0	32008	
5109	0	31968	
5110	0	32100	
5111	0	32176	
5112	0	32012	
5113	0	31968	
5114	0	32084	
5115	0	32160	
5116	0	31996	
5117	0	31960	
5118	0	32074	
5119	0	32164	
5120	0	32004	
5121	0	31962	
5122	0	32080	
5123	0	32168	
5124	0	31996	
5125	0	31968	
5126	0	32076	
5127	0	32160	
5128	0	32004	
5129	0	31982	
5130	0	32084	
5131	0	32160	
5132	0	32008	
5133	0	31976	
5134	0	32076	
5135	0	32160	
5136	0	32004	
5137	0	31960	
5138	0	32084	
5139	0	32168	
5140	0	32000	
5141	0	31980	
5142	0	32092	
5143	0	32156	
5144	0	31996	
5145	0	31968	
5146	0	32088	
5147	0	32160	
5148	0	32013	
5149	0	31988	
5150	0	32096	
5151	0	32170	
5152	0	32008	
5153	0	31976	
5154	0	32088	
5155	0	32164	
5156	0	32008	
5157	0	31988	
5158	0	32100	
5159	0	32164	
5160	0	32012	
5161	0	31980	
5162	0	32096	
5163	0	32152	
5164	0	32000	
5165	0	31988	
5166	0	32096	
5167	0	32148	
5168	0	32008	
5169	0	32000	
5170	0	32108	
5171	0	32164	
5172	0	32012	
5173	0	31992	
5174	0	32112	
5175	0	32160	
5176	0	32000	
5177	0	32000	
5178	0	32108	
5179	0	32160	
5180	0	32000	
5181	0	31996	
5182	0	32112	
5183	0	32156	
5184	0	31992	
5185	0	31996	
5186	0	32104	
5187	0	32160	
5188	0	31996	
5189	0	32000	
5190	0	32128	
5191	0	32160	
5192	0	32004	
5193	0	31996	
5194	0	32116	
5195	0	32156	
5196	0	32000	
5197	0	32004	
5198	0	32120	
5199	0	32156	
5200	0	32000	
5201	0	32013	
5202	0	32120	
5203	0	32148	
5204	0	32000	
5205	0	31996	
5206	0	32116	
5207	0	32140	
5208	0	32000	
5209	0	32006	
5210	0	32112	
5211	0	32152	
5212	0	31996	
5213	0	32004	
5214	0	32120	
5215	0	32148	
5216	0	31988	
5217	0	32008	
5218	0	32120	
5219	0	32152	
5220	0	32007	
5221	0	32012	
5222	0	32120	
5223	0	32148	
5224	0	32004	
5225	0	32008	
5226	0	32116	
5227	0	32136	
5228	0	31988	
5229	0	32012	
5230	0	32112	
5231	0	32148	
5232	0	32004	
5233	0	32024	
5234	0	32120	
5235	0	32136	
5236	0	31992	
5237	0	32016	
5238	0	32120	
5239	0	32144	
5240	0	32000	
5241	0	32024	
5242	0	32128	
5243	0	32144	
5244	0	31992	
5245	0	32016	
5246	0	32128	
5247	0	32132	
5248	0	31988	
5249	0	32020	
5250	0	32124	
5251	0	32128	
5252	0	31992	
5253	0	32012	
5254	0	32124	
5255	0	32128	
5256	0	31984	
5257	0	32008	
5258	0	32125	
5259	0	32136	
5260	0	31984	
5261	0	32026	
5262	0	32128	
5263	0	32132	
5264	0	31980	
5265	0	32012	
5266	0	32120	
5267	0	32124	
5268	0	31976	
5269	0	32020	
5270	0	32128	
5271	0	32132	
5272	0	31984	
5273	0	32016	
5274	0	32132	
5275	0	32128	
5276	0	31976	
5277	0	32028	
5278	0	32133	
5279	0	32120	
5280	0	31980	
5281	0	32036	
5282	0	32124	
5283	0	32132	
5284	0	31968	
5285	0	32016	
5286	0	32124	
5287	0	32116	
5288	0	31968	
5289	0	32026	
5290	0	32128	
5291	0	32105	
5292	0	31972	
5293	0	32020	
5294	0	32116	
5295	0	32100	
5296	0	31964	
5297	0	32020	
5298	0	32140	
5299	0	32116	
5300	0	31968	
5301	0	32028	
5302	0	32136	
5303	0	32104	
5304	0	31960	
5305	0	32032	
5306	0	32128	
5307	0	32106	
5308	0	31956	
5309	0	32024	
5310	0	32116	
5311	0	32104	
5312	0	31952	
5313	0	32020	
5314	0	32128	
5315	0	32100	
5316	0	31952	
5317	0	32028	
5318	0	32124	
5319	0	32100	
5320	0	31952	
5321	0	32032	
5322	0	32128	
5323	0	32088	
5324	0	31936	
5325	0	32016	
5326	0	32116	
5327	0	32084	
5328	0	31940	
5329	0	32010	
5330	0	32104	
5331	0	32076	
5332	0	31936	
5333	0	32012	
5334	0	32108	
5335	0	32064	
5336	0	31932	
5337	0	32022	
5338	0	32112	
5339	0	32076	
5340	0	31920	
5341	0	32020	
5342	0	32120	
5343	0	32068	
5344	0	31936	
5345	0	32008	
5346	0	32104	
5347	0	32056	
5348	0	31912	
5349	0	32012	
5350	0	32108	
5351	0	32052	
5352	0	31908	
5353	0	32004	
5354	0	32096	
5355	0	32044	
5356	0	31904	
5357	0	32004	
5358	0	32108	
5359	0	32044	
5360	0	31908	
5361	0	32004	
5362	0	32104	
5363	0	32044	
5364	0	31900	
5365	0	31992	
5366	0	32104	
5367	0	32040	
5368	0	31896	
5369	0	31996	
5370	0	32100	
5371	0	32040	
5372	0	31888	
5373	0	31980	
5374	0	32092	
5375	0	32020	
5376	0	31888	
5377	0	31996	
5378	0	32104	
5379	0	32024	
5380	0	31884	
5381	0	32004	
5382	0	32092	
5383	0	32024	
5384	0	31880	
5385	0	32000	
5386	0	32096	
5387	0	32016	
5388	0	31876	
5389	0	31988	
5390	0	32096	
5391	0	32012	
5392	0	31868	
5393	0	31992	
5394	0	32094	
5395	0	32004	
5396	0	31860	
5397	0	31988	
5398	0	32088	
5399	0	32008	
5400	0	31874	
5401	0	32006	
5402	0	32092	
5403	0	32012	
5404	0	31868	
5405	0	31988	
5406	0	32096	
5407	0	32000	
5408	0	31868	
5409	0	32000	
5410	0	32096	
5411	0	32012	
5412	0	31868	
5413	0	31984	
5414	0	32092	
5415	0	31992	
5416	0	31860	
5417	0	31996	
5418	0	32100	
5419	0	32004	
5420	0	31864	
5421	0	32000	
5422	0	32104	
5423	0	32004	
5424	0	31864	
5425	0	32004	
5426	0	32104	
5427	0	31996	
5428	0	31872	
5429	0	32016	
5430	0	32108	
5431	0	31996	
5432	0	31884	
5433	0	32012	
5434	0	32108	
5435	0	31984	
5436	0	31872	
5437	0	32008	
5438	0	32104	
5439	0	31988	
5440	0	31884	
5441	0	32016	
5442	0	32120	
5443	0	31992	
5444	0	31896	
5445	0	32024	
5446	0	32108	
5447	0	31988	
5448	0	31904	
5449	0	32020	
5450	0	32120	
5451	0	31988	
5452	0	31900	
5453	0	32016	
5454	0	32108	
5455	0	31980	
5456	0	31892	
5457	0	32013	
5458	0	32120	
5459	0	31972	
5460	0	31904	
5461	0	32028	
5462	0	32128	
5463	0	31980	
5464	0	31912	
5465	0	32024	
5466	0	32120	
5467	0	31972	
5468	0	31900	
5469	0	32028	
5470	0	32117	
5471	0	31976	
5472	0	31904	
5473	0	32032	
5474	0	32112	
5475	0	31968	
5476	0	31898	
5477	0	32016	
5478	0	32120	
5479	0	31968	
5480	0	31912	
5481	0	32028	
5482	0	32132	
5483	0	31968	
5484	0	31912	
5485	0	32036	
5486	0	32128	
5487	0	31982	
5488	0	31916	
5489	0	32033	
5490	0	32116	
5491	0	31964	
5492	0	31912	
5493	0	32017	
5494	0	32120	
5495	0	31956	
5496	0	31900	
5497	0	32020	
5498	0	32124	
5499	0	31956	
5500	0	31916	
5501	0	32041	
5502	0	32124	
5503	0	31956	
5504	0	31920	
5505	0	32032	
5506	0	32122	
5507	0	31952	
5508	0	31920	
5509	0	32040	
5510	0	32112	
5511	0	31956	
5512	0	31928	
5513	0	32036	
5514	0	32116	
5515	0	31940	
5516	0	31916	
5517	0	32032	
5518	0	32108	
5519	0	31960	
5520	0	31920	
5521	0	32040	
5522	0	32108	
5523	0	31952	
5524	0	31930	
5525	0	32044	
5526	0	32116	
5527	0	31956	
5528	0	31928	
5529	0	32048	
5530	0	32124	
5531	0	31956	
5532	0	31936	
5533	0	32044	
5534	0	32124	
5535	0	31952	
5536	0	31928	
5537	0	32048	
5538	0	32112	
5539	0	31948	
5540	0	31936	
5541	0	32052	
5542	0	32124	
5543	0	31964	
5544	0	31940	
5545	0	32056	
5546	0	32120	
5547	0	31964	
5548	0	31940	
5549	0	32060	
5550	0	32112	
5551	0	31964	
5552	0	31944	
5553	0	32056	
5554	0	32117	
5555	0	31956	
5556	0	31928	
5557	0	32048	
5558	0	32116	
5559	0	31956	
5560	0	31944	
5561	0	32060	
5562	0	32122	
5563	0	31956	
5564	0	31948	
5565	0	32052	
5566	0	32114	
5567	0	31960	
5568	0	31948	
5569	0	32064	
5570	0	32116	
5571	0	31964	
5572	0	31948	
5573	0	32052	
5574	0	32120	
5575	0	31962	
5576	0	31948	
5577	0	32056	
5578	0	32100	
5579	0	31948	
5580	0	31944	
5581	0	32053	
5582	0	32096	
5583	0	31944	
5584	0	31944	
5585	0	32060	
5586	0	32100	
5587	0	31940	
5588	0	31956	
5589	0	32060	
5590	0	32116	
5591	0	31948	
5592	0	31936	
5593	0	32048	
5594	0	32108	
5595	0	31952	
5596	0	31928	
5597	0	32044	
5598	0	32096	
5599	0	31940	
5600	0	31952	
5601	0	32048	
5602	0	32100	
5603	0	31936	
5604	0	31936	
5605	0	32040	
5606	0	32096	
5607	0	31936	
5608	0	31952	
5609	0	32060	
5610	0	32088	
5611	0	31944	
5612	0	31956	
5613	0	32060	
5614	0	32092	
5615	0	31948	
5616	0	31940	
5617	0	32048	
5618	0	32092	
5619	0	31944	
5620	0	31960	
5621	0	32060	
5622	0	32080	
5623	0	31930	
5624	0	31936	
5625	0	32040	
5626	0	32088	
5627	0	31924	
5628	0	31936	
5629	0	32056	
5630	0	32088	
5631	0	31936	
5632	0	31944	
5633	0	32064	
5634	0	32080	
5635	0	31920	
5636	0	31944	
5637	0	32056	
5638	0	32072	
5639	0	31932	
5640	0	31948	
5641	0	32064	
5642	0	32068	
5643	0	31916	
5644	0	31944	
5645	0	32056	
5646	0	32068	
5647	0	31928	
5648	0	31948	
5649	0	32064	
5650	0	32072	
5651	0	31928	
5652	0	31960	
5653	0	32068	
5654	0	32060	
5655	0	31916	
5656	0	31948	
5657	0	32060	
5658	0	32072	
5659	0	31920	
5660	0	31944	
5661	0	32060	
5662	0	32068	
5663	0	31916	
5664	0	31952	
5665	0	32044	
5666	0	32068	
5667	0	31928	
5668	0	31944	
5669	0	32056	
5670	0	32080	
5671	0	31936	
5672	0	31960	
5673	0	32060	
5674	0	32080	
5675	0	31924	
5676	0	31948	
5677	0	32056	
5678	0	32072	
5679	0	31936	
5680	0	31960	
5681	0	32064	
5682	0	32068	
5683	0	31924	
5684	0	31948	
5685	0	32052	
5686	0	32072	
5687	0	31916	
5688	0	31952	
5689	0	32064	
5690	0	32076	
5691	0	31936	
5692	0	31952	
5693	0	32064	
5694	0	32074	
5695	0	31916	
5696	0	31946	
5697	0	32060	
5698	0	32064	
5699	0	31924	
5700	0	31952	
5701	0	32064	
5702	0	32068	
5703	0	31924	
5704	0	31948	
5705	0	32048	
5706	0	32064	
5707	0	31912	
5708	0	31944	
5709	0	32056	
5710	0	32064	
5711	0	31926	
5712	0	31952	
5713	0	32052	
5714	0	32064	
5715	0	31912	
5716	0	31944	
5717	0	32052	
5718	0	32052	
5719	0	31912	
5720	0	31952	
5721	0	32056	
5722	0	32052	
5723	0	31904	
5724	0	31940	
5725	0	32044	
5726	0	32056	
5727	0	31908	
5728	0	31948	
5729	0	32060	
5730	0	32060	
5731	0	31920	
5732	0	31956	
5733	0	32056	
5734	0	32060	
5735	0	31916	
5736	0	31944	
5737	0	32052	
5738	0	32056	
5739	0	31916	
5740	0	31952	
5741	0	32064	
5742	0	32064	
5743	0	31920	
5744	0	31952	
5745	0	32064	
5746	0	32060	
5747	0	31916	
5748	0	31944	
5749	0	32064	
5750	0	32062	
5751	0	31908	
5752	0	31960	
5753	0	32060	
5754	0	32056	
5755	0	31900	
5756	0	31952	
5757	0	32056	
5758	0	32060	
5759	0	31912	
5760	0	31952	
5761	0	32060	
5762	0	32048	
5763	0	31900	
5764	0	31944	
5765	0	32058	
5766	0	32056	
5767	0	31904	
5768	0	31948	
5769	0	32060	
5770	0	32052	
5771	0	31908	
5772	0	31952	
5773	0	32060	
5774	0	32048	
5775	0	31896	
5776	0	31948	
5777	0	32058	
5778	0	32044	
5779	0	31900	
5780	0	31960	
5781	0	32060	
5782	0	32040	
5783	0	31904	
5784	0	31956	
5785	0	32056	
5786	0	32040	
5787	0	31900	
5788	0	31948	
5789	0	32044	
5790	0	32032	
5791	0	31896	
5792	0	31948	
5793	0	32048	
5794	0	32044	
5795	0	31896	
5796	0	31940	
5797	0	32052	
5798	0	32028	
5799	0	31904	
5800	0	31952	
5801	0	32048	
5802	0	32036	
5803	0	31886	
5804	0	31952	
5805	0	32048	
5806	0	32021	
5807	0	31888	
5808	0	31936	
5809	0	32052	
5810	0	32020	
5811	0	31880	
5812	0	31948	
5813	0	32048	
5814	0	32028	
5815	0	31876	
5816	0	31948	
5817	0	32048	
5818	0	32016	
5819	0	31872	
5820	0	31952	
5821	0	32052	
5822	0	32024	
5823	0	31872	
5824	0	31936	
5825	0	32044	
5826	0	32017	
5827	0	31868	
5828	0	31940	
5829	0	32044	
5830	0	32002	
5831	0	31864	
5832	0	31938	
5833	0	32040	
5834	0	32004	
5835	0	31864	
5836	0	31944	
5837	0	32044	
5838	0	31992	
5839	0	31864	
5840	0	31936	
5841	0	32044	
5842	0	32004	
5843	0	31860	
5844	0	31936	
5845	0	32040	
5846	0	32000	
5847	0	31856	
5848	0	31936	
5849	0	32040	
5850	0	31984	
5851	0	31852	
5852	0	31938	
5853	0	32028	
5854	0	31980	
5855	0	31848	
5856	0	31944	
5857	0	32040	
5858	0	31988	
5859	0	31840	
5860	0	31948	
5861	0	32040	
5862	0	31988	
5863	0	31848	
5864	0	31933	
5865	0	32040	
5866	0	31988	
5867	0	31848	
5868	0	31944	
5869	0	32044	
5870	0	31980	
5871	0	31848	
5872	0	31932	
5873	0	32032	
5874	0	31984	
5875	0	31848	
5876	0	31940	
5877	0	32045	
5878	0	31992	
5879	0	31856	
5880	0	31944	
5881	0	32048	
5882	0	31996	
5883	0	31852	
5884	0	31956	
5885	0	32048	
5886	0	31978	
5887	0	31852	
5888	0	31952	
5889	0	32052	
5890	0	31988	
5891	0	31852	
5892	0	31952	
5893	0	32048	
5894	0	31984	
5895	0	31848	
5896	0	31952	
5897	0	32052	
5898	0	31988	
5899	0	31856	
5900	0	31960	
5901	0	32068	
5902	0	31992	
5903	0	31860	
5904	0	31956	
5905	0	32064	
5906	0	31996	
5907	0	31852	
5908	0	31970	
5909	0	32076	
5910	0	31996	
5911	0	31864	
5912	0	31968	
5913	0	32064	
5914	0	32000	
5915	0	31852	
5916	0	31964	
5917	0	32060	
5918	0	31988	
5919	0	31852	
5920	0	31964	
5921	0	32076	
5922	0	32004	
5923	0	31864	
5924	0	31968	
5925	0	32072	
5926	0	31992	
5927	0	31860	
5928	0	31980	
5929	0	32080	
5930	0	32000	
5931	0	31876	
5932	0	31968	
5933	0	32072	
5934	0	31988	
5935	0	31856	
5936	0	31968	
5937	0	32064	
5938	0	31992	
5939	0	31856	
5940	0	31968	
5941	0	32072	
5942	0	32012	
5943	0	31856	
5944	0	31980	
5945	0	32088	
5946	0	31992	
5947	0	31864	
5948	0	31968	
5949	0	32072	
5950	0	31992	
5951	0	31852	
5952	0	31972	
5953	0	32072	
5954	0	31976	
5955	0	31852	
5956	0	31968	
5957	0	32068	
5958	0	31976	
5959	0	31848	
5960	0	31968	
5961	0	32080	
5962	0	31994	
5963	0	31848	
5964	0	31976	
5965	0	32068	
5966	0	31980	
5967	0	31848	
5968	0	31968	
5969	0	32076	
5970	0	31980	
5971	0	31844	
5972	0	31964	
5973	0	32060	
5974	0	31968	
5975	0	31836	
5976	0	31960	
5977	0	32072	
5978	0	31964	
5979	0	31836	
5980	0	31968	
5981	0	32064	
5982	0	31976	
5983	0	31828	
5984	0	31968	
5985	0	32072	
5986	0	31964	
5987	0	31836	
5988	0	31968	
5989	0	32064	
5990	0	31980	
5991	0	31836	
5992	0	31968	
5993	0	32060	
5994	0	31964	
5995	0	31832	
5996	0	31952	
5997	0	32064	
5998	0	31960	
5999	0	31824	
6000	0	31960	
6001	0	32056	
6002	0	31968	
6003	0	31832	
6004	0	31960	
6005	0	32066	
6006	0	31968	
6007	0	31840	
6008	0	31960	
6009	0	32069	
6010	0	31960	
6011	0	31832	
6012	0	31950	
6013	0	32060	
6014	0	31964	
6015	0	31812	
6016	0	31956	
6017	0	32040	
6018	0	31952	
6019	0	31824	
6020	0	31952	
6021	0	32052	
6022	0	31960	
6023	0	31828	
6024	0	31948	
6025	0	32056	
6026	0	31956	
6027	0	31820	
6028	0	31960	
6029	0	32056	
6030	0	31960	
6031	0	31828	
6032	0	31952	
6033	0	32048	
6034	0	31948	
6035	0	31824	
6036	0	31948	
6037	0	32040	
6038	0	31948	
6039	0	31816	
6040	0	31948	
6041	0	32048	
6042	0	31948	
6043	0	31826	
6044	0	31948	
6045	0	32052	
6046	0	31956	
6047	0	31820	
6048	0	31952	
6049	0	32060	
6050	0	31944	
6051	0	31824	
6052	0	31956	
6053	0	32052	
6054	0	31936	
6055	0	31820	
6056	0	31944	
6057	0	32044	
6058	0	31936	
6059	0	31812	
6060	0	31952	
6061	0	32036	
6062	0	31932	
6063	0	31808	
6064	0	31944	
6065	0	32048	
6066	0	31936	
6067	0	31820	
6068	0	31948	
6069	0	32056	
6070	0	31940	
6071	0	31828	
6072	0	31948	
6073	0	32040	
6074	0	31920	
6075	0	31816	
6076	0	31936	
6077	0	32032	
6078	0	31912	
6079	0	31816	
6080	0	31940	
6081	0	32036	
6082	0	31920	
6083	0	31808	
6084	0	31936	
6085	0	32032	
6086	0	31908	
6087	0	31808	
6088	0	31946	
6089	0	32048	
6090	0	31920	
6091	0	31816	
6092	0	31940	
6093	0	32032	
6094	0	31904	
6095	0	31816	
6096	0	31932	
6097	0	32024	
6098	0	31896	
6099	0	31812	
6100	0	31940	
6101	0	32032	
6102	0	31900	
6103	0	31820	
6104	0	31940	
6105	0	32036	
6106	0	31892	
6107	0	31820	
6108	0	31956	
6109	0	32036	
6110	0	31896	
6111	0	31825	
6112	0	31940	
6113	0	32032	
6114	0	31885	
6115	0	31812	
6116	0	31928	
6117	0	32032	
6118	0	31876	
6119	0	31816	
6120	0	31928	
6121	0	32020	
6122	0	31872	
6123	0	31808	
6124	0	31922	
6125	0	32024	
6126	0	31864	
6127	0	31808	
6128	0	31932	
6129	0	32036	
6130	0	31876	
6131	0	31816	
6132	0	31928	
6133	0	32024	
6134	0	31876	
6135	0	31820	
6136	0	31924	
6137	0	32025	
6138	0	31880	
6139	0	31816	
6140	0	31944	
6141	0	32024	
6142	0	31860	
6143	0	31812	
6144	0	31920	
6145	0	32024	
6146	0	31860	
6147	0	31828	
6148	0	31928	
6149	0	32020	
6150	0	31856	
6151	0	31824	
6152	0	31944	
6153	0	32026	
6154	0	31860	
6155	0	31824	
6156	0	31936	
6157	0	32020	
6158	0	31852	
6159	0	31812	
6160	0	31932	
6161	0	32016	
6162	0	31852	
6163	0	31812	
6164	0	31928	
6165	0	32008	
6166	0	31852	
6167	0	31818	
6168	0	31940	
6169	0	32012	
6170	0	31856	
6171	0	31828	
6172	0	31944	
6173	0	32020	
6174	0	31852	
6175	0	31824	
6176	0	31940	
6177	0	32004	
6178	0	31844	
6179	0	31828	
6180	0	31932	
6181	0	32000	
6182	0	31848	
6183	0	31824	
6184	0	31940	
6185	0	31992	
6186	0	31844	
6187	0	31824	
6188	0	31932	
6189	0	31992	
6190	0	31836	
6191	0	31828	
6192	0	31928	
6193	0	31992	
6194	0	31844	
6195	0	31818	
6196	0	31944	
6197	0	31984	
6198	0	31836	
6199	0	31824	
6200	0	31936	
6201	0	31984	
6202	0	31828	
6203	0	31832	
6204	0	31932	
6205	0	31972	
6206	0	31821	
6207	0	31820	
6208	0	31932	
6209	0	31976	
6210	0	31824	
6211	0	31828	
6212	0	31948	
6213	0	31972	
6214	0	31820	
6215	0	31828	
6216	0	31932	
6217	0	31969	
6218	0	31820	
6219	0	31832	
6220	0	31936	
6221	0	31976	
6222	0	31816	
6223	0	31816	
6224	0	31920	
6225	0	31968	
6226	0	31818	
6227	0	31812	
6228	0	31938	
6229	0	31960	
6230	0	31818	
6231	0	31820	
6232	0	31920	
6233	0	31964	
6234	0	31808	
6235	0	31820	
6236	0	31924	
6237	0	31960	
6238	0	31812	
6239	0	31828	
6240	0	31944	
6241	0	31968	
6242	0	31804	
6243	0	31816	
6244	0	31934	
6245	0	31956	
6246	0	31812	
6247	0	31816	
6248	0	31928	
6249	0	31960	
6250	0	31812	
6251	0	31832	
6252	0	31936	
6253	0	31956	
6254	0	31808	
6255	0	31829	
6256	0	31932	
6257	0	31944	
6258	0	31804	
6259	0	31840	
6260	0	31936	
6261	0	31962	
6262	0	31816	
6263	0	31836	
6264	0	31925	
6265	0	31940	
6266	0	31808	
6267	0	31824	
6268	0	31932	
6269	0	31952	
6270	0	31796	
6271	0	31828	
6272	0	31936	
6273	0	31944	
6274	0	31812	
6275	0	31832	
6276	0	31944	
6277	0	31956	
6278	0	31796	
6279	0	31828	
6280	0	31932	
6281	0	31948	
6282	0	31800	
6283	0	31836	
6284	0	31941	
6285	0	31948	
6286	0	31800	
6287	0	31854	
6288	0	31944	
6289	0	31944	
6290	0	31792	
6291	0	31840	
6292	0	31952	
6293	0	31948	
6294	0	31804	
6295	0	31844	
6296	0	31940	
6297	0	31940	
6298	0	31800	
6299	0	31840	
6300	0	31952	
6301	0	31944	
6302	0	31792	
6303	0	31854	
6304	0	31952	
6305	0	31940	
6306	0	31808	
6307	0	31844	
6308	0	31944	
6309	0	31928	
6310	0	31810	
6311	0	31864	
6312	0	31952	
6313	0	31952	
6314	0	31812	
6315	0	31862	
6316	0	31952	
6317	0	31924	
6318	0	31796	
6319	0	31860	
6320	0	31968	
6321	0	31944	
6322	0	31804	
6323	0	31848	
6324	0	31964	
6325	0	31936	
6326	0	31800	
6327	0	31856	
6328	0	31956	
6329	0	31940	
6330	0	31792	
6331	0	31844	
6332	0	31960	
6333	0	31936	
6334	0	31784	
6335	0	31860	
6336	0	31960	
6337	0	31932	
6338	0	31808	
6339	0	31856	
6340	0	31964	
6341	0	31932	
6342	0	31796	
6343	0	31852	
6344	0	31956	
6345	0	31936	
6346	0	31784	
6347	0	31848	
6348	0	31960	
6349	0	31924	
6350	0	31788	
6351	0	31848	
6352	0	31940	
6353	0	31920	
6354	0	31788	
6355	0	31852	
6356	0	31944	
6357	0	31916	
6358	0	31788	
6359	0	31852	
6360	0	31980	
6361	0	31916	
6362	0	31792	
6363	0	31848	
6364	0	31952	
6365	0	31925	
6366	0	31776	
6367	0	31848	
6368	0	31968	
6369	0	31912	
6370	0	31764	
6371	0	31838	
6372	0	31940	
6373	0	31912	
6374	0	31764	
6375	0	31832	
6376	0	31932	
6377	0	31912	
6378	0	31780	
6379	0	31840	
6380	0	31944	
6381	0	31924	
6382	0	31764	
6383	0	31840	
6384	0	31940	
6385	0	31900	
6386	0	31764	
6387	0	31840	
6388	0	31936	
6389	0	31924	
6390	0	31760	
6391	0	31836	
6392	0	31928	
6393	0	31888	
6394	0	31764	
6395	0	31832	
6396	0	31924	
6397	0	31888	
6398	0	31752	
6399	0	31832	
6400	0	31936	
6401	0	31896	
6402	0	31756	
6403	0	31828	
6404	0	31908	
6405	0	31892	
6406	0	31748	
6407	0	31830	
6408	0	31920	
6409	0	31888	
6410	0	31744	
6411	0	31804	
6412	0	31920	
6413	0	31884	
6414	0	31736	
6415	0	31816	
6416	0	31917	
6417	0	31872	
6418	0	31732	
6419	0	31824	
6420	0	31920	
6421	0	31876	
6422	0	31740	
6423	0	31824	
6424	0	31912	
6425	0	31872	
6426	0	31732	
6427	0	31820	
6428	0	31912	
6429	0	31880	
6430	0	31740	
6431	0	31824	
6432	0	31904	
6433	0	31872	
6434	0	31736	
6435	0	31800	
6436	0	31908	
6437	0	31856	
6438	0	31732	
6439	0	31800	
6440	0	31896	
6441	0	31872	
6442	0	31736	
6443	0	31812	
6444	0	31904	
6445	0	31878	
6446	0	31732	
6447	0	31812	
6448	0	31900	
6449	0	31860	
6450	0	31724	
6451	0	31800	
6452	0	31904	
6453	0	31868	
6454	0	31708	
6455	0	31808	
6456	0	31896	
6457	0	31848	
6458	0	31712	
6459	0	31796	
6460	0	31905	
6461	0	31856	
6462	0	31696	
6463	0	31808	
6464	0	31896	
6465	0	31852	
6466	0	31712	
6467	0	31808	
6468	0	31902	
6469	0	31840	
6470	0	31712	
6471	0	31802	
6472	0	31896	
6473	0	31832	
6474	0	31704	
6475	0	31796	
6476	0	31888	
6477	0	31828	
6478	0	31692	
6479	0	31796	
6480	0	31884	
6481	0	31832	
6482	0	31700	
6483	0	31808	
6484	0	31890	
6485	0	31836	
6486	0	31688	
6487	0	31792	
6488	0	31896	
6489	0	31828	
6490	0	31704	
6491	0	31792	
6492	0	31892	
6493	0	31812	
6494	0	31680	
6495	0	31784	
6496	0	31884	
6497	0	31808	
6498	0	31668	
6499	0	31792	
6500	0	31888	
6501	0	31816	
6502	0	31684	
6503	0	31792	
6504	0	31880	
6505	0	31812	
6506	0	31688	
6507	0	31800	
6508	0	31892	
6509	0	31808	
6510	0	31676	
6511	0	31796	
6512	0	31888	
6513	0	31792	
6514	0	31680	
6515	0	31792	
6516	0	31888	
6517	0	31800	
6518	0	31676	
6519	0	31792	
6520	0	31904	
6521	0	31808	
6522	0	31668	
6523	0	31796	
6524	0	31888	
6525	0	31808	
6526	0	31680	
6527	0	31792	
6528	0	31884	
6529	0	31820	
6530	0	31688	
6531	0	31792	
6532	0	31894	
6533	0	31804	
6534	0	31672	
6535	0	31788	
6536	0	31888	
6537	0	31801	
6538	0	31672	
6539	0	31796	
6540	0	31892	
6541	0	31814	
6542	0	31688	
6543	0	31792	
6544	0	31892	
6545	0	31809	
6546	0	31680	
6547	0	31808	
6548	0	31896	
6549	0	31820	
6550	0	31696	
6551	0	31812	
6552	0	31904	
6553	0	31816	
6554	0	31676	
6555	0	31800	
6556	0	31900	
6557	0	31828	
6558	0	31672	
6559	0	31800	
6560	0	31912	
6561	0	31818	
6562	0	31684	
6563	0	31812	
6564	0	31888	
6565	0	31816	
6566	0	31684	
6567	0	31812	
6568	0	31916	
6569	0	31828	
6570	0	31688	
6571	0	31840	
6572	0	31916	
6573	0	31820	
6574	0	31696	
6575	0	31812	
6576	0	31908	
6577	0	31820	
6578	0	31692	
6579	0	31808	
6580	0	31912	
6581	0	31828	
6582	0	31700	
6583	0	31820	
6584	0	31920	
6585	0	31820	
6586	0	31672	
6587	0	31832	
6588	0	31920	
6589	0	31824	
6590	0	31708	
6591	0	31828	
6592	0	31924	
6593	0	31848	
6594	0	31700	
6595	0	31820	
6596	0	31920	
6597	0	31828	
6598	0	31688	
6599	0	31824	
6600	0	31900	
6601	0	31832	
6602	0	31696	
6603	0	31816	
6604	0	31928	
6605	0	31832	
6606	0	31692	
6607	0	31824	
6608	0	31920	
6609	0	31832	
6610	0	31696	
6611	0	31828	
6612	0	31928	
6613	0	31820	
6614	0	31696	
6615	0	31840	
6616	0	31912	
6617	0	31816	
6618	0	31696	
6619	0	31820	
6620	0	31928	
6621	0	31824	
6622	0	31680	
6623	0	31828	
6624	0	31924	
6625	0	31824	
6626	0	31688	
6627	0	31820	
6628	0	31916	
6629	0	31808	
6630	0	31696	
6631	0	31822	
6632	0	31920	
6633	0	31828	
6634	0	31672	
6635	0	31816	
6636	0	31912	
6637	0	31816	
6638	0	31688	
6639	0	31812	
6640	0	31914	
6641	0	31812	
6642	0	31692	
6643	0	31816	
6644	0	31888	
6645	0	31808	
6646	0	31680	
6647	0	31824	
6648	0	31912	
6649	0	31820	
6650	0	31700	
6651	0	31824	
6652	0	31916	
6653	0	31812	
6654	0	31692	
6655	0	31824	
6656	0	31908	
6657	0	31812	
6658	0	31700	
6659	0	31816	
6660	0	31908	
6661	0	31808	
6662	0	31692	
6663	0	31816	
6664	0	31908	
6665	0	31816	
6666	0	31668	
6667	0	31816	
6668	0	31912	
6669	0	31804	
6670	0	31688	
6671	0	31816	
6672	0	31912	
6673	0	31828	
6674	0	31692	
6675	0	31828	
6676	0	31908	
6677	0	31800	
6678	0	31692	
6679	0	31824	
6680	0	31904	
6681	0	31812	
6682	0	31696	
6683	0	31820	
6684	0	31904	
6685	0	31804	
6686	0	31704	
6687	0	31808	
6688	0	31916	
6689	0	31816	
6690	0	31704	
6691	0	31828	
6692	0	31928	
6693	0	31800	
6694	0	31704	
6695	0	31824	
6696	0	31928	
6697	0	31804	
6698	0	31704	
6699	0	31838	
6700	0	31924	
6701	0	31812	
6702	0	31688	
6703	0	31832	
6704	0	31928	
6705	0	31800	
6706	0	31704	
6707	0	31828	
6708	0	31924	
6709	0	31804	
6710	0	31712	
6711	0	31836	
6712	0	31936	
6713	0	31804	
6714	0	31720	
6715	0	31824	
6716	0	31922	
6717	0	31780	
6718	0	31712	
6719	0	31828	
6720	0	31936	
6721	0	31788	
6722	0	31712	
6723	0	31844	
6724	0	31918	
6725	0	31788	
6726	0	31712	
6727	0	31836	
6728	0	31936	
6729	0	31796	
6730	0	31720	
6731	0	31848	
6732	0	31936	
6733	0	31800	
6734	0	31716	
6735	0	31844	
6736	0	31928	
6737	0	31804	
6738	0	31728	
6739	0	31868	
6740	0	31944	
6741	0	31796	
6742	0	31728	
6743	0	31840	
6744	0	31936	
6745	0	31780	
6746	0	31712	
6747	0	31840	
6748	0	31932	
6749	0	31792	
6750	0	31736	
6751	0	31844	
6752	0	31940	
6753	0	31808	
6754	0	31720	
6755	0	31852	
6756	0	31936	
6757	0	31792	
6758	0	31732	
6759	0	31848	
6760	0	31936	
6761	0	31792	
6762	0	31732	
6763	0	31848	
6764	0	31936	
6765	0	31784	
6766	0	31732	
6767	0	31848	
6768	0	31940	
6769	0	31784	
6770	0	31728	
6771	0	31848	
6772	0	31936	
6773	0	31800	
6774	0	31728	
6775	0	31860	
6776	0	31940	
6777	0	31784	
6778	0	31748	
6779	0	31852	
6780	0	31948	
6781	0	31780	
6782	0	31756	
6783	0	31860	
6784	0	31936	
6785	0	31780	
6786	0	31736	
6787	0	31852	
6788	0	31928	
6789	0	31780	
6790	0	31716	
6791	0	31852	
6792	0	31936	
6793	0	31780	
6794	0	31744	
6795	0	31852	
6796	0	31936	
6797	0	31800	
6798	0	31738	
6799	0	31852	
6800	0	31936	
6801	0	31776	
6802	0	31744	
6803	0	31848	
6804	0	31956	
6805	0	31776	
6806	0	31736	
6807	0	31848	
6808	0	31924	
6809	0	31766	
6810	0	31744	
6811	0	31852	
6812	0	31928	
6813	0	31776	
6814	0	31748	
6815	0	31860	
6816	0	31920	
6817	0	31772	
6818	0	31752	
6819	0	31840	
6820	0	31932	
6821	0	31774	
6822	0	31758	
6823	0	31860	
6824	0	31924	
6825	0	31776	
6826	0	31734	
6827	0	31864	
6828	0	31924	
6829	0	31772	
6830	0	31744	
6831	0	31860	
6832	0	31936	
6833	0	31768	
6834	0	31744	
6835	0	31852	
6836	0	31912	
6837	0	31776	
6838	0	31752	
6839	0	31872	
6840	0	31924	
6841	0	31744	
6842	0	31752	
6843	0	31856	
6844	0	31920	
6845	0	31772	
6846	0	31748	
6847	0	31866	
6848	0	31932	
6849	0	31772	
6850	0	31752	
6851	0	31860	
6852	0	31912	
6853	0	31764	
6854	0	31742	
6855	0	31844	
6856	0	31920	
6857	0	31764	
6858	0	31756	
6859	0	31870	
6860	0	31928	
6861	0	31768	
6862	0	31772	
6863	0	31856	
6864	0	31912	
6865	0	31760	
6866	0	31748	
6867	0	31860	
6868	0	31916	
6869	0	31768	
6870	0	31776	
6871	0	31872	
6872	0	31916	
6873	0	31768	
6874	0	31756	
6875	0	31864	
6876	0	31904	
6877	0	31784	
6878	0	31772	
6879	0	31876	
6880	0	31918	
6881	0	31768	
6882	0	31772	
6883	0	31876	
6884	0	31896	
6885	0	31769	
6886	0	31776	
6887	0	31872	
6888	0	31908	
6889	0	31772	
6890	0	31776	
6891	0	31872	
6892	0	31912	
6893	0	31756	
6894	0	31760	
6895	0	31880	
6896	0	31912	
6897	0	31756	
6898	0	31768	
6899	0	31868	
6900	0	31904	
6901	0	31764	
6902	0	31780	
6903	0	31893	
6904	0	31908	
6905	0	31760	
6906	0	31784	
6907	0	31886	
6908	0	31912	
6909	0	31752	
6910	0	31776	
6911	0	31888	
6912	0	31908	
6913	0	31756	
6914	0	31772	
6915	0	31884	
6916	0	31904	
6917	0	31760	
6918	0	31776	
6919	0	31880	
6920	0	31910	
6921	0	31756	
6922	0	31780	
6923	0	31892	
6924	0	31900	
6925	0	31756	
6926	0	31784	
6927	0	31888	
6928	0	31916	
6929	0	31756	
6930	0	31788	
6931	0	31904	
6932	0	31896	
6933	0	31756	
6934	0	31788	
6935	0	31888	
6936	0	31900	
6937	0	31760	
6938	0	31792	
6939	0	31904	
6940	0	31904	
6941	0	31756	
6942	0	31812	
6943	0	31908	
6944	0	31900	
6945	0	31764	
6946	0	31808	
6947	0	31904	
6948	0	31908	
6949	0	31756	
6950	0	31824	
6951	0	31912	
6952	0	31908	
6953	0	31756	
6954	0	31792	
6955	0	31900	
6956	0	31896	
6957	0	31764	
6958	0	31800	
6959	0	31902	
6960	0	31908	
6961	0	31768	
6962	0	31816	
6963	0	31916	
6964	0	31908	
6965	0	31768	
6966	0	31808	
6967	0	31916	
6968	0	31904	
6969	0	31768	
6970	0	31812	
6971	0	31924	
6972	0	31940	
6973	0	31768	
6974	0	31808	
6975	0	31912	
6976	0	31904	
6977	0	31760	
6978	0	31828	
6979	0	31912	
6980	0	31904	
6981	0	31768	
6982	0	31836	
6983	0	31928	
6984	0	31918	
6985	0	31772	
6986	0	31820	
6987	0	31937	
6988	0	31921	
6989	0	31776	
6990	0	31828	
6991	0	31936	
6992	0	31928	
6993	0	31784	
6994	0	31824	
6995	0	31928	
6996	0	31908	
6997	0	31780	
6998	0	31829	
6999	0	31932	
7000	0	31916	
7001	0	31756	
7002	0	31840	
7003	0	31928	
7004	0	31912	
7005	0	31768	
7006	0	31832	
7007	0	31940	
7008	0	31908	
7009	0	31784	
7010	0	31828	
7011	0	31940	
7012	0	31920	
7013	0	31768	
7014	0	31832	
7015	0	31928	
7016	0	31900	
7017	0	31764	
7018	0	31836	
7019	0	31938	
7020	0	31904	
7021	0	31772	
7022	0	31852	
7023	0	31920	
7024	0	31912	
7025	0	31768	
7026	0	31836	
7027	0	31936	
7028	0	31916	
7029	0	31788	
7030	0	31860	
7031	0	31944	
7032	0	31912	
7033	0	31768	
7034	0	31838	
7035	0	31940	
7036	0	31900	
7037	0	31784	
7038	0	31840	
7039	0	31944	
7040	0	31908	
7041	0	31788	
7042	0	31844	
7043	0	31944	
7044	0	31904	
7045	0	31772	
7046	0	31856	
7047	0	31948	
7048	0	31912	
7049	0	31768	
7050	0	31844	
7051	0	31944	
7052	0	31908	
7053	0	31764	
7054	0	31836	
7055	0	31944	
7056	0	31904	
7057	0	31764	
7058	0	31824	
7059	0	31968	
7060	0	31892	
7061	0	31760	
7062	0	31840	
7063	0	31948	
7064	0	31892	
7065	0	31752	
7066	0	31856	
7067	0	31944	
7068	0	31900	
7069	0	31764	
7070	0	31852	
7071	0	31952	
7072	0	31904	
7073	0	31764	
7074	0	31844	
7075	0	31948	
7076	0	31888	
7077	0	31756	
7078	0	31848	
7079	0	31940	
7080	0	31892	
7081	0	31776	
7082	0	31848	
7083	0	31952	
7084	0	31896	
7085	0	31752	
7086	0	31844	
7087	0	31960	
7088	0	31884	
7089	0	31764	
7090	0	31852	
7091	0	31952	
7092	0	31902	
7093	0	31752	
7094	0	31848	
7095	0	31944	
7096	0	31896	
7097	0	31764	
7098	0	31848	
7099	0	31936	
7100	0	31880	
7101	0	31756	
7102	0	31856	
7103	0	31960	
7104	0	31892	
7105	0	31756	
7106	0	31852	
7107	0	31944	
7108	0	31896	
7109	0	31768	
7110	0	31872	
7111	0	31956	
7112	0	31904	
7113	0	31756	
7114	0	31852	
7115	0	31948	
7116	0	31888	
7117	0	31748	
7118	0	31860	
7119	0	31944	
7120	0	31900	
7121	0	31756	
7122	0	31856	
7123	0	31956	
7124	0	31896	
7125	0	31756	
7126	0	31864	
7127	0	31952	
7128	0	31896	
7129	0	31768	
7130	0	31856	
7131	0	31960	
7132	0	31892	
7133	0	31760	
7134	0	31856	
7135	0	31962	
7136	0	31896	
7137	0	31752	
7138	0	31852	
7139	0	31952	
7140	0	31892	
7141	0	31756	
7142	0	31856	
7143	0	31956	
7144	0	31892	
7145	0	31760	
7146	0	31860	
7147	0	31952	
7148	0	31892	
7149	0	31752	
7150	0	31878	
7151	0	31968	
7152	0	31902	
7153	0	31744	
7154	0	31872	
7155	0	31952	
7156	0	31884	
7157	0	31744	
7158	0	31858	
7159	0	31944	
7160	0	31888	
7161	0	31724	
7162	0	31856	
7163	0	31952	
7164	0	31876	
7165	0	31750	
7166	0	31844	
7167	0	31952	
7168	0	31872	
7169	0	31752	
7170	0	31856	
7171	0	31956	
7172	0	31884	
7173	0	31748	
7174	0	31854	
7175	0	31946	
7176	0	31888	
7177	0	31740	
7178	0	31848	
7179	0	31944	
7180	0	31880	
7181	0	31748	
7182	0	31848	
7183	0	31924	
7184	0	31878	
7185	0	31728	
7186	0	31836	
7187	0	31940	
7188	0	31868	
7189	0	31740	
7190	0	31824	
7191	0	31936	
7192	0	31864	
7193	0	31728	
7194	0	31832	
7195	0	31932	
7196	0	31860	
7197	0	31712	
7198	0	31832	
7199	0	31936	
7200	0	31864	
7201	0	31736	
7202	0	31840	
7203	0	31944	
7204	0	31868	
7205	0	31696	
7206	0	31836	
7207	0	31936	
7208	0	31852	
7209	0	31724	
7210	0	31836	
7211	0	31936	
7212	0	31888	
7213	0	31724	
7214	0	31838	
7215	0	31928	
7216	0	31848	
7217	0	31716	
7218	0	31828	
7219	0	31928	
7220	0	31860	
7221	0	31736	
7222	0	31840	
7223	0	31944	
7224	0	31856	
7225	0	31712	
7226	0	31836	
7227	0	31932	
7228	0	31848	
7229	0	31720	
7230	0	31840	
7231	0	31948	
7232	0	31860	
7233	0	31720	
7234	0	31868	
7235	0	31940	
7236	0	31860	
7237	0	31722	
7238	0	31838	
7239	0	31936	
7240	0	31860	
7241	0	31732	
7242	0	31860	
7243	0	31948	
7244	0	31856	
7245	0	31720	
7246	0	31832	
7247	0	31936	
7248	0	31844	
7249	0	31724	
7250	0	31860	
7251	0	31940	
7252	0	31860	
7253	0	31729	
7254	0	31856	
7255	0	31936	
7256	0	31876	
7257	0	31725	
7258	0	31860	
7259	0	31956	
7260	0	31864	
7261	0	31728	
7262	0	31848	
7263	0	31952	
7264	0	31848	
7265	0	31724	
7266	0	31852	
7267	0	31936	
7268	0	31860	
7269	0	31720	
7270	0	31844	
7271	0	31952	
7272	0	31864	
7273	0	31732	
7274	0	31852	
7275	0	31952	
7276	0	31864	
7277	0	31724	
7278	0	31860	
7279	0	31952	
7280	0	31864	
7281	0	31740	
7282	0	31860	
7283	0	31952	
7284	0	31864	
7285	0	31728	
7286	0	31852	
7287	0	31952	
7288	0	31848	
7289	0	31732	
7290	0	31864	
7291	0	31948	
7292	0	31880	
7293	0	31728	
7294	0	31860	
7295	0	31948	
7296	0	31852	
7297	0	31732	
7298	0	31868	
7299	0	31957	
7300	0	31868	
7301	0	31724	
7302	0	31864	
7303	0	31962	
7304	0	31854	
7305	0	31732	
7306	0	31848	
7307	0	31960	
7308	0	31848	
7309	0	31724	
7310	0	31853	
7311	0	31952	
7312	0	31856	
7313	0	31724	
7314	0	31852	
7315	0	31948	
7316	0	31856	
7317	0	31732	
7318	0	31856	
7319	0	31968	
7320	0	31852	
7321	0	31756	
7322	0	31868	
7323	0	31956	
7324	0	31852	
7325	0	31732	
7326	0	31860	
7327	0	31960	
7328	0	31848	
7329	0	31736	
7330	0	31856	
7331	0	31960	
7332	0	31860	
7333	0	31736	
7334	0	31856	
7335	0	31956	
7336	0	31840	
7337	0	31740	
7338	0	31868	
7339	0	31960	
7340	0	31852	
7341	0	31736	
7342	0	31872	
7343	0	31976	
7344	0	31848	
7345	0	31726	
7346	0	31864	
7347	0	31952	
7348	0	31844	
7349	0	31736	
7350	0	31852	
7351	0	31956	
7352	0	31844	
7353	0	31728	
7354	0	31852	
7355	0	31965	
7356	0	31848	
7357	0	31732	
7358	0	31864	
7359	0	31952	
7360	0	31848	
7361	0	31744	
7362	0	31876	
7363	0	31968	
7364	0	31848	
7365	0	31736	
7366	0	31864	
7367	0	31964	
7368	0	31844	
7369	0	31751	
7370	0	31868	
7371	0	31956	
7372	0	31824	
7373	0	31744	
7374	0	31856	
7375	0	31960	
7376	0	31856	
7377	0	31748	
7378	0	31872	
7379	0	31976	
7380	0	31848	
7381	0	31754	
7382	0	31872	
7383	0	31976	
7384	0	31844	
7385	0	31760	
7386	0	31872	
7387	0	31984	
7388	0	31852	
7389	0	31744	
7390	0	31868	
7391	0	31960	
7392	0	31832	
7393	0	31740	
7394	0	31876	
7395	0	31964	
7396	0	31856	
7397	0	31748	
7398	0	31860	
7399	0	31972	
7400	0	31844	
7401	0	31768	
7402	0	31880	
7403	0	31980	
7404	0	31852	
7405	0	31756	
7406	0	31876	
7407	0	31972	
7408	0	31852	
7409	0	31756	
7410	0	31880	
7411	0	31968	
7412	0	31848	
7413	0	31756	
7414	0	31881	
7415	0	31962	
7416	0	31808	
7417	0	31760	
7418	0	31876	
7419	0	31968	
7420	0	31848	
7421	0	31756	
7422	0	31876	
7423	0	31956	
7424	0	31848	
7425	0	31756	
7426	0	31888	
7427	0	31976	
7428	0	31848	
7429	0	31764	
7430	0	31880	
7431	0	31980	
7432	0	31844	
7433	0	31762	
7434	0	31876	
7435	0	31976	
7436	0	31840	
7437	0	31768	
7438	0	31876	
7439	0	31980	
7440	0	31848	
7441	0	31772	
7442	0	31888	
7443	0	31976	
7444	0	31848	
7445	0	31756	
7446	0	31888	
7447	0	31980	
7448	0	31832	
7449	0	31768	
7450	0	31892	
7451	0	31981	
7452	0	31864	
7453	0	31772	
7454	0	31892	
7455	0	31976	
7456	0	31834	
7457	0	31764	
7458	0	31892	
7459	0	31976	
7460	0	31832	
7461	0	31776	
7462	0	31896	
7463	0	31984	
7464	0	31840	
7465	0	31776	
7466	0	31884	
7467	0	31968	
7468	0	31840	
7469	0	31764	
7470	0	31892	
7471	0	31984	
7472	0	31836	
7473	0	31776	
7474	0	31884	
7475	0	31968	
7476	0	31836	
7477	0	31768	
7478	0	31880	
7479	0	31980	
7480	0	31832	
7481	0	31784	
7482	0	31892	
7483	0	31988	
7484	0	31840	
7485	0	31776	
7486	0	31896	
7487	0	31992	
7488	0	31840	
7489	0	31772	
7490	0	31893	
7491	0	31992	
7492	0	31844	
7493	0	31780	
7494	0	31888	
7495	0	31976	
7496	0	31837	
7497	0	31772	
7498	0	31888	
7499	0	31988	
7500	0	31836	
7501	0	31776	
7502	0	31892	
7503	0	31988	
7504	0	31832	
7505	0	31776	
7506	0	31892	
7507	0	31988	
7508	0	31840	
7509	0	31776	
7510	0	31900	
7511	0	31996	
7512	0	31832	
7513	0	31780	
7514	0	31894	
7515	0	31984	
7516	0	31828	
7517	0	31776	
7518	0	31892	
7519	0	31984	
7520	0	31828	
7521	0	31780	
7522	0	31900	
7523	0	31984	
7524	0	31824	
7525	0	31792	
7526	0	31888	
7527	0	31984	
7528	0	31824	
7529	0	31780	
7530	0	31896	
7531	0	31988	
7532	0	31824	
7533	0	31788	
7534	0	31888	
7535	0	31976	
7536	0	31808	
7537	0	31772	
7538	0	31888	
7539	0	31980	
7540	0	31800	
7541	0	31796	
7542	0	31896	
7543	0	31980	
7544	0	31820	
7545	0	31772	
7546	0	31896	
7547	0	31976	
7548	0	31820	
7549	0	31784	
7550	0	31896	
7551	0	31984	
7552	0	31824	
7553	0	31788	
7554	0	31900	
7555	0	31984	
7556	0	31812	
7557	0	31784	
7558	0	31900	
7559	0	31976	
7560	0	31820	
7561	0	31784	
7562	0	31908	
7563	0	31980	
7564	0	31820	
7565	0	31792	
7566	0	31900	
7567	0	31980	
7568	0	31828	
7569	0	31806	
7570	0	31916	
7571	0	31976	
7572	0	31836	
7573	0	31796	
7574	0	31904	
7575	0	31976	
7576	0	31824	
7577	0	31792	
7578	0	31902	
7579	0	31968	
7580	0	31820	
7581	0	31796	
7582	0	31900	
7583	0	31976	
7584	0	31812	
7585	0	31800	
7586	0	31904	
7587	0	31972	
7588	0	31820	
7589	0	31800	
7590	0	31904	
7591	0	31976	
7592	0	31820	
7593	0	31793	
7594	0	31914	
7595	0	31960	
7596	0	31808	
7597	0	31796	
7598	0	31904	
7599	0	31960	
7600	0	31804	
7601	0	31801	
7602	0	31908	
7603	0	31960	
7604	0	31804	
7605	0	31788	
7606	0	31912	
7607	0	31956	
7608	0	31802	
7609	0	31792	
7610	0	31908	
7611	0	31960	
7612	0	31796	
7613	0	31792	
7614	0	31900	
7615	0	31936	
7616	0	31792	
7617	0	31788	
7618	0	31888	
7619	0	31940	
7620	0	31784	
7621	0	31776	
7622	0	31896	
7623	0	31920	
7624	0	31776	
7625	0	31776	
7626	0	31880	
7627	0	31932	
7628	0	31772	
7629	0	31776	
7630	0	31888	
7631	0	31916	
7632	0	31780	
7633	0	31772	
7634	0	31888	
7635	0	31916	
7636	0	31764	
7637	0	31764	
7638	0	31884	
7639	0	31900	
7640	0	31764	
7641	0	31768	
7642	0	31864	
7643	0	31896	
7644	0	31752	
7645	0	31760	
7646	0	31876	
7647	0	31900	
7648	0	31760	
7649	0	31768	
7650	0	31876	
7651	0	31896	
7652	0	31760	
7653	0	31772	
7654	0	31877	
7655	0	31892	
7656	0	31748	
7657	0	31760	
7658	0	31856	
7659	0	31888	
7660	0	31744	
7661	0	31756	
7662	0	31868	
7663	0	31884	
7664	0	31744	
7665	0	31752	
7666	0	31868	
7667	0	31892	
7668	0	31744	
7669	0	31756	
7670	0	31872	
7671	0	31888	
7672	0	31744	
7673	0	31764	
7674	0	31876	
7675	0	31888	
7676	0	31744	
7677	0	31768	
7678	0	31872	
7679	0	31888	
7680	0	31736	
7681	0	31776	
7682	0	31870	
7683	0	31897	
7684	0	31732	
7685	0	31772	
7686	0	31876	
7687	0	31892	
7688	0	31751	
7689	0	31768	
7690	0	31884	
7691	0	31904	
7692	0	31748	
7693	0	31780	
7694	0	31892	
7695	0	31896	
7696	0	31752	
7697	0	31784	
7698	0	31888	
7699	0	31896	
7700	0	31748	
7701	0	31784	
7702	0	31888	
7703	0	31900	
7704	0	31760	
7705	0	31776	
7706	0	31892	
7707	0	31892	
7708	0	31768	
7709	0	31792	
7710	0	31904	
7711	0	31920	
7712	0	31773	
7713	0	31804	
7714	0	31904	
7715	0	31904	
7716	0	31764	
7717	0	31796	
7718	0	31916	
7719	0	31904	
7720	0	31760	
7721	0	31808	
7722	0	31908	
7723	0	31920	
7724	0	31772	
7725	0	31812	
7726	0	31920	
7727	0	31908	
7728	0	31764	
7729	0	31816	
7730	0	31916	
7731	0	31922	
7732	0	31772	
7733	0	31816	
7734	0	31916	
7735	0	31928	
7736	0	31772	
7737	0	31808	
7738	0	31920	
7739	0	31916	
7740	0	31772	
7741	0	31820	
7742	0	31928	
7743	0	31924	
7744	0	31776	
7745	0	31812	
7746	0	31924	
7747	0	31916	
7748	0	31774	
7749	0	31816	
7750	0	31932	
7751	0	31916	
7752	0	31780	
7753	0	31812	
7754	0	31920	
7755	0	31916	
7756	0	31776	
7757	0	31824	
7758	0	31924	
7759	0	31924	
7760	0	31776	
7761	0	31816	
7762	0	31920	
7763	0	31912	
7764	0	31768	
7765	0	31808	
7766	0	31920	
7767	0	31904	
7768	0	31764	
7769	0	31820	
7770	0	31912	
7771	0	31904	
7772	0	31760	
7773	0	31812	
7774	0	31912	
7775	0	31896	
7776	0	31756	
7777	0	31802	
7778	0	31912	
7779	0	31904	
7780	0	31748	
7781	0	31800	
7782	0	31920	
7783	0	31892	
7784	0	31744	
7785	0	31800	
7786	0	31892	
7787	0	31884	
7788	0	31746	
7789	0	31800	
7790	0	31908	
7791	0	31884	
7792	0	31751	
7793	0	31804	
7794	0	31900	
7795	0	31884	
7796	0	31744	
7797	0	31800	
7798	0	31908	
7799	0	31876	
7800	0	31736	
7801	0	31812	
7802	0	31908	
7803	0	31876	
7804	0	31740	
7805	0	31804	
7806	0	31896	
7807	0	31864	
7808	0	31724	
7809	0	31808	
7810	0	31904	
7811	0	31868	
7812	0	31732	
7813	0	31800	
7814	0	31913	
7815	0	31872	
7816	0	31736	
7817	0	31812	
7818	0	31912	
7819	0	31874	
7820	0	31736	
7821	0	31808	
7822	0	31908	
7823	0	31860	
7824	0	31736	
7825	0	31808	
7826	0	31908	
7827	0	31864	
7828	0	31732	
7829	0	31796	
7830	0	31908	
7831	0	31864	
7832	0	31728	
7833	0	31808	
7834	0	31904	
7835	0	31868	
7836	0	31724	
7837	0	31812	
7838	0	31916	
7839	0	31868	
7840	0	31736	
7841	0	31816	
7842	0	31916	
7843	0	31877	
7844	0	31734	
7845	0	31812	
7846	0	31908	
7847	0	31864	
7848	0	31740	
7849	0	31824	
7850	0	31916	
7851	0	31868	
7852	0	31726	
7853	0	31816	
7854	0	31912	
7855	0	31864	
7856	0	31728	
7857	0	31808	
7858	0	31912	
7859	0	31872	
7860	0	31744	
7861	0	31820	
7862	0	31922	
7863	0	31872	
7864	0	31728	
7865	0	31828	
7866	0	31916	
7867	0	31868	
7868	0	31732	
7869	0	31832	
7870	0	31920	
7871	0	31868	
7872	0	31732	
7873	0	31824	
7874	0	31920	
7875	0	31868	
7876	0	31724	
7877	0	31824	
7878	0	31924	
7879	0	31856	
7880	0	31728	
7881	0	31840	
7882	0	31936	
7883	0	31872	
7884	0	31725	
7885	0	31832	
7886	0	31928	
7887	0	31856	
7888	0	31728	
7889	0	31828	
7890	0	31932	
7891	0	31852	
7892	0	31712	
7893	0	31820	
7894	0	31916	
7895	0	31849	
7896	0	31704	
7897	0	31844	
7898	0	31920	
7899	0	31848	
7900	0	31716	
7901	0	31841	
7902	0	31940	
7903	0	31848	
7904	0	31712	
7905	0	31820	
7906	0	31920	
7907	0	31836	
7908	0	31712	
7909	0	31824	
7910	0	31924	
7911	0	31844	
7912	0	31704	
7913	0	31833	
7914	0	31920	
7915	0	31840	
7916	0	31704	
7917	0	31812	
7918	0	31920	
7919	0	31836	
7920	0	31704	
7921	0	31832	
7922	0	31924	
7923	0	31844	
7924	0	31700	
7925	0	31836	
7926	0	31924	
7927	0	31832	
7928	0	31696	
7929	0	31820	
7930	0	31912	
7931	0	31828	
7932	0	31696	
7933	0	31820	
7934	0	31912	
7935	0	31829	
7936	0	31684	
7937	0	31824	
7938	0	31932	
7939	0	31824	
7940	0	31704	
7941	0	31836	
7942	0	31924	
7943	0	31824	
7944	0	31700	
7945	0	31828	
7946	0	31917	
7947	0	31828	
7948	0	31696	
7949	0	31816	
7950	0	31920	
7951	0	31816	
7952	0	31692	
7953	0	31832	
7954	0	31924	
7955	0	31820	
7956	0	31696	
7957	0	31820	
7958	0	31924	
7959	0	31820	
7960	0	31696	
7961	0	31824	
7962	0	31928	
7963	0	31816	
7964	0	31712	
7965	0	31828	
7966	0	31924	
7967	0	31820	
7968	0	31712	
7969	0	31828	
7970	0	31924	
7971	0	31820	
7972	0	31704	
7973	0	31832	
7974	0	31916	
7975	0	31808	
7976	0	31692	
7977	0	31820	
7978	0	31924	
7979	0	31820	
7980	0	31712	
7981	0	31840	
7982	0	31928	
7983	0	31816	
7984	0	31716	
7985	0	31840	
7986	0	31928	
7987	0	31824	
7988	0	31704	
7989	0	31832	
7990	0	31926	
7991	0	31820	
7992	0	31708	
7993	0	31836	
7994	0	31924	
7995	0	31808	
7996	0	31700	
7997	0	31832	
7998	0	31928	
7999	0	31820	
8000	0	31713	
8001	0	31840	
8002	0	31932	
8003	0	31824	
8004	0	31712	
8005	0	31836	
8006	0	31932	
8007	0	31816	
8008	0	31704	
8009	0	31838	
8010	0	31928	
8011	0	31824	
8012	0	31712	
8013	0	31836	
8014	0	31932	
8015	0	31812	
8016	0	31704	
8017	0	31824	
8018	0	31932	
8019	0	31812	
8020	0	31708	
8021	0	31840	
8022	0	31932	
8023	0	31812	
8024	0	31712	
8025	0	31844	
8026	0	31928	
8027	0	31812	
8028	0	31712	
8029	0	31836	
8030	0	31929	
8031	0	31812	
8032	0	31712	
8033	0	31832	
8034	0	31928	
8035	0	31808	
8036	0	31708	
8037	0	31828	
8038	0	31944	
8039	0	31804	
8040	0	31724	
8041	0	31840	
8042	0	31936	
8043	0	31800	
8044	0	31716	
8045	0	31836	
8046	0	31928	
8047	0	31804	
8048	0	31720	
8049	0	31852	
8050	0	31924	
8051	0	31806	
8052	0	31720	
8053	0	31840	
8054	0	31932	
8055	0	31796	
8056	0	31708	
8057	0	31840	
8058	0	31916	
8059	0	31788	
8060	0	31712	
8061	0	31832	
8062	0	31932	
8063	0	31788	
8064	0	31720	
8065	0	31848	
8066	0	31928	
8067	0	31780	
8068	0	31714	
8069	0	31836	
8070	0	31932	
8071	0	31788	
8072	0	31728	
8073	0	31832	
8074	0	31924	
8075	0	31776	
8076	0	31712	
8077	0	31824	
8078	0	31924	
8079	0	31764	
8080	0	31712	
8081	0	31824	
8082	0	31924	
8083	0	31776	
8084	0	31708	
8085	0	31828	
8086	0	31920	
8087	0	31764	
8088	0	31704	
8089	0	31820	
8090	0	31916	
8091	0	31780	
8092	0	31712	
8093	0	31828	
8094	0	31916	
8095	0	31782	
8096	0	31696	
8097	0	31816	
8098	0	31908	
8099	0	31768	
8100	0	31684	
8101	0	31820	
8102	0	31904	
8103	0	31768	
8104	0	31704	
8105	0	31812	
8106	0	31904	
8107	0	31768	
8108	0	31700	
8109	0	31828	
8110	0	31920	
8111	0	31764	
8112	0	31712	
8113	0	31820	
8114	0	31908	
8115	0	31780	
8116	0	31700	
8117	0	31812	
8118	0	31912	
8119	0	31752	
8120	0	31704	
8121	0	31812	
8122	0	31904	
8123	0	31760	
8124	0	31696	
8125	0	31816	
8126	0	31908	
8127	0	31756	
8128	0	31704	
8129	0	31808	
8130	0	31916	
8131	0	31764	
8132	0	31700	
8133	0	31816	
8134	0	31916	
8135	0	31760	
8136	0	31704	
8137	0	31820	
8138	0	31912	
8139	0	31760	
8140	0	31704	
8141	0	31812	
8142	0	31916	
8143	0	31756	
8144	0	31708	
8145	0	31820	
8146	0	31912	
8147	0	31752	
8148	0	31708	
8149	0	31832	
8150	0	31912	
8151	0	31764	
8152	0	31720	
8153	0	31832	
8154	0	31928	
8155	0	31768	
8156	0	31712	
8157	0	31832	
8158	0	31930	
8159	0	31764	
8160	0	31728	
8161	0	31832	
8162	0	31932	
8163	0	31768	
8164	0	31712	
8165	0	31832	
8166	0	31936	
8167	0	31764	
8168	0	31728	
8169	0	31852	
8170	0	31944	
8171	0	31776	
8172	0	31736	
8173	0	31844	
8174	0	31937	
8175	0	31772	
8176	0	31732	
8177	0	31852	
8178	0	31936	
8179	0	31772	
8180	0	31736	
8181	0	31860	
8182	0	31920	
8183	0	31772	
8184	0	31736	
8185	0	31840	
8186	0	31924	
8187	0	31760	
8188	0	31745	
8189	0	31840	
8190	0	31928	
8191	0	31776	
8192	0	31744	
8193	0	31852	
8194	0	31920	
8195	0	31764	
8196	0	31744	
8197	0	31860	
8198	0	31916	
8199	0	31756	
8200	0	31740	
8201	0	31864	
8202	0	31924	
8203	0	31760	
8204	0	31736	
8205	0	31852	
8206	0	31920	
8207	0	31760	
8208	0	31736	
8209	0	31848	
8210	0	31912	
8211	0	31764	
8212	0	31744	
8213	0	31856	
8214	0	31912	
8215	0	31756	
8216	0	31748	
8217	0	31848	
8218	0	31916	
8219	0	31748	
8220	0	31744	
8221	0	31848	
8222	0	31912	
8223	0	31748	
8224	0	31740	
8225	0	31844	
8226	0	31904	
8227	0	31736	
8228	0	31728	
8229	0	31852	
8230	0	31904	
8231	0	31744	
8232	0	31736	
8233	0	31852	
8234	0	31900	
8235	0	31740	
8236	0	31736	
8237	0	31848	
8238	0	31900	
8239	0	31744	
8240	0	31736	
8241	0	31844	
8242	0	31892	
8243	0	31736	
8244	0	31724	
8245	0	31844	
8246	0	31894	
8247	0	31732	
8248	0	31724	
8249	0	31832	
8250	0	31888	
8251	0	31742	
8252	0	31744	
8253	0	31844	
8254	0	31888	
8255	0	31744	
8256	0	31732	
8257	0	31840	
8258	0	31892	
8259	0	31740	
8260	0	31740	
8261	0	31852	
8262	0	31894	
8263	0	31740	
8264	0	31736	
8265	0	31840	
8266	0	31876	
8267	0	31732	
8268	0	31740	
8269	0	31840	
8270	0	31884	
8271	0	31736	
8272	0	31740	
8273	0	31848	
8274	0	31880	
8275	0	31744	
8276	0	31740	
8277	0	31844	
8278	0	31888	
8279	0	31732	
8280	0	31751	
8281	0	31860	
8282	0	31884	
8283	0	31736	
8284	0	31736	
8285	0	31848	
8286	0	31872	
8287	0	31732	
8288	0	31740	
8289	0	31852	
8290	0	31878	
8291	0	31729	
8292	0	31748	
8293	0	31852	
8294	0	31888	
8295	0	31732	
8296	0	31748	
8297	0	31856	
8298	0	31880	
8299	0	31736	
8300	0	31740	
8301	0	31856	
8302	0	31888	
8303	0	31744	
8304	0	31740	
8305	0	31852	
8306	0	31876	
8307	0	31744	
8308	0	31740	
8309	0	31856	
8310	0	31880	
8311	0	31732	
8312	0	31750	
8313	0	31860	
8314	0	31888	
8315	0	31728	
8316	0	31748	
8317	0	31860	
8318	0	31884	
8319	0	31740	
8320	0	31752	
8321	0	31860	
8322	0	31880	
8323	0	31744	
8324	0	31765	
8325	0	31864	
8326	0	31884	
8327	0	31732	
8328	0	31740	
8329	0	31848	
8330	0	31877	
8331	0	31732	
8332	0	31740	
8333	0	31860	
8334	0	31872	
8335	0	31736	
8336	0	31752	
8337	0	31860	
8338	0	31888	
8339	0	31732	
8340	0	31752	
8341	0	31860	
8342	0	31880	
8343	0	31736	
8344	0	31752	
8345	0	31852	
8346	0	31880	
8347	0	31728	
8348	0	31744	
8349	0	31856	
8350	0	31884	
8351	0	31740	
8352	0	31748	
8353	0	31860	
8354	0	31880	
8355	0	31724	
8356	0	31748	
8357	0	31856	
8358	0	31876	
8359	0	31724	
8360	0	31760	
8361	0	31868	
8362	0	31884	
8363	0	31748	
8364	0	31756	
8365	0	31856	
8366	0	31868	
8367	0	31740	
8368	0	31756	
8369	0	31856	
8370	0	31868	
8371	0	31736	
8372	0	31746	
8373	0	31864	
8374	0	31864	
8375	0	31732	
8376	0	31752	
8377	0	31864	
8378	0	31864	
8379	0	31736	
8380	0	31756	
8381	0	31864	
8382	0	31888	
8383	0	31732	
8384	0	31764	
8385	0	31868	
8386	0	31872	
8387	0	31736	
8388	0	31764	
8389	0	31864	
8390	0	31880	
8391	0	31736	
8392	0	31764	
8393	0	31856	
8394	0	31864	
8395	0	31732	
8396	0	31760	
8397	0	31864	
8398	0	31880	
8399	0	31732	
8400	0	31764	
8401	0	31880	
8402	0	31880	
8403	0	31732	
8404	0	31776	
8405	0	31872	
8406	0	31872	
8407	0	31736	
8408	0	31774	
8409	0	31868	
8410	0	31876	
8411	0	31732	
8412	0	31780	
8413	0	31876	
8414	0	31876	
8415	0	31728	
8416	0	31768	
8417	0	31876	
8418	0	31888	
8419	0	31742	
8420	0	31781	
8421	0	31888	
8422	0	31876	
8423	0	31736	
8424	0	31776	
8425	0	31877	
8426	0	31884	
8427	0	31740	
8428	0	31784	
8429	0	31884	
8430	0	31888	
8431	0	31740	
8432	0	31792	
8433	0	31888	
8434	0	31880	
8435	0	31740	
8436	0	31788	
8437	0	31892	
8438	0	31880	
8439	0	31746	
8440	0	31801	
8441	0	31904	
8442	0	31896	
8443	0	31760	
8444	0	31808	
8445	0	31896	
8446	0	31892	
8447	0	31744	
8448	0	31800	
8449	0	31904	
8450	0	31896	
8451	0	31760	
8452	0	31804	
8453	0	31904	
8454	0	31888	
8455	0	31746	
8456	0	31796	
8457	0	31896	
8458	0	31892	
8459	0	31764	
8460	0	31800	
8461	0	31908	
8462	0	31908	
8463	0	31768	
8464	0	31816	
8465	0	31896	
8466	0	31888	
8467	0	31752	
8468	0	31800	
8469	0	31912	
8470	0	31902	
8471	0	31760	
8472	0	31812	
8473	0	31904	
8474	0	31888	
8475	0	31744	
8476	0	31796	
8477	0	31900	
8478	0	31888	
8479	0	31748	
8480	0	31796	
8481	0	31904	
8482	0	31888	
8483	0	31754	
8484	0	31800	
8485	0	31904	
8486	0	31884	
8487	0	31744	
8488	0	31796	
8489	0	31904	
8490	0	31888	
8491	0	31748	
8492	0	31792	
8493	0	31904	
8494	0	31876	
8495	0	31738	
8496	0	31784	
8497	0	31900	
8498	0	31868	
8499	0	31738	
8500	0	31802	
8501	0	31900	
8502	0	31864	
8503	0	31740	
8504	0	31792	
8505	0	31896	
8506	0	31868	
8507	0	31736	
8508	0	31780	
8509	0	31896	
8510	0	31876	
8511	0	31728	
8512	0	31796	
8513	0	31880	
8514	0	31864	
8515	0	31716	
8516	0	31788	
8517	0	31881	
8518	0	31856	
8519	0	31724	
8520	0	31788	
8521	0	31884	
8522	0	31864	
8523	0	31724	
8524	0	31784	
8525	0	31892	
8526	0	31860	
8527	0	31712	
8528	0	31788	
8529	0	31884	
8530	0	31852	
8531	0	31708	
8532	0	31764	
8533	0	31856	
8534	0	31824	
8535	0	31672	
8536	0	31724	
8537	0	31824	
8538	0	31792	
8539	0	31652	
8540	0	31712	
8541	0	31808	
8542	0	31772	
8543	0	31640	
8544	0	31700	
8545	0	31784	
8546	0	31752	
8547	0	31620	
8548	0	31672	
8549	0	31768	
8550	0	31751	
8551	0	31608	
8552	0	31672	
8553	0	31760	
8554	0	31728	
8555	0	31596	
8556	0	31648	
8557	0	31744	
8558	0	31720	
8559	0	31576	
8560	0	31656	
8561	0	31752	
8562	0	31720	
8563	0	31576	
8564	0	31648	
8565	0	31748	
8566	0	31724	
8567	0	31580	
8568	0	31660	
8569	0	31756	
8570	0	31718	
8571	0	31588	
8572	0	31660	
8573	0	31768	
8574	0	31716	
8575	0	31580	
8576	0	31644	
8577	0	31740	
8578	0	31704	
8579	0	31576	
8580	0	31660	
8581	0	31772	
8582	0	31704	
8583	0	31580	
8584	0	31660	
8585	0	31760	
8586	0	31706	
8587	0	31588	
8588	0	31660	
8589	0	31768	
8590	0	31712	
8591	0	31580	
8592	0	31664	
8593	0	31772	
8594	0	31716	
8595	0	31584	
8596	0	31662	
8597	0	31760	
8598	0	31720	
8599	0	31585	
8600	0	31668	
8601	0	31780	
8602	0	31728	
8603	0	31588	
8604	0	31680	
8605	0	31776	
8606	0	31720	
8607	0	31600	
8608	0	31692	
8609	0	31786	
8610	0	31736	
8611	0	31606	
8612	0	31680	
8613	0	31784	
8614	0	31736	
