# OpenSignals Text File Format
# {"00:07:80:4D:2E:AD": {"sensor": ["ECG"], "device name": "00:07:80:4D:2E:AD", "column": ["nSeq", "DI", "CH1"], "sync interval": 2, "time": "15:11:20.455", "comments": "", "device connection": "BTH00:07:80:4D:2E:AD", "channels": [1], "keywords": "", "convertedValues": 0, "mode": 0, "digital IO": [0, 1], "firmware version": 773, "device": "biosignalsplux", "position": 0, "sampling rate": 1000, "label": ["CH1"], "resolution": [16], "date": "2019-2-7", "special": [{}]}}
# EndOfHeader
30000	0	27764
30001	0	27844
30002	0	27968
30003	0	28024
30004	0	28044
30005	0	28096
30006	0	28184
30007	0	28278
30008	0	28370
30009	0	28436
30010	0	28496
30011	0	28544
30012	0	28568
30013	0	28514
30014	0	28452
30015	0	28352
30016	0	28292
30017	0	28260
30018	0	28228
30019	0	28228
30020	0	28232
30021	0	28290
30022	0	28381
30023	0	28520
30024	0	28624
30025	0	28716
30026	0	28792
30027	0	28828
30028	0	28868
30029	0	28912
30030	0	28936
30031	0	28932
30032	0	28920
30033	0	28992
30034	0	29076
30035	0	29116
30036	0	29140
30037	0	29112
30038	0	29088
30039	0	29092
30040	0	29100
30041	0	29136
30042	0	29176
30043	0	29184
30044	0	29194
30045	0	29254
30046	0	29362
30047	0	29512
30048	0	29616
30049	0	29644
30050	0	29636
30051	0	29656
30052	0	29696
30053	0	29672
30054	0	29616
30055	0	29572
30056	0	29548
30057	0	29552
30058	0	29572
30059	0	29600
30060	0	29636
30061	0	29676
30062	0	29740
30063	0	29806
30064	0	29888
30065	0	29952
30066	0	30056
30067	0	30176
30068	0	30288
30069	0	30384
30070	0	30428
30071	0	30428
30072	0	30444
30073	0	30452
30074	0	30432
30075	0	30404
30076	0	30372
30077	0	30348
30078	0	30341
30079	0	30308
30080	0	30272
30081	0	30248
30082	0	30248
30083	0	30280
30084	0	30352
30085	0	30456
30086	0	30600
30087	0	30720
30088	0	30804
30089	0	30868
30090	0	30924
30091	0	31000
30092	0	31048
30093	0	31104
30094	0	31124
30095	0	31120
30096	0	31112
30097	0	31088
30098	0	31032
30099	0	31000
30100	0	30972
30101	0	30960
30102	0	30964
30103	0	31044
30104	0	31128
30105	0	31232
30106	0	31332
30107	0	31396
30108	0	31432
30109	0	31428
30110	0	31468
30111	0	31472
30112	0	31428
30113	0	31372
30114	0	31304
30115	0	31208
30116	0	31132
30117	0	31084
30118	0	31028
30119	0	30960
30120	0	30928
30121	0	30908
30122	0	30924
30123	0	30946
30124	0	31024
30125	0	31172
30126	0	31380
30127	0	31556
30128	0	31692
30129	0	31762
30130	0	31788
30131	0	31808
30132	0	31752
30133	0	31604
30134	0	31432
30135	0	31332
30136	0	31268
30137	0	31252
30138	0	31268
30139	0	31316
30140	0	31328
30141	0	31368
30142	0	31404
30143	0	31369
30144	0	31312
30145	0	31308
30146	0	31352
30147	0	31440
30148	0	31552
30149	0	31640
30150	0	31660
30151	0	31592
30152	0	31560
30153	0	31548
30154	0	31553
30155	0	31474
30156	0	31400
30157	0	31404
30158	0	31452
30159	0	31440
30160	0	31424
30161	0	31380
30162	0	31356
30163	0	31404
30164	0	31484
30165	0	31580
30166	0	31672
30167	0	31760
30168	0	31828
30169	0	31904
30170	0	31948
30171	0	31940
30172	0	31880
30173	0	31716
30174	0	31588
30175	0	31544
30176	0	31548
30177	0	31584
30178	0	31600
30179	0	31552
30180	0	31448
30181	0	31400
30182	0	31412
30183	0	31440
30184	0	31460
30185	0	31460
30186	0	31516
30187	0	31636
30188	0	31784
30189	0	31904
30190	0	31968
30191	0	31944
30192	0	31880
30193	0	31792
30194	0	31720
30195	0	31628
30196	0	31532
30197	0	31530
30198	0	31520
30199	0	31516
30200	0	31520
30201	0	31488
30202	0	31468
30203	0	31532
30204	0	31624
30205	0	31728
30206	0	31840
30207	0	31972
30208	0	32084
30209	0	32164
30210	0	32212
30211	0	32216
30212	0	32132
30213	0	32032
30214	0	31948
30215	0	31876
30216	0	31796
30217	0	31700
30218	0	31598
30219	0	31552
30220	0	31572
30221	0	31636
30222	0	31660
30223	0	31644
30224	0	31700
30225	0	31781
30226	0	31812
30227	0	31848
30228	0	31892
30229	0	31910
30230	0	31976
30231	0	32024
30232	0	32000
30233	0	31956
30234	0	31904
30235	0	31840
30236	0	31816
30237	0	31808
30238	0	31792
30239	0	31708
30240	0	31640
30241	0	31600
30242	0	31640
30243	0	31720
30244	0	31860
30245	0	32056
30246	0	32228
30247	0	32304
30248	0	32386
30249	0	32480
30250	0	32544
30251	0	32536
30252	0	32476
30253	0	32418
30254	0	32357
30255	0	32252
30256	0	32077
30257	0	31968
30258	0	31880
30259	0	31808
30260	0	31780
30261	0	31844
30262	0	31956
30263	0	32100
30264	0	32232
30265	0	32372
30266	0	32484
30267	0	32532
30268	0	32556
30269	0	32528
30270	0	32484
30271	0	32456
30272	0	32412
30273	0	32364
30274	0	32264
30275	0	32112
30276	0	31956
30277	0	31888
30278	0	31900
30279	0	31968
30280	0	31964
30281	0	31936
30282	0	31984
30283	0	32136
30284	0	32292
30285	0	32392
30286	0	32468
30287	0	32520
30288	0	32552
30289	0	32576
30290	0	32640
30291	0	32668
30292	0	32584
30293	0	32484
30294	0	32472
30295	0	32468
30296	0	32500
30297	0	32480
30298	0	32500
30299	0	32640
30300	0	32672
30301	0	32596
30302	0	32456
30303	0	32388
30304	0	32412
30305	0	32448
30306	0	32472
30307	0	32532
30308	0	32558
30309	0	32660
30310	0	32760
30311	0	32844
30312	0	32861
30313	0	32912
30314	0	32924
30315	0	32844
30316	0	32656
30317	0	32417
30318	0	32264
30319	0	32208
30320	0	32216
30321	0	32216
30322	0	32224
30323	0	32320
30324	0	32456
30325	0	32585
30326	0	32704
30327	0	32796
30328	0	32852
30329	0	32908
30330	0	32896
30331	0	32852
30332	0	32808
30333	0	32768
30334	0	32724
30335	0	32664
30336	0	32628
30337	0	32616
30338	0	32562
30339	0	32488
30340	0	32380
30341	0	32290
30342	0	32300
30343	0	32372
30344	0	32608
30345	0	32872
30346	0	33064
30347	0	33192
30348	0	33312
30349	0	33408
30350	0	33408
30351	0	33320
30352	0	33228
30353	0	33128
30354	0	32960
30355	0	32812
30356	0	32796
30357	0	32808
30358	0	32778
30359	0	32704
30360	0	32684
30361	0	32676
30362	0	32676
30363	0	32708
30364	0	32732
30365	0	32712
30366	0	32764
30367	0	32804
30368	0	32892
30369	0	32969
30370	0	32964
30371	0	32932
30372	0	32936
30373	0	32960
30374	0	32956
30375	0	32868
30376	0	32780
30377	0	32724
30378	0	32680
30379	0	32640
30380	0	32624
30381	0	32764
30382	0	32984
30383	0	33176
30384	0	33188
30385	0	33153
30386	0	33080
30387	0	33056
30388	0	33136
30389	0	33288
30390	0	33340
30391	0	33328
30392	0	33380
30393	0	33440
30394	0	33448
30395	0	33396
30396	0	33356
30397	0	33276
30398	0	33128
30399	0	32964
30400	0	32852
30401	0	32778
30402	0	32764
30403	0	32752
30404	0	32784
30405	0	32924
30406	0	33028
30407	0	33012
30408	0	32996
30409	0	33020
30410	0	33018
30411	0	33004
30412	0	32972
30413	0	32932
30414	0	32920
30415	0	32912
30416	0	32936
30417	0	32972
30418	0	33072
30419	0	33208
30420	0	33248
30421	0	33172
30422	0	33112
30423	0	33156
30424	0	33232
30425	0	33220
30426	0	33276
30427	0	33308
30428	0	33256
30429	0	33216
30430	0	33152
30431	0	33048
30432	0	32928
30433	0	32836
30434	0	32900
30435	0	33044
30436	0	33232
30437	0	33364
30438	0	33420
30439	0	33432
30440	0	33401
30441	0	33380
30442	0	33424
30443	0	33520
30444	0	33704
30445	0	33914
30446	0	34112
30447	0	34316
30448	0	34524
30449	0	34804
30450	0	35116
30451	0	35372
30452	0	35468
30453	0	35408
30454	0	35352
30455	0	35420
30456	0	35508
30457	0	35460
30458	0	35280
30459	0	35072
30460	0	34928
30461	0	34856
30462	0	34824
30463	0	34794
30464	0	34808
30465	0	34900
30466	0	35040
30467	0	35148
30468	0	35240
30469	0	35372
30470	0	35520
30471	0	35668
30472	0	35824
30473	0	35920
30474	0	35960
30475	0	35992
30476	0	36005
30477	0	35972
30478	0	35984
30479	0	36028
30480	0	36048
30481	0	36080
30482	0	36164
30483	0	36248
30484	0	36304
30485	0	36352
30486	0	36448
30487	0	36552
30488	0	36524
30489	0	36440
30490	0	36372
30491	0	36304
30492	0	36176
30493	0	36020
30494	0	35888
30495	0	35716
30496	0	35488
30497	0	35260
30498	0	35104
30499	0	35004
30500	0	34880
30501	0	34792
30502	0	34756
30503	0	34848
30504	0	34944
30505	0	34988
30506	0	34968
30507	0	34888
30508	0	34792
30509	0	34660
30510	0	34484
30511	0	34324
30512	0	34160
30513	0	33904
30514	0	33646
30515	0	33380
30516	0	33124
30517	0	32968
30518	0	32861
30519	0	32816
30520	0	32764
30521	0	32660
30522	0	32576
30523	0	32508
30524	0	32472
30525	0	32492
30526	0	32524
30527	0	32536
30528	0	32514
30529	0	32532
30530	0	32564
30531	0	32588
30532	0	32612
30533	0	32592
30534	0	32472
30535	0	32334
30536	0	32192
30537	0	32117
30538	0	32000
30539	0	31904
30540	0	31840
30541	0	31838
30542	0	31864
30543	0	31940
30544	0	32072
30545	0	32184
30546	0	32220
30547	0	32208
30548	0	32180
30549	0	32152
30550	0	32104
30551	0	32016
30552	0	31930
30553	0	31864
30554	0	31840
30555	0	31832
30556	0	31880
30557	0	31928
30558	0	31924
30559	0	31908
30560	0	31900
30561	0	31866
30562	0	31816
30563	0	31844
30564	0	31936
30565	0	32004
30566	0	32072
30567	0	32148
30568	0	32224
30569	0	32228
30570	0	32184
30571	0	32192
30572	0	32220
30573	0	32220
30574	0	32158
30575	0	32076
30576	0	32080
30577	0	32048
30578	0	32033
30579	0	32104
30580	0	32208
30581	0	32268
30582	0	32308
30583	0	32320
30584	0	32288
30585	0	32232
30586	0	32196
30587	0	32284
30588	0	32316
30589	0	32241
30590	0	32120
30591	0	32016
30592	0	31940
30593	0	31844
30594	0	31736
30595	0	31620
30596	0	31476
30597	0	31312
30598	0	31188
30599	0	31088
30600	0	31008
30601	0	31024
30602	0	31222
30603	0	31657
30604	0	32204
30605	0	32740
30606	0	33272
30607	0	33824
30608	0	34369
30609	0	34976
30610	0	35788
30611	0	36756
30612	0	37744
30613	0	38896
30614	0	40429
30615	0	42368
30616	0	44544
30617	0	46692
30618	0	48688
30619	0	50632
30620	0	52596
30621	0	54768
30622	0	57304
30623	0	60196
30624	0	62292
30625	0	63404
30626	0	63960
30627	0	64232
30628	0	64324
30629	0	64332
30630	0	64288
30631	0	64208
30632	0	64124
30633	0	64028
30634	0	62420
30635	0	59884
30636	0	57328
30637	0	54576
30638	0	51712
30639	0	48840
30640	0	45960
30641	0	43128
30642	0	40172
30643	0	37220
30644	0	34504
30645	0	32248
30646	0	30596
30647	0	29460
30648	0	28660
30649	0	28022
30650	0	27492
30651	0	27000
30652	0	26580
30653	0	26224
30654	0	25976
30655	0	25740
30656	0	25428
30657	0	25108
30658	0	24876
30659	0	24728
30660	0	24677
30661	0	24788
30662	0	25048
30663	0	25404
30664	0	25876
30665	0	26392
30666	0	26864
30667	0	27400
30668	0	27956
30669	0	28356
30670	0	28648
30671	0	28924
30672	0	29201
30673	0	29484
30674	0	29736
30675	0	29904
30676	0	29968
30677	0	29924
30678	0	29852
30679	0	29832
30680	0	29892
30681	0	29956
30682	0	29964
30683	0	29952
30684	0	29872
30685	0	29800
30686	0	29840
30687	0	29920
30688	0	29976
30689	0	30024
30690	0	30192
30691	0	30368
30692	0	30464
30693	0	30436
30694	0	30432
30695	0	30444
30696	0	30448
30697	0	30508
30698	0	30600
30699	0	30660
30700	0	30632
30701	0	30572
30702	0	30572
30703	0	30574
30704	0	30564
30705	0	30600
30706	0	30660
30707	0	30757
30708	0	30800
30709	0	30786
30710	0	30812
30711	0	30836
30712	0	30868
30713	0	30840
30714	0	30804
30715	0	30800
30716	0	30840
30717	0	30852
30718	0	30828
30719	0	30768
30720	0	30726
30721	0	30756
30722	0	30828
30723	0	30932
30724	0	31062
30725	0	31164
30726	0	31239
30727	0	31304
30728	0	31416
30729	0	31486
30730	0	31440
30731	0	31396
30732	0	31388
30733	0	31400
30734	0	31424
30735	0	31400
30736	0	31308
30737	0	31268
30738	0	31262
30739	0	31208
30740	0	31144
30741	0	31044
30742	0	30920
30743	0	30900
30744	0	31024
30745	0	31284
30746	0	31524
30747	0	31716
30748	0	31908
30749	0	32048
30750	0	32100
30751	0	32076
30752	0	31984
30753	0	31917
30754	0	31956
30755	0	31960
30756	0	31888
30757	0	31844
30758	0	31850
30759	0	31892
30760	0	31944
30761	0	32004
30762	0	32012
30763	0	32013
30764	0	32028
30765	0	32084
30766	0	32128
30767	0	32180
30768	0	32244
30769	0	32324
30770	0	32412
30771	0	32500
30772	0	32528
30773	0	32468
30774	0	32328
30775	0	32276
30776	0	32237
30777	0	32208
30778	0	32164
30779	0	32108
30780	0	32140
30781	0	32240
30782	0	32380
30783	0	32500
30784	0	32568
30785	0	32640
30786	0	32700
30787	0	32772
30788	0	32820
30789	0	32852
30790	0	32868
30791	0	32912
30792	0	32892
30793	0	32892
30794	0	32948
30795	0	33052
30796	0	33144
30797	0	33156
30798	0	33048
30799	0	32904
30800	0	32800
30801	0	32800
30802	0	32888
30803	0	33048
30804	0	33168
30805	0	33284
30806	0	33376
30807	0	33492
30808	0	33576
30809	0	33616
30810	0	33652
30811	0	33648
30812	0	33608
30813	0	33500
30814	0	33376
30815	0	33312
30816	0	33344
30817	0	33497
30818	0	33584
30819	0	33565
30820	0	33520
30821	0	33580
30822	0	33632
30823	0	33696
30824	0	33816
30825	0	33936
30826	0	33989
30827	0	33992
30828	0	34004
30829	0	34072
30830	0	34240
30831	0	34416
30832	0	34604
30833	0	34688
30834	0	34708
30835	0	34660
30836	0	34564
30837	0	34448
30838	0	34344
30839	0	34352
30840	0	34388
30841	0	34444
30842	0	34528
30843	0	34660
30844	0	34868
30845	0	35124
30846	0	35384
30847	0	35552
30848	0	35656
30849	0	35684
30850	0	35680
30851	0	35612
30852	0	35520
30853	0	35480
30854	0	35536
30855	0	35592
30856	0	35660
30857	0	35776
30858	0	35880
30859	0	35896
30860	0	35892
30861	0	35948
30862	0	36012
30863	0	36072
30864	0	36164
30865	0	36280
30866	0	36372
30867	0	36500
30868	0	36640
30869	0	36780
30870	0	36900
30871	0	36976
30872	0	37088
30873	0	37144
30874	0	37209
30875	0	37236
30876	0	37216
30877	0	37184
30878	0	37180
30879	0	37216
30880	0	37280
30881	0	37380
30882	0	37464
30883	0	37576
30884	0	37688
30885	0	37816
30886	0	37956
30887	0	38120
30888	0	38236
30889	0	38356
30890	0	38432
30891	0	38516
30892	0	38540
30893	0	38508
30894	0	38464
30895	0	38412
30896	0	38332
30897	0	38300
30898	0	38317
30899	0	38356
30900	0	38372
30901	0	38380
30902	0	38416
30903	0	38508
30904	0	38604
30905	0	38776
30906	0	38868
30907	0	38868
30908	0	38928
30909	0	38980
30910	0	38928
30911	0	38828
30912	0	38604
30913	0	38372
30914	0	38160
30915	0	37908
30916	0	37620
30917	0	37384
30918	0	37152
30919	0	36884
30920	0	36568
30921	0	36248
30922	0	36028
30923	0	35840
30924	0	35680
30925	0	35496
30926	0	35224
30927	0	34976
30928	0	34748
30929	0	34512
30930	0	34296
30931	0	34068
30932	0	33840
30933	0	33556
30934	0	33240
30935	0	32876
30936	0	32520
30937	0	32226
30938	0	32060
30939	0	31880
30940	0	31696
30941	0	31484
30942	0	31324
30943	0	31228
30944	0	31092
30945	0	30964
30946	0	30796
30947	0	30684
30948	0	30596
30949	0	30536
30950	0	30448
30951	0	30268
30952	0	30056
30953	0	29872
30954	0	29704
30955	0	29536
30956	0	29301
30957	0	28997
30958	0	28752
30959	0	28668
30960	0	28696
30961	0	28744
30962	0	28778
30963	0	28764
30964	0	28772
30965	0	28798
30966	0	28788
30967	0	28692
30968	0	28550
30969	0	28496
30970	0	28556
30971	0	28616
30972	0	28600
30973	0	28434
30974	0	28320
30975	0	28272
30976	0	28210
30977	0	28136
30978	0	28028
30979	0	27976
30980	0	28008
30981	0	28024
30982	0	28000
30983	0	28004
30984	0	28052
30985	0	28160
30986	0	28196
30987	0	28128
30988	0	28112
30989	0	28216
30990	0	28325
30991	0	28320
30992	0	28232
30993	0	28156
30994	0	28174
30995	0	28172
30996	0	28112
30997	0	28032
30998	0	27976
30999	0	27940
31000	0	27954
31001	0	28002
31002	0	28054
31003	0	28136
31004	0	28228
31005	0	28348
31006	0	28464
31007	0	28576
31008	0	28662
31009	0	28716
31010	0	28664
31011	0	28653
31012	0	28704
31013	0	28734
31014	0	28680
31015	0	28576
31016	0	28500
31017	0	28384
31018	0	28293
31019	0	28256
31020	0	28292
31021	0	28392
31022	0	28464
31023	0	28424
31024	0	28400
31025	0	28480
31026	0	28628
31027	0	28796
31028	0	28932
31029	0	29060
31030	0	29220
31031	0	29328
31032	0	29412
31033	0	29496
31034	0	29545
31035	0	29521
31036	0	29480
31037	0	29520
31038	0	29560
31039	0	29664
31040	0	29704
31041	0	29696
31042	0	29648
31043	0	29704
31044	0	29824
31045	0	29902
31046	0	29916
31047	0	29996
31048	0	30064
31049	0	30136
31050	0	30188
31051	0	30240
31052	0	30244
31053	0	30177
31054	0	30104
31055	0	30056
31056	0	30048
31057	0	30004
31058	0	29994
31059	0	30048
31060	0	30144
31061	0	30220
31062	0	30296
31063	0	30408
31064	0	30540
31065	0	30648
31066	0	30836
31067	0	30960
31068	0	30992
31069	0	31048
31070	0	31120
31071	0	31184
31072	0	31124
31073	0	30880
31074	0	30697
31075	0	30640
31076	0	30580
31077	0	30568
31078	0	30656
31079	0	30688
31080	0	30704
31081	0	30766
31082	0	30928
31083	0	31144
31084	0	31324
31085	0	31396
31086	0	31428
31087	0	31408
31088	0	31384
31089	0	31296
31090	0	31296
31091	0	31396
31092	0	31476
31093	0	31516
31094	0	31564
31095	0	31620
31096	0	31600
31097	0	31520
31098	0	31432
31099	0	31340
31100	0	31288
31101	0	31232
31102	0	31184
31103	0	31208
31104	0	31372
31105	0	31548
31106	0	31604
31107	0	31580
31108	0	31590
31109	0	31590
31110	0	31548
31111	0	31504
31112	0	31440
31113	0	31412
31114	0	31340
31115	0	31296
31116	0	31326
31117	0	31344
31118	0	31340
31119	0	31365
31120	0	31366
31121	0	31428
31122	0	31508
31123	0	31536
31124	0	31517
31125	0	31528
31126	0	31580
31127	0	31596
31128	0	31552
31129	0	31522
31130	0	31492
31131	0	31500
31132	0	31596
31133	0	31788
31134	0	31856
31135	0	31748
31136	0	31484
31137	0	31277
31138	0	31184
31139	0	31120
31140	0	31020
31141	0	31056
31142	0	31128
31143	0	31152
31144	0	31248
31145	0	31352
31146	0	31392
31147	0	31392
31148	0	31384
31149	0	31384
31150	0	31404
31151	0	31344
31152	0	31312
31153	0	31356
31154	0	31364
31155	0	31360
31156	0	31352
31157	0	31300
31158	0	31172
31159	0	31144
31160	0	31208
31161	0	31300
31162	0	31412
31163	0	31516
31164	0	31620
31165	0	31708
31166	0	31728
31167	0	31668
31168	0	31640
31169	0	31680
31170	0	31708
31171	0	31740
31172	0	31756
31173	0	31776
31174	0	31824
31175	0	31824
31176	0	31796
31177	0	31640
31178	0	31460
31179	0	31312
31180	0	31194
31181	0	31164
31182	0	31229
31183	0	31280
31184	0	31316
31185	0	31408
31186	0	31556
31187	0	31736
31188	0	31900
31189	0	32016
31190	0	32036
31191	0	31980
31192	0	31932
31193	0	31860
31194	0	31740
31195	0	31652
31196	0	31636
31197	0	31616
31198	0	31508
31199	0	31440
31200	0	31440
31201	0	31576
31202	0	31724
31203	0	31792
31204	0	31784
31205	0	31736
31206	0	31760
31207	0	31797
31208	0	31820
31209	0	31772
31210	0	31756
31211	0	31708
31212	0	31644
31213	0	31556
31214	0	31464
31215	0	31416
31216	0	31380
31217	0	31424
31218	0	31452
31219	0	31468
31220	0	31480
31221	0	31488
31222	0	31516
31223	0	31508
31224	0	31558
31225	0	31680
31226	0	31792
31227	0	31824
31228	0	31856
31229	0	31884
31230	0	31884
31231	0	31872
31232	0	31836
31233	0	31752
31234	0	31660
31235	0	31596
31236	0	31504
31237	0	31433
31238	0	31368
31239	0	31298
31240	0	31324
31241	0	31476
31242	0	31756
31243	0	31960
31244	0	32096
31245	0	32168
31246	0	32200
31247	0	32236
31248	0	32244
31249	0	32220
31250	0	32164
31251	0	32081
31252	0	32028
31253	0	31944
31254	0	31872
31255	0	31840
31256	0	31858
31257	0	31820
31258	0	31776
31259	0	31688
31260	0	31588
31261	0	31520
31262	0	31498
31263	0	31564
31264	0	31660
31265	0	31720
31266	0	31800
31267	0	31924
31268	0	32048
31269	0	32132
31270	0	32208
31271	0	32304
31272	0	32332
31273	0	32240
31274	0	32116
31275	0	31988
31276	0	31852
31277	0	31728
31278	0	31668
31279	0	31624
31280	0	31620
31281	0	31672
31282	0	31808
31283	0	31940
31284	0	32021
31285	0	32124
31286	0	32174
31287	0	32180
31288	0	32168
31289	0	32204
31290	0	32236
31291	0	32196
31292	0	32144
31293	0	32104
31294	0	32038
31295	0	31960
31296	0	31948
31297	0	31916
31298	0	31856
31299	0	31784
31300	0	31761
31301	0	31740
31302	0	31748
31303	0	31864
31304	0	32060
31305	0	32212
31306	0	32340
31307	0	32364
31308	0	32356
31309	0	32380
31310	0	32418
31311	0	32408
31312	0	32296
31313	0	32172
31314	0	32104
31315	0	32068
31316	0	31972
31317	0	31800
31318	0	31780
31319	0	31904
31320	0	32040
31321	0	32092
31322	0	32110
31323	0	32184
31324	0	32256
31325	0	32340
31326	0	32392
31327	0	32408
31328	0	32440
31329	0	32492
31330	0	32516
31331	0	32548
31332	0	32596
31333	0	32636
31334	0	32568
31335	0	32456
31336	0	32404
31337	0	32380
31338	0	32328
31339	0	32268
31340	0	32200
31341	0	32172
31342	0	32156
31343	0	32192
31344	0	32256
31345	0	32316
31346	0	32448
31347	0	32600
31348	0	32756
31349	0	32832
31350	0	32768
31351	0	32612
31352	0	32516
31353	0	32416
31354	0	32288
31355	0	32160
31356	0	32060
31357	0	32028
31358	0	32056
31359	0	32128
31360	0	32156
31361	0	32180
31362	0	32212
31363	0	32284
31364	0	32388
31365	0	32480
31366	0	32513
31367	0	32528
31368	0	32524
31369	0	32508
31370	0	32460
31371	0	32332
31372	0	32188
31373	0	32128
31374	0	32136
31375	0	32140
31376	0	32132
31377	0	32136
31378	0	32152
31379	0	32212
31380	0	32404
31381	0	32560
31382	0	32612
31383	0	32630
31384	0	32680
31385	0	32776
31386	0	32826
31387	0	32852
31388	0	32920
31389	0	33048
31390	0	33140
31391	0	33170
31392	0	33176
31393	0	33132
31394	0	33145
31395	0	33188
31396	0	33192
31397	0	33224
31398	0	33300
31399	0	33416
31400	0	33532
31401	0	33656
31402	0	33788
31403	0	33940
31404	0	34092
31405	0	34244
31406	0	34480
31407	0	34704
31408	0	34880
31409	0	35020
31410	0	35184
31411	0	35284
31412	0	35384
31413	0	35460
31414	0	35524
31415	0	35636
31416	0	35828
31417	0	36012
31418	0	36084
31419	0	36032
31420	0	35940
31421	0	35940
31422	0	35896
31423	0	35852
31424	0	35744
31425	0	35624
31426	0	35468
31427	0	35340
31428	0	35228
31429	0	35156
31430	0	35040
31431	0	34872
31432	0	34716
31433	0	34488
31434	0	34240
31435	0	34090
31436	0	34036
31437	0	33964
31438	0	33856
31439	0	33732
31440	0	33600
31441	0	33484
31442	0	33396
31443	0	33324
31444	0	33308
31445	0	33372
31446	0	33464
31447	0	33580
31448	0	33588
31449	0	33472
31450	0	33240
31451	0	32992
31452	0	32752
31453	0	32496
31454	0	32256
31455	0	32072
31456	0	31936
31457	0	31852
31458	0	31720
31459	0	31596
31460	0	31488
31461	0	31432
31462	0	31460
31463	0	31492
31464	0	31508
31465	0	31548
31466	0	31620
31467	0	31660
31468	0	31716
31469	0	31728
31470	0	31684
31471	0	31680
31472	0	31716
31473	0	31716
31474	0	31632
31475	0	31524
31476	0	31428
31477	0	31320
31478	0	31236
31479	0	31220
31480	0	31228
31481	0	31212
31482	0	31260
31483	0	31368
31484	0	31500
31485	0	31636
31486	0	31708
31487	0	31720
31488	0	31676
31489	0	31624
31490	0	31568
31491	0	31500
31492	0	31416
31493	0	31324
31494	0	31224
31495	0	31196
31496	0	31216
31497	0	31160
31498	0	31140
31499	0	31148
31500	0	31124
31501	0	31188
31502	0	31304
31503	0	31432
31504	0	31588
31505	0	31690
31506	0	31730
31507	0	31736
31508	0	31716
31509	0	31664
31510	0	31652
31511	0	31620
31512	0	31622
31513	0	31584
31514	0	31508
31515	0	31448
31516	0	31420
31517	0	31404
31518	0	31420
31519	0	31424
31520	0	31416
31521	0	31428
31522	0	31428
31523	0	31460
31524	0	31528
31525	0	31608
31526	0	31640
31527	0	31632
31528	0	31568
31529	0	31444
31530	0	31328
31531	0	31205
31532	0	31080
31533	0	30978
31534	0	30756
31535	0	30556
31536	0	30524
31537	0	30648
31538	0	30896
31539	0	31276
31540	0	31700
31541	0	32188
31542	0	32724
31543	0	33332
31544	0	34044
31545	0	34892
31546	0	35888
31547	0	36888
31548	0	37996
31549	0	39464
31550	0	41340
31551	0	43512
31552	0	45684
31553	0	47692
31554	0	49636
31555	0	51568
31556	0	53580
31557	0	55756
31558	0	58360
31559	0	61088
31560	0	62876
31561	0	63824
31562	0	64288
31563	0	64524
31564	0	64564
31565	0	64568
31566	0	64500
31567	0	64440
31568	0	64320
31569	0	63576
31570	0	60948
31571	0	58396
31572	0	55668
31573	0	52768
31574	0	49868
31575	0	46928
31576	0	44112
31577	0	41248
31578	0	38184
31579	0	35148
31580	0	32492
31581	0	30420
31582	0	28992
31583	0	28000
31584	0	27308
31585	0	26800
31586	0	26316
31587	0	25916
31588	0	25564
31589	0	25344
31590	0	25209
31591	0	25024
31592	0	24781
31593	0	24532
31594	0	24298
31595	0	24152
31596	0	24209
31597	0	24400
31598	0	24632
31599	0	25022
31600	0	25536
31601	0	26080
31602	0	26573
31603	0	27052
31604	0	27532
31605	0	27980
31606	0	28436
31607	0	28852
31608	0	29240
31609	0	29592
31610	0	29820
31611	0	29924
31612	0	29932
31613	0	29852
31614	0	29712
31615	0	29570
31616	0	29492
31617	0	29424
31618	0	29412
31619	0	29397
31620	0	29372
31621	0	29408
31622	0	29440
31623	0	29452
31624	0	29496
31625	0	29648
31626	0	29900
31627	0	30100
31628	0	30180
31629	0	30148
31630	0	30084
31631	0	30012
31632	0	29922
31633	0	29884
31634	0	29888
31635	0	29916
31636	0	29920
31637	0	29958
31638	0	29976
31639	0	30016
31640	0	30084
31641	0	30176
31642	0	30244
31643	0	30256
31644	0	30277
31645	0	30337
31646	0	30456
31647	0	30564
31648	0	30596
31649	0	30628
31650	0	30672
31651	0	30688
31652	0	30656
31653	0	30604
31654	0	30530
31655	0	30428
31656	0	30360
31657	0	30304
31658	0	30284
31659	0	30282
31660	0	30308
31661	0	30320
31662	0	30352
31663	0	30412
31664	0	30485
31665	0	30572
31666	0	30656
31667	0	30784
31668	0	30900
31669	0	30956
31670	0	30956
31671	0	30956
31672	0	30932
31673	0	30920
31674	0	30956
31675	0	31012
31676	0	31044
31677	0	31044
31678	0	31028
31679	0	31006
31680	0	31000
31681	0	31040
31682	0	31132
31683	0	31228
31684	0	31306
31685	0	31364
31686	0	31444
31687	0	31552
31688	0	31636
31689	0	31679
31690	0	31704
31691	0	31712
31692	0	31664
31693	0	31588
31694	0	31536
31695	0	31472
31696	0	31484
31697	0	31496
31698	0	31484
31699	0	31456
31700	0	31464
31701	0	31520
31702	0	31624
31703	0	31676
31704	0	31736
31705	0	31840
31706	0	31992
31707	0	32192
31708	0	32340
31709	0	32396
31710	0	32384
31711	0	32288
31712	0	32100
31713	0	31968
31714	0	31900
31715	0	31836
31716	0	31848
31717	0	31896
31718	0	31912
31719	0	31884
31720	0	31880
31721	0	31968
31722	0	32120
31723	0	32320
31724	0	32440
31725	0	32500
31726	0	32476
31727	0	32408
31728	0	32412
31729	0	32476
31730	0	32580
31731	0	32684
31732	0	32768
31733	0	32808
31734	0	32776
31735	0	32738
31736	0	32696
31737	0	32644
31738	0	32584
31739	0	32620
31740	0	32728
31741	0	32840
31742	0	32886
31743	0	32920
31744	0	33000
31745	0	33136
31746	0	33268
31747	0	33408
31748	0	33498
31749	0	33524
31750	0	33508
31751	0	33500
31752	0	33464
31753	0	33420
31754	0	33364
31755	0	33284
31756	0	33244
31757	0	33220
31758	0	33244
31759	0	33337
31760	0	33485
31761	0	33636
31762	0	33740
31763	0	33808
31764	0	33904
31765	0	34016
31766	0	34108
31767	0	34224
31768	0	34272
31769	0	34300
31770	0	34344
31771	0	34400
31772	0	34432
31773	0	34412
31774	0	34368
31775	0	34352
31776	0	34384
31777	0	34452
31778	0	34528
31779	0	34584
31780	0	34616
31781	0	34680
31782	0	34832
31783	0	35024
31784	0	35168
31785	0	35316
31786	0	35452
31787	0	35556
31788	0	35680
31789	0	35748
31790	0	35768
31791	0	35756
31792	0	35752
31793	0	35784
31794	0	35852
31795	0	35936
31796	0	36000
31797	0	36000
31798	0	36028
31799	0	36104
31800	0	36216
31801	0	36332
31802	0	36432
31803	0	36524
31804	0	36640
31805	0	36752
31806	0	36924
31807	0	37144
31808	0	37332
31809	0	37456
31810	0	37504
31811	0	37520
31812	0	37540
31813	0	37540
31814	0	37608
31815	0	37652
31816	0	37640
31817	0	37608
31818	0	37596
31819	0	37608
31820	0	37664
31821	0	37792
31822	0	37948
31823	0	38196
31824	0	38400
31825	0	38540
31826	0	38724
31827	0	38896
31828	0	39024
31829	0	39112
31830	0	39176
31831	0	39180
31832	0	39160
31833	0	39088
31834	0	39024
31835	0	38929
31836	0	38832
31837	0	38760
31838	0	38696
31839	0	38652
31840	0	38572
31841	0	38484
31842	0	38376
31843	0	38332
31844	0	38340
31845	0	38348
31846	0	38300
31847	0	38264
31848	0	38200
31849	0	38046
31850	0	37848
31851	0	37640
31852	0	37384
31853	0	37112
31854	0	36824
31855	0	36460
31856	0	36084
31857	0	35720
31858	0	35400
31859	0	35060
31860	0	34784
31861	0	34560
31862	0	34364
31863	0	34200
31864	0	34053
31865	0	33897
31866	0	33696
31867	0	33482
31868	0	33268
31869	0	33028
31870	0	32784
31871	0	32464
31872	0	32124
31873	0	31832
31874	0	31564
31875	0	31292
31876	0	31040
31877	0	30756
31878	0	30524
31879	0	30340
31880	0	30176
31881	0	30080
31882	0	30000
31883	0	29944
31884	0	29880
31885	0	29788
31886	0	29644
31887	0	29488
31888	0	29396
31889	0	29300
31890	0	29212
31891	0	29106
31892	0	29000
31893	0	28793
31894	0	28568
31895	0	28352
31896	0	28172
31897	0	28008
31898	0	27888
31899	0	27788
31900	0	27712
31901	0	27658
31902	0	27648
31903	0	27680
31904	0	27744
31905	0	27836
31906	0	27861
31907	0	27816
31908	0	27769
31909	0	27793
31910	0	27822
31911	0	27780
31912	0	27672
31913	0	27568
31914	0	27520
31915	0	27440
31916	0	27332
31917	0	27200
31918	0	27112
31919	0	27108
31920	0	27108
31921	0	27160
31922	0	27204
31923	0	27212
31924	0	27188
31925	0	27248
31926	0	27376
31927	0	27557
31928	0	27748
31929	0	27900
31930	0	28014
31931	0	28048
31932	0	27956
31933	0	27816
31934	0	27684
31935	0	27608
31936	0	27496
31937	0	27416
31938	0	27352
31939	0	27346
31940	0	27384
31941	0	27448
31942	0	27516
31943	0	27584
31944	0	27660
31945	0	27732
31946	0	27808
31947	0	27844
31948	0	27840
31949	0	27812
31950	0	27796
31951	0	27778
31952	0	27784
31953	0	27848
31954	0	27992
31955	0	28116
31956	0	28284
31957	0	28404
31958	0	28460
31959	0	28438
31960	0	28396
31961	0	28424
31962	0	28492
31963	0	28537
31964	0	28578
31965	0	28624
31966	0	28656
31967	0	28692
31968	0	28796
31969	0	28920
31970	0	29012
31971	0	29026
31972	0	29018
31973	0	28980
31974	0	28940
31975	0	28908
31976	0	28876
31977	0	28910
31978	0	28956
31979	0	28984
31980	0	29076
31981	0	29168
31982	0	29226
31983	0	29313
31984	0	29408
31985	0	29500
31986	0	29564
31987	0	29644
31988	0	29716
31989	0	29800
31990	0	29896
31991	0	29924
31992	0	29892
31993	0	29828
31994	0	29864
31995	0	29864
31996	0	29824
31997	0	29744
31998	0	29660
31999	0	29648
32000	0	29736
32001	0	29840
32002	0	29932
32003	0	30032
32004	0	30102
32005	0	30208
32006	0	30308
32007	0	30396
32008	0	30456
32009	0	30472
32010	0	30508
32011	0	30520
32012	0	30516
32013	0	30524
32014	0	30544
32015	0	30520
32016	0	30484
32017	0	30468
32018	0	30480
32019	0	30504
32020	0	30520
32021	0	30608
32022	0	30704
32023	0	30736
32024	0	30776
32025	0	30884
32026	0	31020
32027	0	31132
32028	0	31164
32029	0	31144
32030	0	31136
32031	0	31116
32032	0	31104
32033	0	31060
32034	0	30948
32035	0	30860
32036	0	30800
32037	0	30800
32038	0	30840
32039	0	30836
32040	0	30817
32041	0	30880
32042	0	30976
32043	0	31080
32044	0	31160
32045	0	31280
32046	0	31392
32047	0	31432
32048	0	31420
32049	0	31432
32050	0	31416
32051	0	31392
32052	0	31328
32053	0	31232
32054	0	31192
32055	0	31136
32056	0	31052
32057	0	30972
32058	0	30976
32059	0	30993
32060	0	31008
32061	0	31000
32062	0	31012
32063	0	31104
32064	0	31208
32065	0	31304
32066	0	31328
32067	0	31356
32068	0	31448
32069	0	31492
32070	0	31484
32071	0	31452
32072	0	31388
32073	0	31312
32074	0	31216
32075	0	31116
32076	0	31012
32077	0	30936
32078	0	30904
32079	0	30860
32080	0	30856
32081	0	30892
32082	0	30988
32083	0	31036
32084	0	31080
32085	0	31148
32086	0	31205
32087	0	31268
32088	0	31324
32089	0	31352
32090	0	31352
32091	0	31352
32092	0	31434
32093	0	31481
32094	0	31448
32095	0	31332
32096	0	31192
32097	0	31136
32098	0	31152
32099	0	31160
32100	0	31128
32101	0	31096
32102	0	31136
32103	0	31204
32104	0	31328
32105	0	31428
32106	0	31520
32107	0	31576
32108	0	31548
32109	0	31528
32110	0	31548
32111	0	31564
32112	0	31544
32113	0	31508
32114	0	31449
32115	0	31364
32116	0	31248
32117	0	31156
32118	0	31112
32119	0	31150
32120	0	31196
32121	0	31220
32122	0	31204
32123	0	31188
32124	0	31188
32125	0	31216
32126	0	31236
32127	0	31332
32128	0	31476
32129	0	31588
32130	0	31608
32131	0	31548
32132	0	31540
32133	0	31516
32134	0	31476
32135	0	31380
32136	0	31292
32137	0	31224
32138	0	31168
32139	0	31112
32140	0	31144
32141	0	31232
32142	0	31348
32143	0	31492
32144	0	31656
32145	0	31792
32146	0	31868
32147	0	31888
32148	0	31878
32149	0	31872
32150	0	31884
32151	0	31856
32152	0	31796
32153	0	31712
32154	0	31596
32155	0	31500
32156	0	31420
32157	0	31341
32158	0	31370
32159	0	31365
32160	0	31308
32161	0	31308
32162	0	31376
32163	0	31450
32164	0	31504
32165	0	31572
32166	0	31680
32167	0	31844
32168	0	32016
32169	0	32068
32170	0	32048
32171	0	31956
32172	0	31884
32173	0	31784
32174	0	31676
32175	0	31608
32176	0	31564
32177	0	31500
32178	0	31460
32179	0	31452
32180	0	31464
32181	0	31488
32182	0	31492
32183	0	31496
32184	0	31528
32185	0	31612
32186	0	31684
32187	0	31740
32188	0	31808
32189	0	31880
32190	0	31964
32191	0	32012
32192	0	32000
32193	0	31952
32194	0	31856
32195	0	31724
32196	0	31636
32197	0	31585
32198	0	31584
32199	0	31544
32200	0	31496
32201	0	31516
32202	0	31616
32203	0	31752
32204	0	31856
32205	0	31896
32206	0	31928
32207	0	31929
32208	0	31952
32209	0	32016
32210	0	32024
32211	0	31968
32212	0	31914
32213	0	31872
32214	0	31896
32215	0	31912
32216	0	31896
32217	0	31876
32218	0	31904
32219	0	31968
32220	0	32012
32221	0	32072
32222	0	32088
32223	0	32084
32224	0	32096
32225	0	32105
32226	0	32112
32227	0	32100
32228	0	32120
32229	0	32156
32230	0	32216
32231	0	32247
32232	0	32228
32233	0	32204
32234	0	32148
32235	0	32030
32236	0	31924
32237	0	31916
32238	0	31980
32239	0	32048
32240	0	32104
32241	0	32104
32242	0	32108
32243	0	32128
32244	0	32144
32245	0	32196
32246	0	32248
32247	0	32260
32248	0	32244
32249	0	32244
32250	0	32292
32251	0	32348
32252	0	32336
32253	0	32284
32254	0	32200
32255	0	32084
32256	0	32004
32257	0	31976
32258	0	32044
32259	0	32140
32260	0	32228
32261	0	32341
32262	0	32392
32263	0	32448
32264	0	32488
32265	0	32528
32266	0	32536
32267	0	32528
32268	0	32528
32269	0	32556
32270	0	32600
32271	0	32640
32272	0	32645
32273	0	32592
32274	0	32508
32275	0	32456
32276	0	32412
32277	0	32360
32278	0	32328
32279	0	32308
32280	0	32336
32281	0	32384
32282	0	32444
32283	0	32464
32284	0	32469
32285	0	32484
32286	0	32492
32287	0	32524
32288	0	32508
32289	0	32493
32290	0	32476
32291	0	32462
32292	0	32480
32293	0	32528
32294	0	32548
32295	0	32532
32296	0	32524
32297	0	32480
32298	0	32404
32299	0	32320
32300	0	32304
32301	0	32336
32302	0	32408
32303	0	32588
32304	0	32696
32305	0	32728
32306	0	32732
32307	0	32736
32308	0	32712
32309	0	32704
32310	0	32672
32311	0	32672
32312	0	32704
32313	0	32704
32314	0	32633
32315	0	32513
32316	0	32436
32317	0	32388
32318	0	32428
32319	0	32456
32320	0	32516
32321	0	32553
32322	0	32612
32323	0	32668
32324	0	32724
32325	0	32832
32326	0	32892
32327	0	32920
32328	0	32948
32329	0	32988
32330	0	33044
32331	0	33056
32332	0	33032
32333	0	33016
32334	0	32976
32335	0	32884
32336	0	32749
32337	0	32656
32338	0	32588
32339	0	32524
32340	0	32488
32341	0	32444
32342	0	32448
32343	0	32488
32344	0	32560
32345	0	32688
32346	0	32825
32347	0	32896
32348	0	32908
32349	0	32860
32350	0	32860
32351	0	32868
32352	0	32896
32353	0	32916
32354	0	32889
32355	0	32865
32356	0	32832
32357	0	32793
32358	0	32776
32359	0	32796
32360	0	32800
32361	0	32824
32362	0	32868
32363	0	32932
32364	0	33056
32365	0	33268
32366	0	33476
32367	0	33680
32368	0	33776
32369	0	33868
32370	0	33968
32371	0	34052
32372	0	34048
32373	0	34044
32374	0	34036
32375	0	34048
32376	0	34084
32377	0	34188
32378	0	34360
32379	0	34512
32380	0	34680
32381	0	34820
32382	0	34976
32383	0	35112
32384	0	35228
32385	0	35368
32386	0	35512
32387	0	35728
32388	0	35916
32389	0	36076
32390	0	36204
32391	0	36316
32392	0	36480
32393	0	36717
32394	0	36893
32395	0	36860
32396	0	36708
32397	0	36516
32398	0	36332
32399	0	36136
32400	0	35944
32401	0	35692
32402	0	35464
32403	0	35340
32404	0	35312
32405	0	35316
32406	0	35248
32407	0	35156
32408	0	35064
32409	0	34972
32410	0	34896
32411	0	34784
32412	0	34692
32413	0	34612
32414	0	34540
32415	0	34416
32416	0	34224
32417	0	34036
32418	0	33908
32419	0	33808
32420	0	33704
32421	0	33624
32422	0	33520
32423	0	33422
32424	0	33396
32425	0	33396
32426	0	33456
32427	0	33464
32428	0	33376
32429	0	33240
32430	0	33116
32431	0	33016
32432	0	32916
32433	0	32780
32434	0	32576
32435	0	32388
32436	0	32272
32437	0	32176
32438	0	32096
32439	0	32056
32440	0	32056
32441	0	32064
32442	0	32090
32443	0	32092
32444	0	32092
32445	0	32076
32446	0	32044
32447	0	32044
32448	0	32040
32449	0	32066
32450	0	32076
32451	0	32018
32452	0	31949
32453	0	31924
32454	0	31932
32455	0	31964
32456	0	31964
32457	0	31936
32458	0	31908
32459	0	31900
32460	0	31876
32461	0	31860
32462	0	31852
32463	0	31848
32464	0	31912
32465	0	32028
32466	0	32144
32467	0	32208
32468	0	32240
32469	0	32256
32470	0	32256
32471	0	32224
32472	0	32228
32473	0	32196
32474	0	32104
32475	0	31972
32476	0	31852
32477	0	31788
32478	0	31772
32479	0	31776
32480	0	31740
32481	0	31708
32482	0	31696
32483	0	31706
32484	0	31796
32485	0	31920
32486	0	32032
32487	0	32120
32488	0	32152
32489	0	32188
32490	0	32216
32491	0	32236
32492	0	32260
32493	0	32300
32494	0	32304
32495	0	32212
32496	0	32117
32497	0	32004
32498	0	31968
32499	0	31980
32500	0	31956
32501	0	31996
32502	0	32044
32503	0	32072
32504	0	32036
32505	0	32000
32506	0	31974
32507	0	32040
32508	0	32104
32509	0	32172
32510	0	32252
32511	0	32348
32512	0	32588
32513	0	32980
32514	0	33416
32515	0	33844
32516	0	34348
32517	0	34956
32518	0	35588
32519	0	36268
32520	0	37144
32521	0	38240
32522	0	39396
32523	0	40684
32524	0	42384
32525	0	44400
32526	0	46524
32527	0	48632
32528	0	50652
32529	0	52620
32530	0	54572
32531	0	56748
32532	0	59276
32533	0	61908
32534	0	63584
32535	0	64452
32536	0	64888
32537	0	65076
32538	0	65128
32539	0	65128
32540	0	65048
32541	0	64960
32542	0	64872
32543	0	64756
32544	0	64656
32545	0	63028
32546	0	59988
32547	0	57008
32548	0	53888
32549	0	50672
32550	0	47500
32551	0	44348
32552	0	41136
32553	0	37916
32554	0	34892
32555	0	32416
32556	0	30512
32557	0	29104
32558	0	28168
32559	0	27552
32560	0	27040
32561	0	26520
32562	0	26016
32563	0	25656
32564	0	25320
32565	0	25032
32566	0	24776
32567	0	24636
32568	0	24628
32569	0	24752
32570	0	25008
32571	0	25284
32572	0	25608
32573	0	26049
32574	0	26568
32575	0	27080
32576	0	27502
32577	0	27816
32578	0	28084
32579	0	28304
32580	0	28550
32581	0	28896
32582	0	29276
32583	0	29556
32584	0	29764
32585	0	29892
32586	0	30004
32587	0	30088
32588	0	30092
32589	0	30028
32590	0	29956
32591	0	29936
32592	0	29952
32593	0	29949
32594	0	29920
32595	0	29880
32596	0	29856
32597	0	29780
32598	0	29732
32599	0	29684
32600	0	29640
32601	0	29642
32602	0	29692
32603	0	29756
32604	0	29800
32605	0	29873
32606	0	30000
32607	0	30100
32608	0	30172
32609	0	30176
32610	0	30166
32611	0	30152
32612	0	30180
32613	0	30202
32614	0	30220
32615	0	30208
32616	0	30180
32617	0	30196
32618	0	30252
32619	0	30288
32620	0	30316
32621	0	30350
32622	0	30352
32623	0	30340
32624	0	30372
32625	0	30468
32626	0	30580
32627	0	30684
32628	0	30736
32629	0	30776
32630	0	30776
32631	0	30764
32632	0	30732
32633	0	30660
32634	0	30628
32635	0	30584
32636	0	30568
32637	0	30552
32638	0	30540
32639	0	30556
32640	0	30552
32641	0	30564
32642	0	30641
32643	0	30786
32644	0	30924
32645	0	31038
32646	0	31142
32647	0	31204
32648	0	31253
32649	0	31276
32650	0	31356
32651	0	31424
32652	0	31444
32653	0	31416
32654	0	31408
32655	0	31460
32656	0	31532
32657	0	31540
32658	0	31512
32659	0	31461
32660	0	31388
32661	0	31364
32662	0	31328
32663	0	31302
32664	0	31318
32665	0	31396
32666	0	31520
32667	0	31622
32668	0	31716
32669	0	31824
32670	0	31900
32671	0	31920
32672	0	31956
32673	0	31978
32674	0	32008
32675	0	32064
32676	0	32112
32677	0	32100
32678	0	32076
32679	0	32044
32680	0	32004
32681	0	31976
32682	0	31976
32683	0	31988
32684	0	31968
32685	0	32048
32686	0	32186
32687	0	32312
32688	0	32428
32689	0	32504
32690	0	32556
32691	0	32584
32692	0	32609
32693	0	32576
32694	0	32496
32695	0	32428
32696	0	32384
32697	0	32324
32698	0	32260
32699	0	32228
32700	0	32244
32701	0	32280
32702	0	32336
32703	0	32448
32704	0	32608
32705	0	32756
32706	0	32896
32707	0	32976
32708	0	33044
32709	0	33120
32710	0	33160
32711	0	33164
32712	0	33172
32713	0	33204
32714	0	33220
32715	0	33252
32716	0	33216
32717	0	33133
32718	0	33108
32719	0	33136
32720	0	33116
32721	0	33104
32722	0	33144
32723	0	33212
32724	0	33242
32725	0	33332
32726	0	33496
32727	0	33684
32728	0	33848
32729	0	33988
32730	0	34096
32731	0	34096
32732	0	34080
32733	0	34036
32734	0	33970
32735	0	33904
32736	0	33832
32737	0	33776
32738	0	33736
32739	0	33764
32740	0	33864
32741	0	34036
32742	0	34220
32743	0	34396
32744	0	34528
32745	0	34612
32746	0	34696
32747	0	34812
32748	0	34992
32749	0	35176
32750	0	35305
32751	0	35384
32752	0	35432
32753	0	35444
32754	0	35420
32755	0	35408
32756	0	35396
32757	0	35394
32758	0	35372
32759	0	35348
32760	0	35364
32761	0	35428
32762	0	35536
32763	0	35668
32764	0	35824
32765	0	36032
32766	0	36216
32767	0	36344
32768	0	36496
32769	0	36648
32770	0	36732
32771	0	36792
32772	0	36872
32773	0	36956
32774	0	37028
32775	0	37056
32776	0	37044
32777	0	37060
32778	0	37092
32779	0	37152
32780	0	37228
32781	0	37352
32782	0	37480
32783	0	37636
32784	0	37856
32785	0	38036
32786	0	38200
32787	0	38320
32788	0	38428
32789	0	38592
32790	0	38748
32791	0	38904
32792	0	38996
32793	0	38992
32794	0	38960
32795	0	38912
32796	0	38856
32797	0	38868
32798	0	38976
32799	0	39092
32800	0	39196
32801	0	39301
32802	0	39436
32803	0	39592
32804	0	39740
32805	0	39880
32806	0	40004
32807	0	40096
32808	0	40176
32809	0	40240
32810	0	40296
32811	0	40304
32812	0	40292
32813	0	40280
32814	0	40248
32815	0	40184
32816	0	40120
32817	0	40036
32818	0	39845
32819	0	39648
32820	0	39472
32821	0	39328
32822	0	39224
32823	0	39092
32824	0	38920
32825	0	38696
32826	0	38448
32827	0	38216
32828	0	37988
32829	0	37740
32830	0	37476
32831	0	37280
32832	0	37128
32833	0	36920
32834	0	36668
32835	0	36324
32836	0	35932
32837	0	35500
32838	0	35112
32839	0	34728
32840	0	34372
32841	0	34064
32842	0	33796
32843	0	33584
32844	0	33468
32845	0	33416
32846	0	33276
32847	0	33076
32848	0	32836
32849	0	32600
32850	0	32384
32851	0	32156
32852	0	31940
32853	0	31732
32854	0	31492
32855	0	31244
32856	0	30972
32857	0	30672
32858	0	30360
32859	0	30064
32860	0	29844
32861	0	29712
32862	0	29600
32863	0	29456
32864	0	29304
32865	0	29228
32866	0	29184
32867	0	29172
32868	0	29108
32869	0	29068
32870	0	29000
32871	0	28880
32872	0	28788
32873	0	28700
32874	0	28568
32875	0	28428
32876	0	28296
32877	0	28180
32878	0	28064
32879	0	27920
32880	0	27804
32881	0	27732
32882	0	27720
32883	0	27736
32884	0	27732
32885	0	27784
32886	0	27889
32887	0	27960
32888	0	27988
32889	0	28008
32890	0	28000
32891	0	28016
32892	0	28024
32893	0	27944
32894	0	27808
32895	0	27664
32896	0	27560
32897	0	27460
32898	0	27394
32899	0	27424
32900	0	27532
32901	0	27636
32902	0	27736
32903	0	27804
32904	0	27844
32905	0	27936
32906	0	28112
32907	0	28228
32908	0	28248
32909	0	28241
32910	0	28268
32911	0	28308
32912	0	28348
32913	0	28392
32914	0	28364
32915	0	28304
32916	0	28228
32917	0	28140
32918	0	28098
32919	0	28042
32920	0	28028
32921	0	28064
32922	0	28132
32923	0	28232
32924	0	28372
32925	0	28540
32926	0	28616
32927	0	28628
32928	0	28624
32929	0	28672
32930	0	28724
32931	0	28752
32932	0	28732
32933	0	28732
32934	0	28724
32935	0	28740
32936	0	28736
32937	0	28730
32938	0	28752
32939	0	28776
32940	0	28800
32941	0	28804
32942	0	28848
32943	0	28900
32944	0	28952
32945	0	29040
32946	0	29160
32947	0	29256
32948	0	29284
32949	0	29336
32950	0	29420
32951	0	29512
32952	0	29600
32953	0	29676
32954	0	29656
32955	0	29578
32956	0	29440
32957	0	29290
32958	0	29236
32959	0	29240
32960	0	29324
32961	0	29412
32962	0	29468
32963	0	29488
32964	0	29544
32965	0	29660
32966	0	29800
32967	0	29912
32968	0	29996
32969	0	30080
32970	0	30170
32971	0	30196
32972	0	30136
32973	0	30064
32974	0	30008
32975	0	29988
32976	0	30008
32977	0	30040
32978	0	30052
32979	0	30061
32980	0	30044
32981	0	30068
32982	0	30084
32983	0	30108
32984	0	30132
32985	0	30224
32986	0	30326
32987	0	30408
32988	0	30528
32989	0	30676
32990	0	30836
32991	0	30916
32992	0	30916
32993	0	30828
32994	0	30692
32995	0	30593
32996	0	30596
32997	0	30700
32998	0	30792
32999	0	30838
33000	0	30880
33001	0	30914
33002	0	30944
33003	0	30992
33004	0	31072
33005	0	31172
33006	0	31276
33007	0	31340
33008	0	31384
33009	0	31384
33010	0	31396
33011	0	31420
33012	0	31420
33013	0	31380
33014	0	31328
33015	0	31264
33016	0	31252
33017	0	31240
33018	0	31244
33019	0	31248
33020	0	31293
33021	0	31324
33022	0	31364
33023	0	31364
33024	0	31356
33025	0	31360
33026	0	31440
33027	0	31517
33028	0	31584
33029	0	31632
33030	0	31624
33031	0	31612
33032	0	31644
33033	0	31692
33034	0	31732
33035	0	31696
33036	0	31584
33037	0	31444
33038	0	31356
33039	0	31364
33040	0	31448
33041	0	31524
33042	0	31556
33043	0	31576
33044	0	31604
33045	0	31654
33046	0	31728
33047	0	31792
33048	0	31840
33049	0	31844
33050	0	31848
33051	0	31840
33052	0	31812
33053	0	31764
33054	0	31720
33055	0	31664
33056	0	31584
33057	0	31504
33058	0	31428
33059	0	31352
33060	0	31276
33061	0	31264
33062	0	31308
33063	0	31392
33064	0	31504
33065	0	31624
33066	0	31704
33067	0	31774
33068	0	31828
33069	0	31840
33070	0	31860
33071	0	31852
33072	0	31848
33073	0	31800
33074	0	31736
33075	0	31642
33076	0	31592
33077	0	31528
33078	0	31480
33079	0	31428
33080	0	31444
33081	0	31512
33082	0	31609
33083	0	31720
33084	0	31849
33085	0	31852
33086	0	31793
33087	0	31760
33088	0	31764
33089	0	31780
33090	0	31832
33091	0	31852
33092	0	31884
33093	0	31876
33094	0	31874
33095	0	31844
33096	0	31792
33097	0	31680
33098	0	31556
33099	0	31444
33100	0	31368
33101	0	31360
33102	0	31472
33103	0	31612
33104	0	31736
33105	0	31868
33106	0	32020
33107	0	32096
33108	0	32064
33109	0	31978
33110	0	31940
33111	0	31904
33112	0	31872
33113	0	31852
33114	0	31848
33115	0	31864
33116	0	31860
33117	0	31820
33118	0	31758
33119	0	31708
33120	0	31676
33121	0	31660
33122	0	31692
33123	0	31696
33124	0	31742
33125	0	31808
33126	0	31876
33127	0	31908
33128	0	31896
33129	0	31880
33130	0	31884
33131	0	31920
33132	0	31968
33133	0	31980
33134	0	31964
33135	0	31952
33136	0	31992
33137	0	31984
33138	0	31912
33139	0	31868
33140	0	31858
33141	0	31848
33142	0	31884
33143	0	31912
33144	0	31904
33145	0	31932
33146	0	31956
33147	0	31988
33148	0	32044
33149	0	32132
33150	0	32192
33151	0	32204
33152	0	32244
33153	0	32264
33154	0	32256
33155	0	32188
33156	0	32100
33157	0	32068
33158	0	32076
33159	0	32064
33160	0	32016
33161	0	31980
33162	0	31980
33163	0	31968
33164	0	31984
33165	0	32032
33166	0	32072
33167	0	32084
33168	0	32108
33169	0	32136
33170	0	32164
33171	0	32180
33172	0	32192
33173	0	32224
33174	0	32288
33175	0	32336
33176	0	32316
33177	0	32272
33178	0	32248
33179	0	32184
33180	0	32112
33181	0	32064
33182	0	32052
33183	0	32053
33184	0	32076
33185	0	32156
33186	0	32232
33187	0	32324
33188	0	32416
33189	0	32504
33190	0	32548
33191	0	32528
33192	0	32488
33193	0	32440
33194	0	32348
33195	0	32224
33196	0	32096
33197	0	32036
33198	0	32096
33199	0	32208
33200	0	32312
33201	0	32360
33202	0	32380
33203	0	32396
33204	0	32448
33205	0	32494
33206	0	32512
33207	0	32552
33208	0	32578
33209	0	32592
33210	0	32576
33211	0	32544
33212	0	32488
33213	0	32424
33214	0	32316
33215	0	32220
33216	0	32172
33217	0	32184
33218	0	32185
33219	0	32200
33220	0	32248
33221	0	32312
33222	0	32340
33223	0	32320
33224	0	32320
33225	0	32372
33226	0	32444
33227	0	32540
33228	0	32620
33229	0	32712
33230	0	32760
33231	0	32768
33232	0	32744
33233	0	32704
33234	0	32680
33235	0	32649
33236	0	32544
33237	0	32472
33238	0	32444
33239	0	32436
33240	0	32444
33241	0	32472
33242	0	32488
33243	0	32492
33244	0	32488
33245	0	32496
33246	0	32552
33247	0	32636
33248	0	32740
33249	0	32788
33250	0	32800
33251	0	32804
33252	0	32820
33253	0	32800
33254	0	32736
33255	0	32652
33256	0	32556
33257	0	32460
33258	0	32420
33259	0	32376
33260	0	32336
33261	0	32316
33262	0	32312
33263	0	32372
33264	0	32452
33265	0	32616
33266	0	32736
33267	0	32768
33268	0	32812
33269	0	32848
33270	0	32828
33271	0	32736
33272	0	32692
33273	0	32736
33274	0	32802
33275	0	32772
33276	0	32628
33277	0	32494
33278	0	32456
33279	0	32412
33280	0	32408
33281	0	32476
33282	0	32544
33283	0	32616
33284	0	32668
33285	0	32760
33286	0	32820
33287	0	32828
33288	0	32852
33289	0	32896
33290	0	32924
33291	0	32904
33292	0	32856
33293	0	32792
33294	0	32728
33295	0	32660
33296	0	32608
33297	0	32576
33298	0	32580
33299	0	32588
33300	0	32604
33301	0	32600
33302	0	32584
33303	0	32600
33304	0	32644
33305	0	32664
33306	0	32640
33307	0	32612
33308	0	32596
33309	0	32680
33310	0	32800
33311	0	32888
33312	0	32952
33313	0	33012
33314	0	32996
33315	0	32900
33316	0	32832
33317	0	32740
33318	0	32664
33319	0	32568
33320	0	32524
33321	0	32536
33322	0	32548
33323	0	32572
33324	0	32624
33325	0	32676
33326	0	32772
33327	0	32912
33328	0	32984
33329	0	32976
33330	0	32952
33331	0	32944
33332	0	32908
33333	0	32852
33334	0	32792
33335	0	32720
33336	0	32624
33337	0	32592
33338	0	32632
33339	0	32714
33340	0	32808
33341	0	32892
33342	0	32964
33343	0	33024
33344	0	33116
33345	0	33300
33346	0	33580
33347	0	33804
33348	0	33884
33349	0	33956
33350	0	34024
33351	0	34052
33352	0	34128
33353	0	34181
33354	0	34204
33355	0	34212
33356	0	34216
33357	0	34220
33358	0	34208
33359	0	34240
33360	0	34324
33361	0	34468
33362	0	34644
33363	0	34792
33364	0	34912
33365	0	35076
33366	0	35240
33367	0	35420
33368	0	35616
33369	0	35844
33370	0	36024
33371	0	36104
33372	0	36200
33373	0	36356
33374	0	36552
33375	0	36716
33376	0	36772
33377	0	36660
33378	0	36460
33379	0	36288
33380	0	36084
33381	0	35852
33382	0	35648
33383	0	35488
33384	0	35356
33385	0	35288
33386	0	35260
33387	0	35224
33388	0	35208
33389	0	35168
33390	0	35164
33391	0	35140
33392	0	35076
33393	0	34964
33394	0	34824
33395	0	34640
33396	0	34432
33397	0	34236
33398	0	34060
33399	0	33908
33400	0	33793
33401	0	33676
33402	0	33572
33403	0	33472
33404	0	33424
33405	0	33404
33406	0	33336
33407	0	33284
33408	0	33272
33409	0	33197
33410	0	33096
33411	0	32984
33412	0	32852
33413	0	32760
33414	0	32648
33415	0	32488
33416	0	32308
33417	0	32104
33418	0	31944
33419	0	31824
33420	0	31736
33421	0	31660
33422	0	31628
33423	0	31644
33424	0	31644
33425	0	31648
33426	0	31712
33427	0	31788
33428	0	31848
33429	0	31884
33430	0	31916
33431	0	32024
33432	0	32104
33433	0	32168
33434	0	32216
33435	0	32200
33436	0	32108
33437	0	32040
33438	0	31996
33439	0	31916
33440	0	31896
33441	0	31884
33442	0	31872
33443	0	31861
33444	0	31876
33445	0	31912
33446	0	32000
33447	0	32076
33448	0	32072
33449	0	32014
33450	0	31924
33451	0	31932
33452	0	31972
33453	0	31980
33454	0	31920
33455	0	31832
33456	0	31756
33457	0	31716
33458	0	31692
33459	0	31672
33460	0	31668
33461	0	31692
33462	0	31728
33463	0	31772
33464	0	31840
33465	0	31920
33466	0	32020
33467	0	32096
33468	0	32100
33469	0	32112
33470	0	32136
33471	0	32172
33472	0	32210
33473	0	32236
33474	0	32208
33475	0	32092
33476	0	31998
33477	0	31932
33478	0	31912
33479	0	31948
33480	0	31928
33481	0	31884
33482	0	31862
33483	0	31828
33484	0	31816
33485	0	31846
33486	0	31868
33487	0	31908
33488	0	31924
33489	0	31896
33490	0	31880
33491	0	31900
33492	0	31956
33493	0	32032
33494	0	32192
33495	0	32512
33496	0	32908
33497	0	33252
33498	0	33704
33499	0	34300
33500	0	34904
33501	0	35436
33502	0	36096
33503	0	37036
33504	0	38128
33505	0	39328
33506	0	40860
33507	0	42824
33508	0	44968
33509	0	47180
33510	0	49296
33511	0	51348
33512	0	53352
33513	0	55460
33514	0	57816
33515	0	60408
33516	0	62544
33517	0	63700
33518	0	64252
33519	0	64544
33520	0	64636
33521	0	64660
33522	0	64600
33523	0	64536
33524	0	64436
33525	0	64340
33526	0	64232
33527	0	64128
33528	0	62036
33529	0	58784
33530	0	55468
33531	0	52048
33532	0	48636
33533	0	45472
33534	0	42320
33535	0	39080
33536	0	35872
33537	0	33096
33538	0	31008
33539	0	29544
33540	0	28524
33541	0	27868
33542	0	27329
33543	0	26760
33544	0	26141
33545	0	25584
33546	0	25240
33547	0	25036
33548	0	24804
33549	0	24572
33550	0	24468
33551	0	24528
33552	0	24696
33553	0	24900
33554	0	25140
33555	0	25476
33556	0	25932
33557	0	26408
33558	0	26904
33559	0	27378
33560	0	27784
33561	0	28088
33562	0	28372
33563	0	28754
33564	0	29172
33565	0	29512
33566	0	29732
33567	0	29868
33568	0	29948
33569	0	29976
33570	0	29932
33571	0	29856
33572	0	29768
33573	0	29688
33574	0	29640
33575	0	29652
33576	0	29680
33577	0	29692
33578	0	29644
33579	0	29576
33580	0	29500
33581	0	29496
33582	0	29520
33583	0	29572
33584	0	29596
33585	0	29632
33586	0	29740
33587	0	29892
33588	0	30008
33589	0	30032
33590	0	30004
33591	0	29956
33592	0	29916
33593	0	29906
33594	0	29924
33595	0	29912
33596	0	29880
33597	0	29824
33598	0	29764
33599	0	29704
33600	0	29704
33601	0	29790
33602	0	29900
33603	0	30016
33604	0	30184
33605	0	30348
33606	0	30460
33607	0	30540
33608	0	30604
33609	0	30708
33610	0	30764
33611	0	30776
33612	0	30772
33613	0	30740
33614	0	30673
33615	0	30596
33616	0	30532
33617	0	30474
33618	0	30428
33619	0	30360
33620	0	30368
33621	0	30432
33622	0	30578
33623	0	30776
33624	0	30944
33625	0	31052
33626	0	31104
33627	0	31136
33628	0	31184
33629	0	31192
33630	0	31185
33631	0	31184
33632	0	31144
33633	0	31140
33634	0	31144
33635	0	31160
33636	0	31120
33637	0	31072
33638	0	31072
33639	0	31113
33640	0	31213
33641	0	31320
33642	0	31372
33643	0	31424
33644	0	31436
33645	0	31464
33646	0	31460
33647	0	31504
33648	0	31592
33649	0	31680
33650	0	31752
33651	0	31772
33652	0	31828
33653	0	31892
33654	0	31928
33655	0	31960
33656	0	31948
33657	0	31912
33658	0	31840
33659	0	31812
33660	0	31808
33661	0	31784
33662	0	31756
33663	0	31786
33664	0	31864
33665	0	31944
33666	0	32000
33667	0	32052
33668	0	32048
33669	0	32100
33670	0	32176
33671	0	32244
33672	0	32288
33673	0	32268
33674	0	32240
33675	0	32212
33676	0	32228
33677	0	32252
33678	0	32248
33679	0	32232
33680	0	32206
33681	0	32296
33682	0	32404
33683	0	32444
33684	0	32477
33685	0	32548
33686	0	32608
33687	0	32664
33688	0	32720
33689	0	32768
33690	0	32796
33691	0	32852
33692	0	32900
33693	0	32940
33694	0	32976
33695	0	32988
33696	0	33005
33697	0	32976
33698	0	32936
33699	0	32956
33700	0	33028
33701	0	33116
33702	0	33164
33703	0	33212
33704	0	33280
33705	0	33408
33706	0	33472
33707	0	33528
33708	0	33568
33709	0	33576
33710	0	33616
33711	0	33680
33712	0	33716
33713	0	33694
33714	0	33696
33715	0	33701
33716	0	33728
33717	0	33732
33718	0	33760
33719	0	33784
33720	0	33812
33721	0	33828
33722	0	33852
33723	0	33932
33724	0	34016
33725	0	34128
33726	0	34316
33727	0	34532
33728	0	34716
33729	0	34812
33730	0	34856
33731	0	34888
33732	0	34912
33733	0	34984
33734	0	35080
33735	0	35116
33736	0	35084
33737	0	35004
33738	0	34948
33739	0	34944
33740	0	34944
33741	0	35008
33742	0	35092
33743	0	35156
33744	0	35253
33745	0	35424
33746	0	35668
33747	0	35888
33748	0	36024
33749	0	36100
33750	0	36196
33751	0	36328
33752	0	36428
33753	0	36460
33754	0	36444
33755	0	36452
33756	0	36492
33757	0	36568
33758	0	36656
33759	0	36760
33760	0	36892
33761	0	37068
33762	0	37248
33763	0	37404
33764	0	37536
33765	0	37658
33766	0	37840
33767	0	38045
33768	0	38248
33769	0	38404
33770	0	38528
33771	0	38588
33772	0	38600
33773	0	38552
33774	0	38536
33775	0	38552
33776	0	38592
33777	0	38716
33778	0	38884
33779	0	38953
33780	0	39016
33781	0	39108
33782	0	39156
33783	0	39256
33784	0	39368
33785	0	39448
33786	0	39528
33787	0	39652
33788	0	39764
33789	0	39880
33790	0	39948
33791	0	39992
33792	0	40050
33793	0	40088
33794	0	40108
33795	0	40048
33796	0	39912
33797	0	39776
33798	0	39692
33799	0	39576
33800	0	39440
33801	0	39352
33802	0	39296
33803	0	39280
33804	0	39260
33805	0	39232
33806	0	39152
33807	0	39004
33808	0	38760
33809	0	38484
33810	0	38236
33811	0	38000
33812	0	37784
33813	0	37532
33814	0	37192
33815	0	36845
33816	0	36480
33817	0	36096
33818	0	35712
33819	0	35328
33820	0	34980
33821	0	34708
33822	0	34496
33823	0	34284
33824	0	34088
33825	0	33928
33826	0	33776
33827	0	33568
33828	0	33324
33829	0	33052
33830	0	32796
33831	0	32556
33832	0	32308
33833	0	32000
33834	0	31692
33835	0	31376
33836	0	31040
33837	0	30728
33838	0	30484
33839	0	30296
33840	0	30144
33841	0	30080
33842	0	30040
33843	0	29980
33844	0	29854
33845	0	29752
33846	0	29688
33847	0	29652
33848	0	29536
33849	0	29368
33850	0	29204
33851	0	29064
33852	0	28980
33853	0	28833
33854	0	28656
33855	0	28456
33856	0	28284
33857	0	28160
33858	0	28020
33859	0	27876
33860	0	27773
33861	0	27760
33862	0	27804
33863	0	27860
33864	0	27888
33865	0	27952
33866	0	28116
33867	0	28264
33868	0	28292
33869	0	28216
33870	0	28097
33871	0	27952
33872	0	27872
33873	0	27836
33874	0	27820
33875	0	27736
33876	0	27632
33877	0	27588
33878	0	27572
33879	0	27540
33880	0	27536
33881	0	27536
33882	0	27516
33883	0	27500
33884	0	27544
33885	0	27656
33886	0	27776
33887	0	27814
33888	0	27824
33889	0	27856
33890	0	27916
33891	0	27957
33892	0	27984
33893	0	28028
33894	0	28070
33895	0	28072
33896	0	28004
33897	0	27876
33898	0	27732
33899	0	27658
33900	0	27692
33901	0	27764
33902	0	27852
33903	0	27908
33904	0	27988
33905	0	28104
33906	0	28229
33907	0	28320
33908	0	28458
33909	0	28594
33910	0	28682
33911	0	28660
33912	0	28602
33913	0	28536
33914	0	28428
33915	0	28340
33916	0	28340
33917	0	28384
33918	0	28420
33919	0	28452
33920	0	28452
33921	0	28456
33922	0	28516
33923	0	28624
33924	0	28768
33925	0	28880
33926	0	28968
33927	0	29044
33928	0	29076
33929	0	29088
33930	0	29112
33931	0	29120
33932	0	29108
33933	0	29128
33934	0	29172
33935	0	29216
33936	0	29236
33937	0	29216
33938	0	29236
33939	0	29216
33940	0	29212
33941	0	29182
33942	0	29160
33943	0	29158
33944	0	29178
33945	0	29240
33946	0	29300
33947	0	29388
33948	0	29468
33949	0	29616
33950	0	29748
33951	0	29848
33952	0	29888
33953	0	29924
33954	0	29944
33955	0	29900
33956	0	29824
33957	0	29744
33958	0	29736
33959	0	29812
33960	0	29880
33961	0	29924
33962	0	29972
33963	0	30044
33964	0	30140
33965	0	30237
33966	0	30384
33967	0	30524
33968	0	30576
33969	0	30600
33970	0	30608
33971	0	30580
33972	0	30538
33973	0	30492
33974	0	30464
33975	0	30432
33976	0	30440
33977	0	30444
33978	0	30428
33979	0	30440
33980	0	30468
33981	0	30552
33982	0	30664
33983	0	30776
33984	0	30840
33985	0	30904
33986	0	30908
33987	0	30940
33988	0	31012
33989	0	31084
33990	0	31104
33991	0	31120
33992	0	31184
33993	0	31249
33994	0	31264
33995	0	31228
33996	0	31184
33997	0	31172
33998	0	31192
33999	0	31184
34000	0	31160
34001	0	31124
34002	0	31080
34003	0	31076
34004	0	31140
34005	0	31232
34006	0	31268
34007	0	31272
34008	0	31236
34009	0	31268
34010	0	31388
34011	0	31520
34012	0	31544
34013	0	31496
34014	0	31412
34015	0	31320
34016	0	31244
34017	0	31220
34018	0	31217
34019	0	31264
34020	0	31312
34021	0	31356
34022	0	31452
34023	0	31612
34024	0	31724
34025	0	31740
34026	0	31728
34027	0	31696
34028	0	31664
34029	0	31628
34030	0	31572
34031	0	31508
34032	0	31452
34033	0	31392
34034	0	31344
34035	0	31272
34036	0	31238
34037	0	31236
34038	0	31236
34039	0	31260
34040	0	31288
34041	0	31272
34042	0	31284
34043	0	31268
34044	0	31236
34045	0	31264
34046	0	31356
34047	0	31440
34048	0	31508
34049	0	31556
34050	0	31552
34051	0	31472
34052	0	31432
34053	0	31390
34054	0	31360
34055	0	31276
34056	0	31180
34057	0	31152
34058	0	31232
34059	0	31304
34060	0	31328
34061	0	31304
34062	0	31356
34063	0	31384
34064	0	31416
34065	0	31532
34066	0	31676
34067	0	31752
34068	0	31740
34069	0	31676
34070	0	31640
34071	0	31616
34072	0	31616
34073	0	31620
34074	0	31592
34075	0	31540
34076	0	31486
34077	0	31408
34078	0	31360
34079	0	31272
34080	0	31216
34081	0	31202
34082	0	31216
34083	0	31268
34084	0	31360
34085	0	31424
34086	0	31536
34087	0	31716
34088	0	31888
34089	0	31976
34090	0	31984
34091	0	31904
34092	0	31804
34093	0	31754
34094	0	31772
34095	0	31760
34096	0	31744
34097	0	31684
34098	0	31628
34099	0	31560
34100	0	31488
34101	0	31448
34102	0	31445
34103	0	31488
34104	0	31572
34105	0	31708
34106	0	31832
34107	0	31912
34108	0	31968
34109	0	32040
34110	0	32088
34111	0	32096
34112	0	32096
34113	0	32068
34114	0	32004
34115	0	31928
34116	0	31860
34117	0	31776
34118	0	31736
34119	0	31664
34120	0	31616
34121	0	31628
34122	0	31664
34123	0	31672
34124	0	31716
34125	0	31801
34126	0	31898
34127	0	31944
34128	0	31964
34129	0	31956
34130	0	31988
34131	0	31980
34132	0	31932
34133	0	31876
34134	0	31812
34135	0	31748
34136	0	31648
34137	0	31588
34138	0	31561
34139	0	31548
34140	0	31604
34141	0	31756
34142	0	31936
34143	0	32065
34144	0	32080
34145	0	32044
34146	0	32016
34147	0	31996
34148	0	32000
34149	0	32032
34150	0	32052
34151	0	32036
34152	0	31978
34153	0	31936
34154	0	31916
34155	0	31916
34156	0	31894
34157	0	31844
34158	0	31805
34159	0	31776
34160	0	31776
34161	0	31788
34162	0	31808
34163	0	31804
34164	0	31820
34165	0	31916
34166	0	32054
34167	0	32192
34168	0	32324
34169	0	32412
34170	0	32428
34171	0	32368
34172	0	32272
34173	0	32156
34174	0	32124
34175	0	32120
34176	0	32045
34177	0	31918
34178	0	31832
34179	0	31780
34180	0	31736
34181	0	31728
34182	0	31736
34183	0	31840
34184	0	32020
34185	0	32132
34186	0	32180
34187	0	32192
34188	0	32200
34189	0	32237
34190	0	32312
34191	0	32308
34192	0	32288
34193	0	32212
34194	0	32120
34195	0	32020
34196	0	31962
34197	0	31960
34198	0	31936
34199	0	31908
34200	0	31888
34201	0	31904
34202	0	32000
34203	0	32108
34204	0	32196
34205	0	32300
34206	0	32440
34207	0	32544
34208	0	32552
34209	0	32472
34210	0	32384
34211	0	32312
34212	0	32292
34213	0	32288
34214	0	32257
34215	0	32258
34216	0	32278
34217	0	32248
34218	0	32188
34219	0	32140
34220	0	32080
34221	0	32060
34222	0	32094
34223	0	32120
34224	0	32136
34225	0	32180
34226	0	32236
34227	0	32296
34228	0	32346
34229	0	32388
34230	0	32384
34231	0	32364
34232	0	32324
34233	0	32340
34234	0	32396
34235	0	32464
34236	0	32488
34237	0	32484
34238	0	32456
34239	0	32436
34240	0	32408
34241	0	32420
34242	0	32460
34243	0	32528
34244	0	32580
34245	0	32588
34246	0	32592
34247	0	32588
34248	0	32580
34249	0	32628
34250	0	32736
34251	0	32805
34252	0	32784
34253	0	32700
34254	0	32552
34255	0	32432
34256	0	32360
34257	0	32308
34258	0	32244
34259	0	32156
34260	0	32136
34261	0	32200
34262	0	32340
34263	0	32572
34264	0	32780
34265	0	32940
34266	0	32992
34267	0	32956
34268	0	32900
34269	0	32864
34270	0	32880
34271	0	32933
34272	0	32980
34273	0	33004
34274	0	32985
34275	0	32912
34276	0	32812
34277	0	32712
34278	0	32656
34279	0	32568
34280	0	32544
34281	0	32584
34282	0	32604
34283	0	32648
34284	0	32720
34285	0	32772
34286	0	32828
34287	0	32852
34288	0	32860
34289	0	32872
34290	0	32876
34291	0	32848
34292	0	32840
34293	0	32940
34294	0	33048
34295	0	33072
34296	0	33048
34297	0	32992
34298	0	32924
34299	0	32836
34300	0	32768
34301	0	32692
34302	0	32656
34303	0	32680
34304	0	32664
34305	0	32604
34306	0	32544
34307	0	32560
34308	0	32624
34309	0	32664
34310	0	32716
34311	0	32744
34312	0	32704
34313	0	32636
34314	0	32552
34315	0	32496
34316	0	32500
34317	0	32556
34318	0	32616
34319	0	32610
34320	0	32536
34321	0	32544
34322	0	32620
34323	0	32752
34324	0	32872
34325	0	33028
34326	0	33312
34327	0	33580
34328	0	33768
34329	0	33840
34330	0	33788
34331	0	33736
34332	0	33720
34333	0	33728
34334	0	33768
34335	0	33848
34336	0	33912
34337	0	33968
34338	0	34000
34339	0	34080
34340	0	34196
34341	0	34248
34342	0	34318
34343	0	34428
34344	0	34596
34345	0	34836
34346	0	35148
34347	0	35384
34348	0	35520
34349	0	35644
34350	0	35712
34351	0	35776
34352	0	35914
34353	0	36020
34354	0	36064
34355	0	36044
34356	0	36040
34357	0	36060
34358	0	36188
34359	0	36360
34360	0	36556
34361	0	36732
34362	0	36844
34363	0	36852
34364	0	36724
34365	0	36532
34366	0	36360
34367	0	36216
34368	0	36076
34369	0	35956
34370	0	35784
34371	0	35620
34372	0	35437
34373	0	35217
34374	0	34972
34375	0	34764
34376	0	34616
34377	0	34520
34378	0	34504
34379	0	34516
34380	0	34524
34381	0	34472
34382	0	34368
34383	0	34224
34384	0	34156
34385	0	34100
34386	0	34064
34387	0	34060
34388	0	34004
34389	0	33904
34390	0	33808
34391	0	33658
34392	0	33480
34393	0	33276
34394	0	33072
34395	0	32956
34396	0	32814
34397	0	32728
34398	0	32612
34399	0	32490
34400	0	32356
34401	0	32192
34402	0	32044
34403	0	31992
34404	0	31948
34405	0	31926
34406	0	31960
34407	0	32008
34408	0	32044
34409	0	32088
34410	0	32064
34411	0	32032
34412	0	32016
34413	0	32036
34414	0	32024
34415	0	32028
34416	0	31988
34417	0	32040
34418	0	32124
34419	0	32140
34420	0	32148
34421	0	32128
34422	0	32080
34423	0	31992
34424	0	31980
34425	0	31996
34426	0	32004
34427	0	32036
34428	0	32093
34429	0	32185
34430	0	32268
34431	0	32252
34432	0	32176
34433	0	32064
34434	0	32004
34435	0	31984
34436	0	31938
34437	0	31904
34438	0	31904
34439	0	31908
34440	0	31920
34441	0	31884
34442	0	31884
34443	0	31876
34444	0	31892
34445	0	31956
34446	0	32026
34447	0	32076
34448	0	32088
34449	0	32117
34450	0	32124
34451	0	32124
34452	0	32144
34453	0	32176
34454	0	32164
34455	0	32108
34456	0	32096
34457	0	32108
34458	0	32072
34459	0	31998
34460	0	31920
34461	0	31832
34462	0	31752
34463	0	31752
34464	0	31844
34465	0	31909
34466	0	32005
34467	0	32132
34468	0	32180
34469	0	32216
34470	0	32224
34471	0	32168
34472	0	32104
34473	0	31992
34474	0	31880
34475	0	31772
34476	0	31608
34477	0	31478
34478	0	31444
34479	0	31544
34480	0	31865
34481	0	32284
34482	0	32692
34483	0	33184
34484	0	33732
34485	0	34368
34486	0	34952
34487	0	35680
34488	0	36640
34489	0	37700
34490	0	38708
34491	0	40012
34492	0	41748
34493	0	43756
34494	0	45832
34495	0	47784
34496	0	49796
34497	0	51776
34498	0	53856
34499	0	56148
34500	0	58692
34501	0	61324
34502	0	62992
34503	0	63872
34504	0	64304
34505	0	64488
34506	0	64552
34507	0	64540
34508	0	64484
34509	0	64400
34510	0	64292
34511	0	64196
34512	0	62152
34513	0	59432
34514	0	56620
34515	0	53640
34516	0	50604
34517	0	47528
34518	0	44524
34519	0	41528
34520	0	38472
34521	0	35440
34522	0	32796
34523	0	30804
34524	0	29480
34525	0	28576
34526	0	27932
34527	0	27394
34528	0	26916
34529	0	26458
34530	0	26008
34531	0	25720
34532	0	25568
34533	0	25352
34534	0	25036
34535	0	24752
34536	0	24600
34537	0	24550
34538	0	24636
34539	0	24784
34540	0	25104
34541	0	25524
34542	0	25976
34543	0	26528
34544	0	27100
34545	0	27664
34546	0	28168
34547	0	28592
34548	0	28900
34549	0	29240
34550	0	29620
34551	0	29972
34552	0	30272
34553	0	30456
34554	0	30576
34555	0	30592
34556	0	30544
34557	0	30477
34558	0	30348
34559	0	30228
34560	0	30164
34561	0	30168
34562	0	30208
34563	0	30280
34564	0	30332
34565	0	30404
34566	0	30460
34567	0	30496
34568	0	30528
34569	0	30524
34570	0	30496
34571	0	30492
34572	0	30480
34573	0	30432
34574	0	30400
34575	0	30368
34576	0	30380
34577	0	30380
34578	0	30328
34579	0	30264
34580	0	30300
34581	0	30428
34582	0	30640
34583	0	30792
34584	0	30876
34585	0	30996
34586	0	31148
34587	0	31221
34588	0	31304
34589	0	31412
34590	0	31456
34591	0	31444
34592	0	31364
34593	0	31284
34594	0	31204
34595	0	31104
34596	0	30984
34597	0	30880
34598	0	30798
34599	0	30748
34600	0	30756
34601	0	30828
34602	0	30924
34603	0	31064
34604	0	31308
34605	0	31556
34606	0	31684
34607	0	31672
34608	0	31652
34609	0	31644
34610	0	31644
34611	0	31612
34612	0	31574
34613	0	31548
34614	0	31576
34615	0	31596
34616	0	31660
34617	0	31684
34618	0	31632
34619	0	31584
34620	0	31608
34621	0	31652
34622	0	31700
34623	0	31732
34624	0	31784
34625	0	31920
34626	0	32024
34627	0	32036
34628	0	32044
34629	0	32096
34630	0	32112
34631	0	32064
34632	0	32052
34633	0	32064
34634	0	32052
34635	0	31940
34636	0	31876
34637	0	31864
34638	0	31976
34639	0	32124
34640	0	32224
34641	0	32292
34642	0	32284
34643	0	32296
34644	0	32380
34645	0	32460
34646	0	32504
34647	0	32508
34648	0	32504
34649	0	32560
34650	0	32680
34651	0	32712
34652	0	32700
34653	0	32740
34654	0	32764
34655	0	32716
34656	0	32648
34657	0	32624
34658	0	32648
34659	0	32636
34660	0	32612
34661	0	32604
34662	0	32692
34663	0	32836
34664	0	32940
34665	0	33056
34666	0	33092
34667	0	33088
34668	0	33092
34669	0	33100
34670	0	33160
34671	0	33244
34672	0	33272
34673	0	33244
34674	0	33161
34675	0	33104
34676	0	33084
34677	0	33116
34678	0	33220
34679	0	33226
34680	0	33176
34681	0	33176
34682	0	33270
34683	0	33384
34684	0	33504
34685	0	33632
34686	0	33676
34687	0	33728
34688	0	33864
34689	0	33964
34690	0	34020
34691	0	34040
34692	0	34060
34693	0	34136
34694	0	34176
34695	0	34144
34696	0	34092
34697	0	34044
34698	0	34000
34699	0	34000
34700	0	34040
34701	0	34068
34702	0	34112
34703	0	34188
34704	0	34224
34705	0	34328
34706	0	34516
34707	0	34696
34708	0	34830
34709	0	34924
34710	0	34984
34711	0	35020
34712	0	35036
34713	0	35100
34714	0	35128
34715	0	35112
34716	0	35112
34717	0	35144
34718	0	35228
34719	0	35288
34720	0	35284
34721	0	35252
34722	0	35256
34723	0	35324
34724	0	35408
34725	0	35456
34726	0	35556
34727	0	35672
34728	0	35744
34729	0	35908
34730	0	36044
34731	0	36164
34732	0	36288
34733	0	36528
34734	0	36640
34735	0	36680
34736	0	36696
34737	0	36696
34738	0	36692
34739	0	36736
34740	0	36792
34741	0	36908
34742	0	37072
34743	0	37188
34744	0	37232
34745	0	37348
34746	0	37556
34747	0	37748
34748	0	37872
34749	0	37916
34750	0	37836
34751	0	37744
34752	0	37740
34753	0	37772
34754	0	37736
34755	0	37700
34756	0	37728
34757	0	37808
34758	0	37944
34759	0	38056
34760	0	38152
34761	0	38232
34762	0	38324
34763	0	38480
34764	0	38592
34765	0	38700
34766	0	38860
34767	0	39028
34768	0	39196
34769	0	39316
34770	0	39444
34771	0	39500
34772	0	39489
34773	0	39528
34774	0	39556
34775	0	39580
34776	0	39592
34777	0	39608
34778	0	39596
34779	0	39536
34780	0	39508
34781	0	39448
34782	0	39416
34783	0	39388
34784	0	39316
34785	0	39272
34786	0	39232
34787	0	39112
34788	0	39008
34789	0	38988
34790	0	38916
34791	0	38728
34792	0	38484
34793	0	38240
34794	0	37984
34795	0	37676
34796	0	37300
34797	0	37036
34798	0	36888
34799	0	36660
34800	0	36360
34801	0	36152
34802	0	35980
34803	0	35808
34804	0	35640
34805	0	35436
34806	0	35216
34807	0	34986
34808	0	34736
34809	0	34500
34810	0	34296
34811	0	34088
34812	0	33856
34813	0	33632
34814	0	33380
34815	0	33068
34816	0	32748
34817	0	32420
34818	0	32100
34819	0	31788
34820	0	31528
34821	0	31272
34822	0	31068
34823	0	30942
34824	0	30820
34825	0	30716
34826	0	30560
34827	0	30368
34828	0	30260
34829	0	30180
34830	0	30180
34831	0	30148
34832	0	30040
34833	0	29884
34834	0	29620
34835	0	29360
34836	0	29164
34837	0	29044
34838	0	28900
34839	0	28776
34840	0	28652
34841	0	28520
34842	0	28400
34843	0	28337
34844	0	28272
34845	0	28228
34846	0	28276
34847	0	28336
34848	0	28436
34849	0	28512
34850	0	28524
34851	0	28520
34852	0	28436
34853	0	28288
34854	0	28112
34855	0	27940
34856	0	27832
34857	0	27764
34858	0	27724
34859	0	27736
34860	0	27788
34861	0	27872
34862	0	27948
34863	0	27988
34864	0	27988
34865	0	28032
34866	0	28082
34867	0	28088
34868	0	28060
34869	0	28040
34870	0	28065
34871	0	28132
34872	0	28220
34873	0	28268
34874	0	28360
34875	0	28420
34876	0	28344
34877	0	28248
34878	0	28196
34879	0	28116
34880	0	28016
34881	0	27956
34882	0	27952
34883	0	27984
34884	0	28120
34885	0	28287
34886	0	28410
34887	0	28509
34888	0	28564
34889	0	28560
34890	0	28520
34891	0	28492
34892	0	28512
34893	0	28548
34894	0	28564
34895	0	28526
34896	0	28448
34897	0	28332
34898	0	28216
34899	0	28172
34900	0	28184
34901	0	28220
34902	0	28258
34903	0	28284
34904	0	28284
34905	0	28420
34906	0	28712
34907	0	28968
34908	0	29092
34909	0	29148
34910	0	29212
34911	0	29312
34912	0	29368
34913	0	29372
34914	0	29372
34915	0	29340
34916	0	29272
34917	0	29244
34918	0	29286
34919	0	29372
34920	0	29464
34921	0	29508
34922	0	29549
34923	0	29596
34924	0	29656
34925	0	29676
34926	0	29616
34927	0	29568
34928	0	29584
34929	0	29656
34930	0	29744
34931	0	29884
34932	0	30028
34933	0	30100
34934	0	30084
34935	0	30016
34936	0	29964
34937	0	29972
34938	0	30004
34939	0	29984
34940	0	29912
34941	0	29872
34942	0	29864
34943	0	29896
34944	0	29968
34945	0	30144
34946	0	30336
34947	0	30500
34948	0	30665
34949	0	30760
34950	0	30716
34951	0	30584
34952	0	30604
34953	0	30684
34954	0	30764
34955	0	30760
34956	0	30692
34957	0	30616
34958	0	30568
34959	0	30566
34960	0	30540
34961	0	30572
34962	0	30676
34963	0	30808
34964	0	30908
34965	0	31000
34966	0	31168
34967	0	31328
34968	0	31460
34969	0	31564
34970	0	31632
34971	0	31648
34972	0	31684
34973	0	31694
34974	0	31648
34975	0	31524
34976	0	31380
34977	0	31248
34978	0	31164
34979	0	31124
34980	0	31168
34981	0	31248
34982	0	31388
34983	0	31588
34984	0	31700
34985	0	31812
34986	0	31916
34987	0	31904
34988	0	31868
34989	0	31912
34990	0	31944
34991	0	31932
34992	0	31920
34993	0	31856
34994	0	31728
34995	0	31608
34996	0	31632
34997	0	31632
34998	0	31624
34999	0	31616
35000	0	31564
35001	0	31552
35002	0	31520
35003	0	31444
35004	0	31408
35005	0	31472
35006	0	31552
35007	0	31629
35008	0	31700
35009	0	31768
35010	0	31798
35011	0	31756
35012	0	31680
35013	0	31532
35014	0	31392
35015	0	31328
35016	0	31296
35017	0	31224
35018	0	31112
35019	0	31032
35020	0	31004
35021	0	31064
35022	0	31120
35023	0	31220
35024	0	31329
35025	0	31324
35026	0	31320
35027	0	31380
35028	0	31420
35029	0	31480
35030	0	31636
35031	0	31772
35032	0	31860
35033	0	31952
35034	0	32040
35035	0	31996
35036	0	31857
35037	0	31732
35038	0	31548
35039	0	31364
35040	0	31232
35041	0	31164
35042	0	31148
35043	0	31152
35044	0	31180
35045	0	31220
35046	0	31292
35047	0	31396
35048	0	31512
35049	0	31612
35050	0	31752
35051	0	31852
35052	0	31888
35053	0	31852
35054	0	31792
35055	0	31644
35056	0	31444
35057	0	31280
35058	0	31244
35059	0	31272
35060	0	31364
35061	0	31412
35062	0	31456
35063	0	31466
35064	0	31464
35065	0	31544
35066	0	31652
35067	0	31692
35068	0	31648
35069	0	31704
35070	0	31780
35071	0	31760
35072	0	31652
35073	0	31584
35074	0	31500
35075	0	31432
35076	0	31348
35077	0	31317
35078	0	31356
35079	0	31388
35080	0	31400
35081	0	31444
35082	0	31512
35083	0	31580
35084	0	31612
35085	0	31652
35086	0	31716
35087	0	31856
35088	0	31924
35089	0	31976
35090	0	32008
35091	0	31988
35092	0	31944
35093	0	31880
35094	0	31780
35095	0	31712
35096	0	31672
35097	0	31588
35098	0	31528
35099	0	31508
35100	0	31404
35101	0	31328
35102	0	31428
35103	0	31624
35104	0	31800
35105	0	31902
35106	0	31964
35107	0	31952
35108	0	31860
35109	0	31788
35110	0	31809
35111	0	31846
35112	0	31888
35113	0	31916
35114	0	31964
35115	0	32008
35116	0	31920
35117	0	31796
35118	0	31772
35119	0	31804
35120	0	31796
35121	0	31784
35122	0	31760
35123	0	31698
35124	0	31704
35125	0	31765
35126	0	31884
35127	0	32048
35128	0	32148
35129	0	32144
35130	0	32032
35131	0	31940
35132	0	31916
35133	0	31960
35134	0	32000
35135	0	31956
35136	0	31912
35137	0	31908
35138	0	31912
35139	0	31872
35140	0	31836
35141	0	31865
35142	0	31952
35143	0	31992
35144	0	31944
35145	0	31997
35146	0	32120
35147	0	32200
35148	0	32296
35149	0	32376
35150	0	32364
35151	0	32328
35152	0	32352
35153	0	32412
35154	0	32432
35155	0	32368
35156	0	32232
35157	0	32177
35158	0	32072
35159	0	31952
35160	0	31956
35161	0	32056
35162	0	32154
35163	0	32212
35164	0	32256
35165	0	32308
35166	0	32336
35167	0	32320
35168	0	32336
35169	0	32364
35170	0	32328
35171	0	32304
35172	0	32356
35173	0	32400
35174	0	32356
35175	0	32292
35176	0	32196
35177	0	31980
35178	0	31808
35179	0	31781
35180	0	31789
35181	0	31800
35182	0	31840
35183	0	31924
35184	0	32088
35185	0	32224
35186	0	32324
35187	0	32488
35188	0	32612
35189	0	32664
35190	0	32712
35191	0	32716
35192	0	32660
35193	0	32536
35194	0	32408
35195	0	32328
35196	0	32256
35197	0	32224
35198	0	32184
35199	0	32148
35200	0	32101
35201	0	32040
35202	0	31992
35203	0	31956
35204	0	32048
35205	0	32128
35206	0	32192
35207	0	32288
35208	0	32380
35209	0	32448
35210	0	32564
35211	0	32633
35212	0	32700
35213	0	32736
35214	0	32680
35215	0	32552
35216	0	32456
35217	0	32420
35218	0	32356
35219	0	32252
35220	0	32160
35221	0	32074
35222	0	31972
35223	0	31937
35224	0	32008
35225	0	32181
35226	0	32340
35227	0	32352
35228	0	32356
35229	0	32360
35230	0	32354
35231	0	32380
35232	0	32504
35233	0	32617
35234	0	32644
35235	0	32544
35236	0	32396
35237	0	32292
35238	0	32252
35239	0	32224
35240	0	32184
35241	0	32192
35242	0	32284
35243	0	32412
35244	0	32524
35245	0	32596
35246	0	32640
35247	0	32652
35248	0	32648
35249	0	32634
35250	0	32568
35251	0	32492
35252	0	32441
35253	0	32316
35254	0	32244
35255	0	32224
35256	0	32284
35257	0	32480
35258	0	32788
35259	0	32956
35260	0	33100
35261	0	33320
35262	0	33528
35263	0	33660
35264	0	33796
35265	0	33940
35266	0	33980
35267	0	33932
35268	0	33980
35269	0	34132
35270	0	34272
35271	0	34380
35272	0	34428
35273	0	34436
35274	0	34436
35275	0	34508
35276	0	34596
35277	0	34708
35278	0	34840
35279	0	34992
35280	0	35184
35281	0	35444
35282	0	35664
35283	0	35892
35284	0	36204
35285	0	36596
35286	0	36940
35287	0	37186
35288	0	37244
35289	0	37144
35290	0	36928
35291	0	36624
35292	0	36244
35293	0	35856
35294	0	35428
35295	0	35072
35296	0	34746
35297	0	34561
35298	0	34532
35299	0	34532
35300	0	34552
35301	0	34496
35302	0	34376
35303	0	34232
35304	0	34196
35305	0	34224
35306	0	34264
35307	0	34300
35308	0	34292
35309	0	34224
35310	0	34132
35311	0	34128
35312	0	34104
35313	0	33972
35314	0	33736
35315	0	33392
35316	0	33072
35317	0	32828
35318	0	32668
35319	0	32500
35320	0	32356
35321	0	32200
35322	0	32132
35323	0	32180
35324	0	32268
35325	0	32284
35326	0	32268
35327	0	32304
35328	0	32336
35329	0	32353
35330	0	32368
35331	0	32400
35332	0	32316
35333	0	32156
35334	0	32049
35335	0	31960
35336	0	31796
35337	0	31712
35338	0	31694
35339	0	31752
35340	0	31804
35341	0	31810
35342	0	31812
35343	0	31782
35344	0	31792
35345	0	31888
35346	0	32016
35347	0	32064
35348	0	32080
35349	0	32128
35350	0	32156
35351	0	32072
35352	0	31960
35353	0	31772
35354	0	31516
35355	0	31360
35356	0	31348
35357	0	31388
35358	0	31400
35359	0	31332
35360	0	31312
35361	0	31272
35362	0	31293
35363	0	31360
35364	0	31496
35365	0	31621
35366	0	31712
35367	0	31784
35368	0	31876
35369	0	32012
35370	0	32128
35371	0	32140
35372	0	32056
35373	0	31981
35374	0	31856
35375	0	31758
35376	0	31752
35377	0	31778
35378	0	31736
35379	0	31684
35380	0	31668
35381	0	31708
35382	0	31785
35383	0	31872
35384	0	31972
35385	0	32032
35386	0	32112
35387	0	32172
35388	0	32228
35389	0	32288
35390	0	32256
35391	0	32144
35392	0	32036
35393	0	31952
35394	0	31876
35395	0	31812
35396	0	31648
35397	0	31472
35398	0	31264
35399	0	31124
35400	0	30984
35401	0	30858
35402	0	30764
35403	0	30630
35404	0	30592
35405	0	30694
35406	0	30932
35407	0	31320
35408	0	31832
35409	0	32312
35410	0	32704
35411	0	33100
35412	0	33508
35413	0	33980
35414	0	34608
35415	0	35440
35416	0	36436
35417	0	37560
35418	0	39092
35419	0	41028
35420	0	43244
35421	0	45420
35422	0	47429
35423	0	49368
35424	0	51240
35425	0	53300
35426	0	55588
35427	0	58272
35428	0	60992
35429	0	62696
35430	0	63604
35431	0	64036
35432	0	64224
35433	0	64276
35434	0	64276
35435	0	64200
35436	0	64132
35437	0	64044
35438	0	62036
35439	0	59724
35440	0	57456
35441	0	54968
35442	0	52240
35443	0	49480
35444	0	46700
35445	0	43930
35446	0	41112
35447	0	38208
35448	0	35360
35449	0	33050
35450	0	31248
35451	0	29916
35452	0	28896
35453	0	28108
35454	0	27360
35455	0	26708
35456	0	26252
35457	0	25954
35458	0	25808
35459	0	25748
35460	0	25624
35461	0	25436
35462	0	25204
35463	0	25016
35464	0	24904
35465	0	24904
35466	0	25026
35467	0	25252
35468	0	25564
35469	0	26000
35470	0	26516
35471	0	26992
35472	0	27424
35473	0	27876
35474	0	28312
35475	0	28648
35476	0	28904
35477	0	29092
35478	0	29368
35479	0	29736
35480	0	30096
35481	0	30304
35482	0	30352
35483	0	30380
35484	0	30416
35485	0	30452
35486	0	30456
35487	0	30444
35488	0	30402
35489	0	30353
35490	0	30388
35491	0	30408
35492	0	30460
35493	0	30528
35494	0	30520
35495	0	30456
35496	0	30376
35497	0	30340
35498	0	30368
35499	0	30416
35500	0	30424
35501	0	30448
35502	0	30448
35503	0	30436
35504	0	30446
35505	0	30496
35506	0	30604
35507	0	30780
35508	0	30960
35509	0	31048
35510	0	31144
35511	0	31172
35512	0	31152
35513	0	31118
35514	0	31072
35515	0	31076
35516	0	31088
35517	0	31040
35518	0	30972
35519	0	30904
35520	0	30832
35521	0	30804
35522	0	30828
35523	0	30932
35524	0	31024
35525	0	31124
35526	0	31252
35527	0	31316
35528	0	31356
35529	0	31416
35530	0	31444
35531	0	31400
35532	0	31360
35533	0	31309
35534	0	31292
35535	0	31240
35536	0	31180
35537	0	31120
35538	0	31088
35539	0	31124
35540	0	31220
35541	0	31328
35542	0	31380
35543	0	31472
35544	0	31620
35545	0	31718
35546	0	31810
35547	0	31900
35548	0	31944
35549	0	31976
35550	0	31960
35551	0	31932
35552	0	31908
35553	0	31904
35554	0	31864
35555	0	31812
35556	0	31776
35557	0	31764
35558	0	31704
35559	0	31656
35560	0	31660
35561	0	31764
35562	0	31921
35563	0	32000
35564	0	31962
35565	0	31920
35566	0	31940
35567	0	32032
35568	0	32124
35569	0	32176
35570	0	32204
35571	0	32244
35572	0	32340
35573	0	32448
35574	0	32488
35575	0	32404
35576	0	32272
35577	0	32220
35578	0	32208
35579	0	32184
35580	0	32192
35581	0	32224
35582	0	32288
35583	0	32392
35584	0	32540
35585	0	32704
35586	0	32840
35587	0	32904
35588	0	32920
35589	0	32864
35590	0	32800
35591	0	32800
35592	0	32772
35593	0	32712
35594	0	32617
35595	0	32520
35596	0	32512
35597	0	32540
35598	0	32609
35599	0	32672
35600	0	32744
35601	0	32836
35602	0	32936
35603	0	33040
35604	0	33172
35605	0	33350
35606	0	33488
35607	0	33600
35608	0	33608
35609	0	33600
35610	0	33620
35611	0	33660
35612	0	33696
35613	0	33720
35614	0	33696
35615	0	33656
35616	0	33564
35617	0	33456
35618	0	33388
35619	0	33356
35620	0	33364
35621	0	33392
35622	0	33404
35623	0	33498
35624	0	33656
35625	0	33784
35626	0	33858
35627	0	33884
35628	0	33936
35629	0	33992
35630	0	34052
35631	0	34092
35632	0	34168
35633	0	34276
35634	0	34360
35635	0	34436
35636	0	34528
35637	0	34544
35638	0	34512
35639	0	34484
35640	0	34476
35641	0	34496
35642	0	34532
35643	0	34592
35644	0	34612
35645	0	34664
35646	0	34796
35647	0	34972
35648	0	35128
35649	0	35186
35650	0	35234
35651	0	35276
35652	0	35328
35653	0	35360
35654	0	35320
35655	0	35256
35656	0	35220
35657	0	35276
35658	0	35416
35659	0	35576
35660	0	35697
35661	0	35792
35662	0	35880
35663	0	35964
35664	0	36056
35665	0	36208
35666	0	36456
35667	0	36672
35668	0	36832
35669	0	36924
35670	0	36956
35671	0	37030
35672	0	37100
35673	0	37156
35674	0	37120
35675	0	37056
35676	0	37016
35677	0	37004
35678	0	37112
35679	0	37296
35680	0	37424
35681	0	37472
35682	0	37532
35683	0	37612
35684	0	37756
35685	0	37896
35686	0	38044
35687	0	38164
35688	0	38300
35689	0	38380
35690	0	38408
35691	0	38432
35692	0	38464
35693	0	38472
35694	0	38464
35695	0	38460
35696	0	38492
35697	0	38528
35698	0	38584
35699	0	38650
35700	0	38756
35701	0	38944
35702	0	39116
35703	0	39256
35704	0	39304
35705	0	39308
35706	0	39312
35707	0	39278
35708	0	39288
35709	0	39320
35710	0	39272
35711	0	39056
35712	0	38784
35713	0	38512
35714	0	38272
35715	0	38052
35716	0	37856
35717	0	37700
35718	0	37536
35719	0	37364
35720	0	37144
35721	0	36964
35722	0	36794
35723	0	36692
35724	0	36588
35725	0	36420
35726	0	36188
35727	0	35900
35728	0	35580
35729	0	35280
35730	0	34976
35731	0	34656
35732	0	34308
35733	0	33972
35734	0	33640
35735	0	33360
35736	0	33104
35737	0	32840
35738	0	32620
35739	0	32448
35740	0	32312
35741	0	32152
35742	0	31948
35743	0	31728
35744	0	31512
35745	0	31300
35746	0	31160
35747	0	31072
35748	0	30928
35749	0	30792
35750	0	30621
35751	0	30412
35752	0	30164
35753	0	29972
35754	0	29848
35755	0	29708
35756	0	29508
35757	0	29320
35758	0	29136
35759	0	28996
35760	0	28908
35761	0	28848
35762	0	28840
35763	0	28892
35764	0	28884
35765	0	28838
35766	0	28728
35767	0	28592
35768	0	28524
35769	0	28488
35770	0	28436
35771	0	28340
35772	0	28200
35773	0	28064
35774	0	27964
35775	0	27904
35776	0	27844
35777	0	27800
35778	0	27716
35779	0	27632
35780	0	27600
35781	0	27628
35782	0	27673
35783	0	27728
35784	0	27820
35785	0	27868
35786	0	27872
35787	0	27872
35788	0	27856
35789	0	27844
35790	0	27856
35791	0	27852
35792	0	27880
35793	0	27904
35794	0	27892
35795	0	27812
35796	0	27708
35797	0	27655
35798	0	27632
35799	0	27644
35800	0	27668
35801	0	27696
35802	0	27700
35803	0	27764
35804	0	27836
35805	0	27868
35806	0	27948
35807	0	28061
35808	0	28212
35809	0	28400
35810	0	28552
35811	0	28528
35812	0	28384
35813	0	28256
35814	0	28178
35815	0	28104
35816	0	28084
35817	0	28068
35818	0	28000
35819	0	27984
35820	0	28098
35821	0	28228
35822	0	28296
35823	0	28316
35824	0	28328
35825	0	28384
35826	0	28480
35827	0	28548
35828	0	28636
35829	0	28736
35830	0	28796
35831	0	28772
35832	0	28688
35833	0	28664
35834	0	28672
35835	0	28652
35836	0	28652
35837	0	28706
35838	0	28752
35839	0	28756
35840	0	28772
35841	0	28872
35842	0	29004
35843	0	29108
35844	0	29200
35845	0	29256
35846	0	29266
35847	0	29324
35848	0	29452
35849	0	29528
35850	0	29529
35851	0	29556
35852	0	29620
35853	0	29700
35854	0	29704
35855	0	29673
35856	0	29608
35857	0	29568
35858	0	29608
35859	0	29636
35860	0	29592
35861	0	29568
35862	0	29616
35863	0	29717
35864	0	29784
35865	0	29872
35866	0	29928
35867	0	29964
35868	0	30008
35869	0	30052
35870	0	30088
35871	0	30192
35872	0	30308
35873	0	30418
35874	0	30508
35875	0	30536
35876	0	30552
35877	0	30584
35878	0	30620
35879	0	30608
35880	0	30552
35881	0	30524
35882	0	30472
35883	0	30434
35884	0	30460
35885	0	30552
35886	0	30696
35887	0	30847
35888	0	30956
35889	0	31034
35890	0	31064
35891	0	31052
35892	0	31008
35893	0	30956
35894	0	30878
35895	0	30832
35896	0	30828
35897	0	30860
35898	0	30884
35899	0	30856
35900	0	30844
35901	0	30872
35902	0	30952
35903	0	31077
35904	0	31224
35905	0	31340
35906	0	31452
35907	0	31560
35908	0	31616
35909	0	31636
35910	0	31576
35911	0	31500
35912	0	31424
35913	0	31320
35914	0	31272
35915	0	31228
35916	0	31128
35917	0	31024
35918	0	30952
35919	0	30916
35920	0	30920
35921	0	31004
35922	0	31137
35923	0	31208
35924	0	31216
35925	0	31224
35926	0	31196
35927	0	31188
35928	0	31252
35929	0	31328
35930	0	31328
35931	0	31308
35932	0	31264
35933	0	31192
35934	0	31125
35935	0	31076
35936	0	31108
35937	0	31116
35938	0	31141
35939	0	31184
35940	0	31212
35941	0	31204
35942	0	31200
35943	0	31196
35944	0	31232
35945	0	31280
35946	0	31324
35947	0	31304
35948	0	31308
35949	0	31352
35950	0	31388
35951	0	31408
35952	0	31400
35953	0	31408
35954	0	31384
35955	0	31318
35956	0	31232
35957	0	31192
35958	0	31152
35959	0	31096
35960	0	31064
35961	0	31092
35962	0	31149
35963	0	31176
35964	0	31168
35965	0	31172
35966	0	31196
35967	0	31188
35968	0	31162
35969	0	31148
35970	0	31092
35971	0	31100
35972	0	31108
35973	0	31080
35974	0	31000
35975	0	30876
35976	0	30784
35977	0	30836
35978	0	30952
35979	0	31020
35980	0	30988
35981	0	30994
35982	0	31116
35983	0	31244
35984	0	31284
35985	0	31288
35986	0	31312
35987	0	31328
35988	0	31348
35989	0	31368
35990	0	31376
35991	0	31372
35992	0	31376
35993	0	31428
35994	0	31452
35995	0	31436
35996	0	31400
35997	0	31396
35998	0	31348
35999	0	31288
36000	0	31240
36001	0	31232
36002	0	31224
36003	0	31192
36004	0	31224
36005	0	31284
36006	0	31360
36007	0	31376
36008	0	31360
36009	0	31392
36010	0	31396
36011	0	31408
36012	0	31452
36013	0	31442
36014	0	31344
36015	0	31244
36016	0	31144
36017	0	31008
36018	0	30852
36019	0	30764
36020	0	30784
36021	0	30920
36022	0	31156
36023	0	31364
36024	0	31452
36025	0	31488
36026	0	31528
36027	0	31580
36028	0	31644
36029	0	31708
36030	0	31736
36031	0	31752
36032	0	31704
36033	0	31620
36034	0	31504
36035	0	31416
36036	0	31376
36037	0	31324
36038	0	31264
36039	0	31204
36040	0	31208
36041	0	31212
36042	0	31256
36043	0	31304
36044	0	31364
36045	0	31456
36046	0	31608
36047	0	31704
36048	0	31732
36049	0	31684
36050	0	31624
36051	0	31600
36052	0	31596
36053	0	31556
36054	0	31464
36055	0	31352
36056	0	31212
36057	0	31208
36058	0	31308
36059	0	31416
36060	0	31440
36061	0	31408
36062	0	31384
36063	0	31429
36064	0	31492
36065	0	31588
36066	0	31674
36067	0	31740
36068	0	31776
36069	0	31764
36070	0	31740
36071	0	31740
36072	0	31752
36073	0	31700
36074	0	31565
36075	0	31452
36076	0	31400
36077	0	31352
36078	0	31352
36079	0	31372
36080	0	31416
36081	0	31456
36082	0	31444
36083	0	31424
36084	0	31448
36085	0	31516
36086	0	31648
36087	0	31772
36088	0	31860
36089	0	31937
36090	0	31932
36091	0	31924
36092	0	31912
36093	0	31880
36094	0	31834
36095	0	31748
36096	0	31668
36097	0	31640
36098	0	31636
36099	0	31596
36100	0	31584
36101	0	31616
36102	0	31624
36103	0	31648
36104	0	31712
36105	0	31784
36106	0	31868
36107	0	31904
36108	0	31924
36109	0	31914
36110	0	31962
36111	0	32036
36112	0	32100
36113	0	32084
36114	0	31960
36115	0	31844
36116	0	31792
36117	0	31773
36118	0	31780
36119	0	31772
36120	0	31724
36121	0	31706
36122	0	31776
36123	0	31824
36124	0	31924
36125	0	32000
36126	0	32088
36127	0	32137
36128	0	32188
36129	0	32248
36130	0	32320
36131	0	32360
36132	0	32324
36133	0	32228
36134	0	32116
36135	0	31992
36136	0	31896
36137	0	31804
36138	0	31764
36139	0	31784
36140	0	31896
36141	0	31992
36142	0	32088
36143	0	32156
36144	0	32192
36145	0	32244
36146	0	32300
36147	0	32316
36148	0	32300
36149	0	32280
36150	0	32284
36151	0	32288
36152	0	32296
36153	0	32280
36154	0	32256
36155	0	32252
36156	0	32180
36157	0	32066
36158	0	31964
36159	0	31892
36160	0	31876
36161	0	31848
36162	0	31852
36163	0	31900
36164	0	31936
36165	0	32036
36166	0	32200
36167	0	32324
36168	0	32376
36169	0	32364
36170	0	32384
36171	0	32388
36172	0	32400
36173	0	32412
36174	0	32384
36175	0	32352
36176	0	32300
36177	0	32220
36178	0	32128
36179	0	32080
36180	0	32084
36181	0	32152
36182	0	32176
36183	0	32104
36184	0	32098
36185	0	32104
36186	0	32112
36187	0	32112
36188	0	32136
36189	0	32200
36190	0	32280
36191	0	32332
36192	0	32356
36193	0	32352
36194	0	32320
36195	0	32240
36196	0	32196
36197	0	32244
36198	0	32244
36199	0	32160
36200	0	32080
36201	0	32065
36202	0	32072
36203	0	32112
36204	0	32228
36205	0	32320
36206	0	32428
36207	0	32512
36208	0	32588
36209	0	32732
36210	0	32932
36211	0	33141
36212	0	33344
36213	0	33404
36214	0	33352
36215	0	33216
36216	0	33130
36217	0	33164
36218	0	33268
36219	0	33344
36220	0	33392
36221	0	33432
36222	0	33536
36223	0	33704
36224	0	33924
36225	0	34112
36226	0	34308
36227	0	34464
36228	0	34656
36229	0	34848
36230	0	35026
36231	0	35196
36232	0	35300
36233	0	35340
36234	0	35388
36235	0	35404
36236	0	35428
36237	0	35480
36238	0	35632
36239	0	35912
36240	0	36216
36241	0	36356
36242	0	36380
36243	0	36352
36244	0	36280
36245	0	36170
36246	0	35996
36247	0	35780
36248	0	35544
36249	0	35330
36250	0	35104
36251	0	34888
36252	0	34712
36253	0	34546
36254	0	34400
36255	0	34256
36256	0	34164
36257	0	34084
36258	0	33992
36259	0	33880
36260	0	33732
36261	0	33669
36262	0	33724
36263	0	33764
36264	0	33804
36265	0	33820
36266	0	33836
36267	0	33784
36268	0	33708
36269	0	33656
36270	0	33584
36271	0	33436
36272	0	33192
36273	0	32904
36274	0	32628
36275	0	32384
36276	0	32214
36277	0	32052
36278	0	31908
36279	0	31796
36280	0	31736
36281	0	31732
36282	0	31756
36283	0	31797
36284	0	31864
36285	0	31876
36286	0	31864
36287	0	31852
36288	0	31872
36289	0	31908
36290	0	31916
36291	0	31884
36292	0	31808
36293	0	31684
36294	0	31564
36295	0	31500
36296	0	31428
36297	0	31396
36298	0	31356
36299	0	31348
36300	0	31328
36301	0	31313
36302	0	31284
36303	0	31280
36304	0	31373
36305	0	31568
36306	0	31736
36307	0	31804
36308	0	31876
36309	0	31920
36310	0	31932
36311	0	31895
36312	0	31852
36313	0	31820
36314	0	31720
36315	0	31572
36316	0	31416
36317	0	31340
36318	0	31312
36319	0	31280
36320	0	31288
36321	0	31332
36322	0	31368
36323	0	31396
36324	0	31448
36325	0	31512
36326	0	31568
36327	0	31608
36328	0	31668
36329	0	31692
36330	0	31744
36331	0	31780
36332	0	31748
36333	0	31724
36334	0	31712
36335	0	31668
36336	0	31624
36337	0	31620
36338	0	31644
36339	0	31680
36340	0	31724
36341	0	31712
36342	0	31692
36343	0	31712
36344	0	31772
36345	0	31848
36346	0	31892
36347	0	31900
36348	0	31876
36349	0	31840
36350	0	31740
36351	0	31668
36352	0	31588
36353	0	31517
36354	0	31464
36355	0	31420
36356	0	31452
36357	0	31548
36358	0	31776
36359	0	32160
36360	0	32680
36361	0	33236
36362	0	33876
36363	0	34548
36364	0	35224
36365	0	35912
36366	0	36712
36367	0	37740
36368	0	38824
36369	0	39956
36370	0	41396
36371	0	43260
36372	0	45384
36373	0	47524
36374	0	49492
36375	0	51432
36376	0	53352
36377	0	55372
36378	0	57688
36379	0	60352
36380	0	62616
36381	0	63812
36382	0	64432
36383	0	64720
36384	0	64824
36385	0	64840
36386	0	64796
36387	0	64728
36388	0	64624
36389	0	64536
36390	0	64404
36391	0	63600
36392	0	60552
36393	0	57600
36394	0	54476
36395	0	51216
36396	0	47980
36397	0	44932
36398	0	41840
36399	0	38756
36400	0	35748
36401	0	33104
36402	0	30972
36403	0	29368
36404	0	28278
36405	0	27590
36406	0	27120
36407	0	26676
36408	0	26192
36409	0	25732
36410	0	25372
36411	0	25044
36412	0	24713
36413	0	24466
36414	0	24276
36415	0	24192
36416	0	24280
36417	0	24508
36418	0	24812
36419	0	25236
36420	0	25730
36421	0	26292
36422	0	26844
36423	0	27322
36424	0	27748
36425	0	28136
36426	0	28492
36427	0	28848
36428	0	29260
36429	0	29602
36430	0	29832
36431	0	29908
36432	0	29872
36433	0	29768
36434	0	29640
36435	0	29524
36436	0	29412
36437	0	29384
36438	0	29376
36439	0	29372
36440	0	29440
36441	0	29488
36442	0	29542
36443	0	29648
36444	0	29785
36445	0	29856
36446	0	29896
36447	0	29908
36448	0	29966
36449	0	30028
36450	0	30096
36451	0	30116
36452	0	30016
36453	0	29880
36454	0	29804
36455	0	29768
36456	0	29792
36457	0	29836
36458	0	29920
36459	0	30032
36460	0	30164
36461	0	30232
36462	0	30240
36463	0	30172
36464	0	30120
36465	0	30188
36466	0	30280
36467	0	30352
36468	0	30412
36469	0	30448
36470	0	30504
36471	0	30596
36472	0	30664
36473	0	30668
36474	0	30632
36475	0	30560
36476	0	30504
36477	0	30504
36478	0	30512
36479	0	30492
36480	0	30452
36481	0	30440
36482	0	30488
36483	0	30544
36484	0	30612
36485	0	30712
36486	0	30836
36487	0	30964
36488	0	31056
36489	0	31092
36490	0	31137
36491	0	31164
36492	0	31168
36493	0	31136
36494	0	31076
36495	0	31004
36496	0	30972
36497	0	31000
36498	0	31072
36499	0	31152
36500	0	31172
36501	0	31224
36502	0	31232
36503	0	31260
36504	0	31352
36505	0	31448
36506	0	31548
36507	0	31604
36508	0	31624
36509	0	31633
36510	0	31652
36511	0	31684
36512	0	31696
36513	0	31624
36514	0	31492
36515	0	31396
36516	0	31372
36517	0	31416
36518	0	31488
36519	0	31532
36520	0	31576
36521	0	31616
36522	0	31640
36523	0	31684
36524	0	31748
36525	0	31800
36526	0	31860
36527	0	31916
36528	0	31956
36529	0	32036
36530	0	32160
36531	0	32228
36532	0	32280
36533	0	32256
36534	0	32208
36535	0	32132
36536	0	32080
36537	0	31988
36538	0	31904
36539	0	31832
36540	0	31814
36541	0	31900
36542	0	32048
36543	0	32204
36544	0	32352
36545	0	32512
36546	0	32576
36547	0	32620
36548	0	32644
36549	0	32604
36550	0	32584
36551	0	32568
36552	0	32528
36553	0	32460
36554	0	32444
36555	0	32488
36556	0	32576
36557	0	32648
36558	0	32656
36559	0	32628
36560	0	32604
36561	0	32624
36562	0	32692
36563	0	32744
36564	0	32828
36565	0	32924
36566	0	33060
36567	0	33144
36568	0	33188
36569	0	33216
36570	0	33260
36571	0	33296
36572	0	33302
36573	0	33300
36574	0	33312
36575	0	33296
36576	0	33300
36577	0	33332
36578	0	33344
36579	0	33344
36580	0	33356
36581	0	33392
36582	0	33462
36583	0	33600
36584	0	33740
36585	0	33904
36586	0	34036
36587	0	34164
36588	0	34280
36589	0	34356
36590	0	34396
36591	0	34400
36592	0	34408
36593	0	34400
36594	0	34396
36595	0	34428
36596	0	34492
36597	0	34580
36598	0	34648
36599	0	34641
36600	0	34664
36601	0	34716
36602	0	34800
36603	0	34908
36604	0	35024
36605	0	35136
36606	0	35292
36607	0	35512
36608	0	35748
36609	0	35984
36610	0	36136
36611	0	36181
36612	0	36172
36613	0	36168
36614	0	36148
36615	0	36136
36616	0	36128
36617	0	36212
36618	0	36360
36619	0	36492
36620	0	36616
36621	0	36720
36622	0	36836
36623	0	37032
36624	0	37268
36625	0	37456
36626	0	37612
36627	0	37760
36628	0	37904
36629	0	38048
36630	0	38192
36631	0	38248
36632	0	38220
36633	0	38204
36634	0	38236
36635	0	38224
36636	0	38188
36637	0	38208
36638	0	38304
36639	0	38460
36640	0	38648
36641	0	38796
36642	0	38892
36643	0	39000
36644	0	39084
36645	0	39176
36646	0	39332
36647	0	39488
36648	0	39668
36649	0	39796
36650	0	39880
36651	0	39952
36652	0	39996
36653	0	40004
36654	0	39986
36655	0	39948
36656	0	39888
36657	0	39812
36658	0	39752
36659	0	39728
36660	0	39712
36661	0	39704
36662	0	39736
36663	0	39760
36664	0	39744
36665	0	39660
36666	0	39552
36667	0	39408
36668	0	39268
36669	0	39124
36670	0	38916
36671	0	38696
36672	0	38444
36673	0	38172
36674	0	37880
36675	0	37568
36676	0	37272
36677	0	37008
36678	0	36732
36679	0	36408
36680	0	36044
36681	0	35688
36682	0	35328
36683	0	35008
36684	0	34748
36685	0	34552
36686	0	34444
36687	0	34308
36688	0	34072
36689	0	33764
36690	0	33505
36691	0	33284
36692	0	33076
36693	0	32808
36694	0	32464
36695	0	32096
36696	0	31800
36697	0	31608
36698	0	31432
36699	0	31200
36700	0	30900
36701	0	30644
36702	0	30440
36703	0	30288
36704	0	30188
36705	0	30056
36706	0	29956
36707	0	29848
36708	0	29748
36709	0	29684
36710	0	29572
36711	0	29440
36712	0	29205
36713	0	28924
36714	0	28688
36715	0	28528
36716	0	28370
36717	0	28270
36718	0	28172
36719	0	28044
36720	0	27924
36721	0	27828
36722	0	27784
36723	0	27792
36724	0	27792
36725	0	27776
36726	0	27752
36727	0	27776
36728	0	27830
36729	0	27792
36730	0	27744
36731	0	27708
36732	0	27684
36733	0	27680
36734	0	27600
36735	0	27472
36736	0	27392
36737	0	27360
36738	0	27336
36739	0	27304
36740	0	27284
36741	0	27332
36742	0	27420
36743	0	27509
36744	0	27566
36745	0	27638
36746	0	27704
36747	0	27732
36748	0	27744
36749	0	27768
36750	0	27780
36751	0	27756
36752	0	27712
36753	0	27617
36754	0	27536
36755	0	27452
36756	0	27408
36757	0	27428
36758	0	27444
36759	0	27436
36760	0	27420
36761	0	27440
36762	0	27420
36763	0	27420
36764	0	27536
36765	0	27664
36766	0	27820
36767	0	28004
36768	0	28248
36769	0	28424
36770	0	28458
36771	0	28366
36772	0	28236
36773	0	28164
36774	0	28100
36775	0	28032
36776	0	27958
36777	0	27980
36778	0	28116
36779	0	28260
36780	0	28308
36781	0	28332
36782	0	28356
36783	0	28412
36784	0	28476
36785	0	28542
36786	0	28588
36787	0	28636
36788	0	28712
36789	0	28828
36790	0	28900
36791	0	28952
36792	0	28949
36793	0	28968
36794	0	28952
36795	0	28868
36796	0	28800
36797	0	28720
36798	0	28608
36799	0	28522
36800	0	28522
36801	0	28544
36802	0	28616
36803	0	28748
36804	0	28940
36805	0	29142
36806	0	29324
36807	0	29536
36808	0	29624
36809	0	29652
36810	0	29696
36811	0	29728
36812	0	29752
36813	0	29760
36814	0	29736
36815	0	29704
36816	0	29632
36817	0	29588
36818	0	29528
36819	0	29450
36820	0	29434
36821	0	29492
36822	0	29573
36823	0	29708
36824	0	29796
36825	0	29872
36826	0	29968
36827	0	30052
36828	0	30128
36829	0	30172
36830	0	30220
36831	0	30272
36832	0	30328
36833	0	30416
36834	0	30424
36835	0	30388
36836	0	30300
36837	0	30248
36838	0	30236
36839	0	30278
36840	0	30368
36841	0	30432
36842	0	30468
36843	0	30484
36844	0	30592
36845	0	30728
36846	0	30808
36847	0	30818
36848	0	30788
36849	0	30804
36850	0	30878
36851	0	30960
36852	0	31028
36853	0	31052
36854	0	31008
36855	0	30928
36856	0	30864
36857	0	30852
36858	0	30852
36859	0	30836
36860	0	30836
36861	0	30844
36862	0	30856
36863	0	30932
36864	0	31038
36865	0	31092
36866	0	31152
36867	0	31208
36868	0	31292
36869	0	31392
36870	0	31472
36871	0	31460
36872	0	31360
36873	0	31288
36874	0	31204
36875	0	31116
36876	0	31108
36877	0	31152
36878	0	31228
36879	0	31221
36880	0	31204
36881	0	31204
36882	0	31244
36883	0	31336
36884	0	31448
36885	0	31520
36886	0	31534
36887	0	31540
36888	0	31608
36889	0	31664
36890	0	31700
36891	0	31738
36892	0	31796
36893	0	31824
36894	0	31800
36895	0	31692
36896	0	31608
36897	0	31588
36898	0	31550
36899	0	31500
36900	0	31508
36901	0	31560
36902	0	31576
36903	0	31572
36904	0	31544
36905	0	31556
36906	0	31592
36907	0	31584
36908	0	31564
36909	0	31600
36910	0	31656
36911	0	31736
36912	0	31760
36913	0	31728
36914	0	31672
36915	0	31568
36916	0	31464
36917	0	31380
36918	0	31300
36919	0	31276
36920	0	31348
36921	0	31388
36922	0	31376
36923	0	31376
36924	0	31416
36925	0	31524
36926	0	31600
36927	0	31648
36928	0	31672
36929	0	31664
36930	0	31660
36931	0	31616
36932	0	31536
36933	0	31470
36934	0	31416
36935	0	31388
36936	0	31324
36937	0	31328
36938	0	31356
36939	0	31344
36940	0	31338
36941	0	31352
36942	0	31404
36943	0	31536
36944	0	31709
36945	0	31828
36946	0	31840
36947	0	31808
36948	0	31772
36949	0	31764
36950	0	31744
36951	0	31740
36952	0	31740
36953	0	31712
36954	0	31604
36955	0	31480
36956	0	31384
36957	0	31316
36958	0	31264
36959	0	31244
36960	0	31216
36961	0	31260
36962	0	31368
36963	0	31445
36964	0	31456
36965	0	31486
36966	0	31512
36967	0	31576
36968	0	31676
36969	0	31740
36970	0	31738
36971	0	31700
36972	0	31654
36973	0	31648
36974	0	31640
36975	0	31612
36976	0	31554
36977	0	31504
36978	0	31464
36979	0	31460
36980	0	31512
36981	0	31612
36982	0	31700
36983	0	31776
36984	0	31844
36985	0	31928
36986	0	32008
36987	0	32048
36988	0	32080
36989	0	32076
36990	0	32016
36991	0	31956
36992	0	31920
36993	0	31868
36994	0	31820
36995	0	31796
36996	0	31736
36997	0	31660
36998	0	31616
36999	0	31576
37000	0	31524
37001	0	31492
37002	0	31516
37003	0	31576
37004	0	31628
37005	0	31668
37006	0	31756
37007	0	31904
37008	0	32016
37009	0	32072
37010	0	32116
37011	0	32120
37012	0	32080
37013	0	32010
37014	0	31896
37015	0	31784
37016	0	31700
37017	0	31748
37018	0	31836
37019	0	31840
37020	0	31810
37021	0	31772
37022	0	31792
37023	0	31900
37024	0	32012
37025	0	32092
37026	0	32140
37027	0	32148
37028	0	32114
37029	0	32104
37030	0	32108
37031	0	32128
37032	0	32188
37033	0	32196
37034	0	32160
37035	0	32140
37036	0	32160
37037	0	32168
37038	0	32120
37039	0	32024
37040	0	31932
37041	0	31920
37042	0	31961
37043	0	32044
37044	0	32104
37045	0	32120
37046	0	32140
37047	0	32116
37048	0	32120
37049	0	32184
37050	0	32216
37051	0	32216
37052	0	32180
37053	0	32172
37054	0	32172
37055	0	32192
37056	0	32200
37057	0	32200
37058	0	32136
37059	0	32016
37060	0	31912
37061	0	31880
37062	0	31924
37063	0	32000
37064	0	32048
37065	0	32124
37066	0	32276
37067	0	32440
37068	0	32510
37069	0	32508
37070	0	32488
37071	0	32476
37072	0	32428
37073	0	32352
37074	0	32240
37075	0	32152
37076	0	32124
37077	0	32144
37078	0	32092
37079	0	32016
37080	0	31996
37081	0	32052
37082	0	32196
37083	0	32320
37084	0	32394
37085	0	32456
37086	0	32488
37087	0	32484
37088	0	32480
37089	0	32496
37090	0	32504
37091	0	32480
37092	0	32422
37093	0	32396
37094	0	32372
37095	0	32350
37096	0	32340
37097	0	32356
37098	0	32352
37099	0	32340
37100	0	32364
37101	0	32468
37102	0	32512
37103	0	32564
37104	0	32588
37105	0	32604
37106	0	32628
37107	0	32640
37108	0	32656
37109	0	32672
37110	0	32660
37111	0	32636
37112	0	32588
37113	0	32556
37114	0	32544
37115	0	32504
37116	0	32448
37117	0	32397
37118	0	32380
37119	0	32348
37120	0	32380
37121	0	32464
37122	0	32508
37123	0	32525
37124	0	32608
37125	0	32692
37126	0	32748
37127	0	32772
37128	0	32832
37129	0	32908
37130	0	32968
37131	0	32964
37132	0	32932
37133	0	32880
37134	0	32784
37135	0	32700
37136	0	32612
37137	0	32540
37138	0	32472
37139	0	32360
37140	0	32316
37141	0	32426
37142	0	32596
37143	0	32696
37144	0	32720
37145	0	32764
37146	0	32804
37147	0	32848
37148	0	32856
37149	0	32852
37150	0	32848
37151	0	32848
37152	0	32868
37153	0	32880
37154	0	32832
37155	0	32756
37156	0	32660
37157	0	32604
37158	0	32548
37159	0	32512
37160	0	32524
37161	0	32576
37162	0	32672
37163	0	32760
37164	0	32820
37165	0	32900
37166	0	33016
37167	0	33080
37168	0	33156
37169	0	33208
37170	0	33192
37171	0	33188
37172	0	33170
37173	0	33148
37174	0	33093
37175	0	33052
37176	0	33020
37177	0	32976
37178	0	32896
37179	0	32792
37180	0	32744
37181	0	32744
37182	0	32762
37183	0	32772
37184	0	32800
37185	0	32848
37186	0	32832
37187	0	32820
37188	0	32824
37189	0	32848
37190	0	32888
37191	0	32948
37192	0	33060
37193	0	33148
37194	0	33108
37195	0	32948
37196	0	32760
37197	0	32632
37198	0	32544
37199	0	32472
37200	0	32432
37201	0	32476
37202	0	32572
37203	0	32708
37204	0	32852
37205	0	32964
37206	0	33124
37207	0	33325
37208	0	33472
37209	0	33548
37210	0	33536
37211	0	33508
37212	0	33492
37213	0	33516
37214	0	33568
37215	0	33644
37216	0	33768
37217	0	33884
37218	0	33908
37219	0	33956
37220	0	34036
37221	0	34140
37222	0	34296
37223	0	34456
37224	0	34612
37225	0	34768
37226	0	34936
37227	0	34980
37228	0	34920
37229	0	34800
37230	0	34668
37231	0	34632
37232	0	34692
37233	0	34670
37234	0	34576
37235	0	34504
37236	0	34516
37237	0	34692
37238	0	34928
37239	0	35056
37240	0	35180
37241	0	35284
37242	0	35408
37243	0	35600
37244	0	35852
37245	0	36152
37246	0	36380
37247	0	36528
37248	0	36748
37249	0	36952
37250	0	37124
37251	0	37332
37252	0	37492
37253	0	37488
37254	0	37320
37255	0	37048
37256	0	36708
37257	0	36356
37258	0	35996
37259	0	35660
37260	0	35418
37261	0	35260
37262	0	35168
37263	0	35060
37264	0	34964
37265	0	34944
37266	0	34928
37267	0	34888
37268	0	34872
37269	0	34836
37270	0	34724
37271	0	34608
37272	0	34548
37273	0	34492
37274	0	34368
37275	0	34200
37276	0	34024
37277	0	33872
37278	0	33754
37279	0	33620
37280	0	33504
37281	0	33392
37282	0	33304
37283	0	33236
37284	0	33232
37285	0	33248
37286	0	33268
37287	0	33220
37288	0	33088
37289	0	32996
37290	0	32920
37291	0	32857
37292	0	32716
37293	0	32512
37294	0	32308
37295	0	32144
37296	0	32012
37297	0	31952
37298	0	31928
37299	0	31896
37300	0	31916
37301	0	31988
37302	0	32064
37303	0	32076
37304	0	32004
37305	0	31952
37306	0	31936
37307	0	31932
37308	0	31924
37309	0	31940
37310	0	31996
37311	0	32088
37312	0	32160
37313	0	32172
37314	0	32088
37315	0	31976
37316	0	31952
37317	0	32016
37318	0	32033
37319	0	32004
37320	0	31944
37321	0	31884
37322	0	31844
37323	0	31808
37324	0	31944
37325	0	32156
37326	0	32244
37327	0	32264
37328	0	32256
37329	0	32248
37330	0	32240
37331	0	32200
37332	0	32216
37333	0	32212
37334	0	32176
37335	0	32145
37336	0	32096
37337	0	32008
37338	0	31904
37339	0	31856
37340	0	31828
37341	0	31876
37342	0	31937
37343	0	31956
37344	0	31976
37345	0	32072
37346	0	32172
37347	0	32234
37348	0	32268
37349	0	32360
37350	0	32480
37351	0	32516
37352	0	32513
37353	0	32494
37354	0	32400
37355	0	32242
37356	0	32124
37357	0	32044
37358	0	31968
37359	0	31904
37360	0	31884
37361	0	31896
37362	0	31892
37363	0	31928
37364	0	31976
37365	0	32080
37366	0	32260
37367	0	32540
37368	0	32969
37369	0	33520
37370	0	33960
37371	0	34396
37372	0	34920
37373	0	35464
37374	0	35900
37375	0	36432
37376	0	37272
37377	0	38336
37378	0	39488
37379	0	40840
37380	0	42600
37381	0	44628
37382	0	46760
37383	0	48872
37384	0	50992
37385	0	53104
37386	0	55280
37387	0	57636
37388	0	60196
37389	0	62444
37390	0	63680
37391	0	64320
37392	0	64616
37393	0	64736
37394	0	64744
37395	0	64696
37396	0	64636
37397	0	64548
37398	0	64440
37399	0	64328
37400	0	64236
37401	0	61136
37402	0	58156
37403	0	55164
37404	0	52056
37405	0	48860
37406	0	45804
37407	0	42664
37408	0	39448
37409	0	36304
37410	0	33552
37411	0	31364
37412	0	29744
37413	0	28604
37414	0	27836
37415	0	27232
37416	0	26616
37417	0	25928
37418	0	25288
37419	0	24776
37420	0	24448
37421	0	24206
37422	0	24034
37423	0	23944
37424	0	23996
37425	0	24264
37426	0	24680
37427	0	25120
37428	0	25588
37429	0	26128
37430	0	26656
37431	0	27152
37432	0	27588
37433	0	27921
37434	0	28148
37435	0	28352
37436	0	28628
37437	0	28936
37438	0	29260
37439	0	29528
37440	0	29684
37441	0	29688
37442	0	29616
37443	0	29552
37444	0	29520
37445	0	29528
37446	0	29552
37447	0	29538
37448	0	29516
37449	0	29516
37450	0	29581
37451	0	29612
37452	0	29606
37453	0	29560
37454	0	29548
37455	0	29544
37456	0	29500
37457	0	29432
37458	0	29388
37459	0	29360
37460	0	29332
37461	0	29328
37462	0	29408
37463	0	29506
37464	0	29592
37465	0	29660
37466	0	29716
37467	0	29760
37468	0	29808
37469	0	29930
37470	0	30032
37471	0	30116
37472	0	30152
37473	0	30104
37474	0	30004
37475	0	29860
37476	0	29792
37477	0	29792
37478	0	29848
37479	0	29908
37480	0	30008
37481	0	30068
37482	0	30124
37483	0	30136
37484	0	30156
37485	0	30200
37486	0	30262
37487	0	30304
37488	0	30357
37489	0	30408
37490	0	30465
37491	0	30496
37492	0	30478
37493	0	30460
37494	0	30484
37495	0	30524
37496	0	30520
37497	0	30516
37498	0	30522
37499	0	30500
37500	0	30544
37501	0	30632
37502	0	30740
37503	0	30820
37504	0	30888
37505	0	30964
37506	0	31044
37507	0	31112
37508	0	31196
37509	0	31300
37510	0	31364
37511	0	31372
37512	0	31412
37513	0	31440
37514	0	31404
37515	0	31320
37516	0	31256
37517	0	31228
37518	0	31200
37519	0	31200
37520	0	31249
37521	0	31340
37522	0	31400
37523	0	31481
37524	0	31540
37525	0	31568
37526	0	31596
37527	0	31686
37528	0	31776
37529	0	31800
37530	0	31800
37531	0	31750
37532	0	31764
37533	0	31812
37534	0	31856
37535	0	31857
37536	0	31836
37537	0	31792
37538	0	31764
37539	0	31780
37540	0	31866
37541	0	31960
37542	0	32056
37543	0	32144
37544	0	32252
37545	0	32288
37546	0	32320
37547	0	32352
37548	0	32392
37549	0	32448
37550	0	32456
37551	0	32446
37552	0	32424
37553	0	32356
37554	0	32332
37555	0	32344
37556	0	32372
37557	0	32420
37558	0	32484
37559	0	32516
37560	0	32496
37561	0	32452
37562	0	32444
37563	0	32470
37564	0	32520
37565	0	32644
37566	0	32768
37567	0	32824
37568	0	32892
37569	0	32992
37570	0	33112
37571	0	33208
37572	0	33216
37573	0	33224
37574	0	33248
37575	0	33220
37576	0	33156
37577	0	33148
37578	0	33132
37579	0	33152
37580	0	33192
37581	0	33272
37582	0	33320
37583	0	33364
37584	0	33468
37585	0	33604
37586	0	33725
37587	0	33832
37588	0	33896
37589	0	33916
37590	0	33896
37591	0	33864
37592	0	33869
37593	0	33914
37594	0	33968
37595	0	34008
37596	0	34088
37597	0	34204
37598	0	34284
37599	0	34328
37600	0	34368
37601	0	34400
37602	0	34428
37603	0	34424
37604	0	34460
37605	0	34544
37606	0	34684
37607	0	34860
37608	0	35008
37609	0	35144
37610	0	35236
37611	0	35336
37612	0	35344
37613	0	35312
37614	0	35320
37615	0	35364
37616	0	35452
37617	0	35508
37618	0	35512
37619	0	35528
37620	0	35612
37621	0	35740
37622	0	35864
37623	0	36028
37624	0	36256
37625	0	36392
37626	0	36516
37627	0	36633
37628	0	36788
37629	0	36952
37630	0	37088
37631	0	37168
37632	0	37232
37633	0	37296
37634	0	37400
37635	0	37472
37636	0	37472
37637	0	37468
37638	0	37484
37639	0	37526
37640	0	37532
37641	0	37568
37642	0	37644
37643	0	37720
37644	0	37820
37645	0	38034
37646	0	38308
37647	0	38560
37648	0	38784
37649	0	38948
37650	0	39072
37651	0	39164
37652	0	39200
37653	0	39208
37654	0	39220
37655	0	39236
37656	0	39316
37657	0	39416
37658	0	39516
37659	0	39576
37660	0	39628
37661	0	39664
37662	0	39712
37663	0	39756
37664	0	39856
37665	0	39968
37666	0	40076
37667	0	40160
37668	0	40204
37669	0	40208
37670	0	40320
37671	0	40476
37672	0	40528
37673	0	40448
37674	0	40248
37675	0	39952
37676	0	39664
37677	0	39348
37678	0	39084
37679	0	38848
37680	0	38700
37681	0	38560
37682	0	38432
37683	0	38332
37684	0	38148
37685	0	37920
37686	0	37656
37687	0	37432
37688	0	37176
37689	0	36944
37690	0	36632
37691	0	36292
37692	0	35980
37693	0	35684
37694	0	35364
37695	0	35070
37696	0	34744
37697	0	34368
37698	0	33976
37699	0	33585
37700	0	33220
37701	0	32916
37702	0	32698
37703	0	32532
37704	0	32400
37705	0	32276
37706	0	32108
37707	0	31904
37708	0	31660
37709	0	31421
37710	0	31116
37711	0	30792
37712	0	30528
37713	0	30300
37714	0	30104
37715	0	29900
37716	0	29716
37717	0	29588
37718	0	29504
37719	0	29384
37720	0	29280
37721	0	29176
37722	0	29044
37723	0	28868
37724	0	28676
37725	0	28532
37726	0	28410
37727	0	28360
37728	0	28348
37729	0	28356
37730	0	28328
37731	0	28288
37732	0	28224
37733	0	28098
37734	0	27918
37735	0	27720
37736	0	27492
37737	0	27284
37738	0	27128
37739	0	26960
37740	0	26832
37741	0	26800
37742	0	26908
37743	0	27096
37744	0	27312
37745	0	27436
37746	0	27508
37747	0	27572
37748	0	27664
37749	0	27737
37750	0	27721
37751	0	27592
37752	0	27450
37753	0	27332
37754	0	27284
37755	0	27276
37756	0	27278
37757	0	27249
37758	0	27252
37759	0	27248
37760	0	27252
37761	0	27324
37762	0	27380
37763	0	27396
37764	0	27408
37765	0	27444
37766	0	27464
37767	0	27476
37768	0	27532
37769	0	27616
37770	0	27788
37771	0	27940
37772	0	27996
37773	0	28025
37774	0	28016
37775	0	27936
37776	0	27854
37777	0	27792
37778	0	27760
37779	0	27744
37780	0	27720
37781	0	27764
37782	0	27820
37783	0	27898
37784	0	27988
37785	0	28088
37786	0	28221
37787	0	28316
37788	0	28384
37789	0	28452
37790	0	28500
37791	0	28536
37792	0	28512
37793	0	28460
37794	0	28392
37795	0	28312
37796	0	28328
37797	0	28354
37798	0	28310
37799	0	28228
37800	0	28200
37801	0	28232
37802	0	28364
37803	0	28516
37804	0	28628
37805	0	28700
37806	0	28812
37807	0	28956
37808	0	29088
37809	0	29152
37810	0	29104
37811	0	29002
37812	0	28906
37813	0	28848
37814	0	28817
37815	0	28784
37816	0	28728
37817	0	28704
37818	0	28748
37819	0	28836
37820	0	28936
37821	0	29036
37822	0	29105
37823	0	29132
37824	0	29168
37825	0	29228
37826	0	29344
37827	0	29436
37828	0	29484
37829	0	29516
37830	0	29508
37831	0	29480
37832	0	29452
37833	0	29449
37834	0	29424
37835	0	29440
37836	0	29480
37837	0	29472
37838	0	29496
37839	0	29584
37840	0	29696
37841	0	29768
37842	0	29792
37843	0	29816
37844	0	29896
37845	0	29968
37846	0	30036
37847	0	30076
37848	0	30132
37849	0	30192
37850	0	30272
37851	0	30304
37852	0	30324
37853	0	30328
37854	0	30324
37855	0	30300
37856	0	30264
37857	0	30232
37858	0	30192
37859	0	30150
37860	0	30108
37861	0	30144
37862	0	30282
37863	0	30412
37864	0	30556
37865	0	30684
37866	0	30808
37867	0	30908
37868	0	30968
37869	0	30964
37870	0	30908
37871	0	30856
37872	0	30832
37873	0	30780
37874	0	30724
37875	0	30640
37876	0	30516
37877	0	30436
37878	0	30404
37879	0	30376
37880	0	30488
37881	0	30764
37882	0	31120
37883	0	31400
37884	0	31528
37885	0	31544
37886	0	31500
37887	0	31460
37888	0	31432
37889	0	31416
37890	0	31424
37891	0	31392
37892	0	31352
37893	0	31332
37894	0	31336
37895	0	31332
37896	0	31224
37897	0	31060
37898	0	30976
37899	0	31008
37900	0	31116
37901	0	31261
37902	0	31352
37903	0	31396
37904	0	31432
37905	0	31458
37906	0	31488
37907	0	31496
37908	0	31516
37909	0	31528
37910	0	31512
37911	0	31508
37912	0	31512
37913	0	31512
37914	0	31436
37915	0	31372
37916	0	31340
37917	0	31280
37918	0	31224
37919	0	31168
37920	0	31168
37921	0	31208
37922	0	31296
37923	0	31428
37924	0	31480
37925	0	31496
37926	0	31512
37927	0	31540
37928	0	31564
37929	0	31572
37930	0	31548
37931	0	31512
37932	0	31476
37933	0	31480
37934	0	31520
37935	0	31552
37936	0	31556
37937	0	31536
37938	0	31492
37939	0	31428
37940	0	31389
37941	0	31356
37942	0	31280
37943	0	31216
37944	0	31202
37945	0	31244
37946	0	31364
37947	0	31456
37948	0	31560
37949	0	31648
37950	0	31724
37951	0	31714
37952	0	31641
37953	0	31520
37954	0	31456
37955	0	31496
37956	0	31520
37957	0	31460
37958	0	31456
37959	0	31464
37960	0	31440
37961	0	31376
37962	0	31328
37963	0	31365
37964	0	31477
37965	0	31632
37966	0	31701
37967	0	31672
37968	0	31632
37969	0	31580
37970	0	31536
37971	0	31484
37972	0	31488
37973	0	31532
37974	0	31548
37975	0	31556
37976	0	31584
37977	0	31588
37978	0	31590
37979	0	31568
37980	0	31584
37981	0	31540
37982	0	31444
37983	0	31360
37984	0	31384
37985	0	31488
37986	0	31604
37987	0	31644
37988	0	31632
37989	0	31652
37990	0	31700
37991	0	31712
37992	0	31688
37993	0	31696
37994	0	31632
37995	0	31536
37996	0	31536
37997	0	31536
37998	0	31520
37999	0	31480
38000	0	31444
38001	0	31432
38002	0	31460
38003	0	31516
38004	0	31552
38005	0	31620
38006	0	31752
38007	0	31844
38008	0	31878
38009	0	31928
38010	0	31972
38011	0	32012
38012	0	31992
38013	0	31968
38014	0	31940
38015	0	31844
38016	0	31756
38017	0	31688
38018	0	31616
38019	0	31584
38020	0	31556
38021	0	31564
38022	0	31580
38023	0	31592
38024	0	31636
38025	0	31721
38026	0	31856
38027	0	31936
38028	0	31944
38029	0	31969
38030	0	32000
38031	0	32004
38032	0	31984
38033	0	31972
38034	0	31936
38035	0	31908
38036	0	31892
38037	0	31916
38038	0	32048
38039	0	32120
38040	0	32100
38041	0	32048
38042	0	31988
38043	0	31956
38044	0	31972
38045	0	32020
38046	0	32080
38047	0	32076
38048	0	32124
38049	0	32232
38050	0	32330
38051	0	32384
38052	0	32376
38053	0	32320
38054	0	32264
38055	0	32212
38056	0	32116
38057	0	31992
38058	0	31892
38059	0	31856
38060	0	31876
38061	0	31920
38062	0	31960
38063	0	32004
38064	0	32068
38065	0	32136
38066	0	32176
38067	0	32172
38068	0	32136
38069	0	32096
38070	0	32068
38071	0	32028
38072	0	32005
38073	0	31980
38074	0	31968
38075	0	31968
38076	0	32016
38077	0	32068
38078	0	32104
38079	0	32088
38080	0	32088
38081	0	32160
38082	0	32240
38083	0	32342
38084	0	32476
38085	0	32528
38086	0	32524
38087	0	32520
38088	0	32544
38089	0	32604
38090	0	32612
38091	0	32640
38092	0	32672
38093	0	32700
38094	0	32660
38095	0	32516
38096	0	32344
38097	0	32264
38098	0	32204
38099	0	32164
38100	0	32092
38101	0	32036
38102	0	32064
38103	0	32180
38104	0	32324
38105	0	32500
38106	0	32624
38107	0	32724
38108	0	32776
38109	0	32800
38110	0	32812
38111	0	32848
38112	0	32784
38113	0	32696
38114	0	32624
38115	0	32524
38116	0	32448
38117	0	32428
38118	0	32436
38119	0	32416
38120	0	32380
38121	0	32368
38122	0	32376
38123	0	32396
38124	0	32464
38125	0	32562
38126	0	32692
38127	0	32784
38128	0	32848
38129	0	32920
38130	0	33016
38131	0	33072
38132	0	33072
38133	0	33004
38134	0	32856
38135	0	32700
38136	0	32592
38137	0	32556
38138	0	32532
38139	0	32484
38140	0	32412
38141	0	32412
38142	0	32476
38143	0	32536
38144	0	32548
38145	0	32572
38146	0	32680
38147	0	32768
38148	0	32832
38149	0	32832
38150	0	32816
38151	0	32876
38152	0	32960
38153	0	32984
38154	0	32976
38155	0	32936
38156	0	32856
38157	0	32808
38158	0	32800
38159	0	32752
38160	0	32692
38161	0	32656
38162	0	32648
38163	0	32648
38164	0	32672
38165	0	32712
38166	0	32740
38167	0	32792
38168	0	32836
38169	0	32864
38170	0	32864
38171	0	32848
38172	0	32857
38173	0	32848
38174	0	32808
38175	0	32816
38176	0	32820
38177	0	32752
38178	0	32680
38179	0	32620
38180	0	32604
38181	0	32596
38182	0	32596
38183	0	32624
38184	0	32712
38185	0	32848
38186	0	32992
38187	0	33096
38188	0	33140
38189	0	33144
38190	0	33168
38191	0	33196
38192	0	33196
38193	0	33168
38194	0	33152
38195	0	33104
38196	0	33032
38197	0	32896
38198	0	32712
38199	0	32580
38200	0	32500
38201	0	32436
38202	0	32420
38203	0	32420
38204	0	32460
38205	0	32564
38206	0	32744
38207	0	32960
38208	0	33096
38209	0	33128
38210	0	33132
38211	0	33180
38212	0	33280
38213	0	33352
38214	0	33409
38215	0	33464
38216	0	33528
38217	0	33660
38218	0	33784
38219	0	33924
38220	0	34044
38221	0	34144
38222	0	34208
38223	0	34304
38224	0	34453
38225	0	34592
38226	0	34692
38227	0	34792
38228	0	34892
38229	0	34916
38230	0	34896
38231	0	34788
38232	0	34696
38233	0	34644
38234	0	34540
38235	0	34412
38236	0	34308
38237	0	34296
38238	0	34388
38239	0	34520
38240	0	34712
38241	0	34884
38242	0	35048
38243	0	35192
38244	0	35372
38245	0	35644
38246	0	35980
38247	0	36256
38248	0	36492
38249	0	36704
38250	0	36944
38251	0	37208
38252	0	37408
38253	0	37528
38254	0	37560
38255	0	37412
38256	0	37104
38257	0	36728
38258	0	36348
38259	0	35956
38260	0	35636
38261	0	35420
38262	0	35320
38263	0	35280
38264	0	35224
38265	0	35128
38266	0	35024
38267	0	34952
38268	0	34944
38269	0	34972
38270	0	34952
38271	0	34844
38272	0	34732
38273	0	34560
38274	0	34372
38275	0	34232
38276	0	34072
38277	0	33876
38278	0	33690
38279	0	33580
38280	0	33560
38281	0	33528
38282	0	33488
38283	0	33480
38284	0	33468
38285	0	33404
38286	0	33290
38287	0	33132
38288	0	32984
38289	0	32892
38290	0	32796
38291	0	32692
38292	0	32576
38293	0	32416
38294	0	32220
38295	0	32048
38296	0	31936
38297	0	31857
38298	0	31808
38299	0	31764
38300	0	31716
38301	0	31664
38302	0	31636
38303	0	31656
38304	0	31704
38305	0	31732
38306	0	31796
38307	0	31901
38308	0	31948
38309	0	31956
38310	0	31968
38311	0	31976
38312	0	31956
38313	0	31916
38314	0	31820
38315	0	31716
38316	0	31672
38317	0	31668
38318	0	31608
38319	0	31558
38320	0	31544
38321	0	31528
38322	0	31498
38323	0	31404
38324	0	31332
38325	0	31336
38326	0	31448
38327	0	31600
38328	0	31760
38329	0	31936
38330	0	32076
38331	0	32060
38332	0	31956
38333	0	31880
38334	0	31804
38335	0	31680
38336	0	31544
38337	0	31464
38338	0	31424
38339	0	31434
38340	0	31456
38341	0	31438
38342	0	31364
38343	0	31340
38344	0	31400
38345	0	31480
38346	0	31560
38347	0	31700
38348	0	31872
38349	0	32040
38350	0	32216
38351	0	32336
38352	0	32376
38353	0	32344
38354	0	32256
38355	0	32140
38356	0	32056
38357	0	32020
38358	0	32009
38359	0	31936
38360	0	31772
38361	0	31596
38362	0	31476
38363	0	31460
38364	0	31512
38365	0	31572
38366	0	31688
38367	0	31768
38368	0	31756
38369	0	31756
38370	0	31909
38371	0	32220
38372	0	32632
38373	0	33032
38374	0	33460
38375	0	33960
38376	0	34512
38377	0	35132
38378	0	35864
38379	0	36780
38380	0	37804
38381	0	38868
38382	0	40148
38383	0	41900
38384	0	44008
38385	0	46168
38386	0	48252
38387	0	50256
38388	0	52148
38389	0	54184
38390	0	56436
38391	0	58960
38392	0	61616
38393	0	63344
38394	0	64232
38395	0	64676
38396	0	64872
38397	0	64952
38398	0	64916
38399	0	64860
38400	0	64788
38401	0	64676
38402	0	64580
38403	0	62808
38404	0	60220
38405	0	57568
38406	0	54680
38407	0	51648
38408	0	48524
38409	0	45452
38410	0	42352
38411	0	39224
38412	0	36104
38413	0	33320
38414	0	31124
38415	0	29488
38416	0	28336
38417	0	27616
38418	0	27128
38419	0	26632
38420	0	26030
38421	0	25432
38422	0	24992
38423	0	24668
38424	0	24364
38425	0	24153
38426	0	24096
38427	0	24140
38428	0	24316
38429	0	24604
38430	0	24984
38431	0	25440
38432	0	25948
38433	0	26412
38434	0	26816
38435	0	27212
38436	0	27617
38437	0	28020
38438	0	28376
38439	0	28704
38440	0	29016
38441	0	29304
38442	0	29552
38443	0	29720
38444	0	29836
38445	0	29876
38446	0	29884
38447	0	29956
38448	0	30018
38449	0	30060
38450	0	30092
38451	0	30080
38452	0	30016
38453	0	29962
38454	0	29884
38455	0	29852
38456	0	29780
38457	0	29704
38458	0	29676
38459	0	29680
38460	0	29700
38461	0	29736
38462	0	29732
38463	0	29728
38464	0	29816
38465	0	29888
38466	0	29948
38467	0	29996
38468	0	30076
38469	0	30156
38470	0	30208
38471	0	30208
38472	0	30170
38473	0	30112
38474	0	30108
38475	0	30130
38476	0	30156
38477	0	30188
38478	0	30252
38479	0	30300
38480	0	30320
38481	0	30324
38482	0	30288
38483	0	30272
38484	0	30336
38485	0	30488
38486	0	30632
38487	0	30724
38488	0	30804
38489	0	30876
38490	0	30908
38491	0	30872
38492	0	30848
38493	0	30840
38494	0	30844
38495	0	30875
38496	0	30880
38497	0	30836
38498	0	30765
38499	0	30764
38500	0	30820
38501	0	30904
38502	0	30988
38503	0	31065
38504	0	31168
38505	0	31332
38506	0	31464
38507	0	31518
38508	0	31564
38509	0	31624
38510	0	31676
38511	0	31664
38512	0	31612
38513	0	31580
38514	0	31540
38515	0	31480
38516	0	31416
38517	0	31376
38518	0	31370
38519	0	31400
38520	0	31472
38521	0	31576
38522	0	31668
38523	0	31760
38524	0	31888
38525	0	32008
38526	0	32060
38527	0	32092
38528	0	32104
38529	0	32100
38530	0	32144
38531	0	32172
38532	0	32176
38533	0	32192
