# OpenSignals Text File Format
# {"00:07:80:4D:2E:AD": {"sensor": ["EMG", "EMG", "XYZ"], "device name": "00:07:80:4D:2E:AD", "column": ["nSeq", "DI", "CH1", "CH2", "CH3"], "sync interval": 2, "time": "15:29:7.718", "comments": "no action | ch1_flexor_digitorum_superficialis ch2_aductor_policis ch3_acc_z [trial 4]", "device connection": "BTH00:07:80:4D:2E:AD", "channels": [1, 2, 3], "keywords": "", "mode": 0, "digital IO": [0, 1], "firmware version": 773, "device": "biosignalsplux", "position": 0, "sampling rate": 1000, "label": ["CH1", "CH2", "CH3"], "resolution": [16, 16, 16], "date": "2019-1-23", "special": [{}, {}, {}]}}
# EndOfHeader
0	0	32885	32937	35284	
1	0	32782	32888	35292	
2	0	32716	32938	35265	
3	0	32744	32946	35290	
4	0	32778	33011	35301	
5	0	32728	32948	35304	
6	0	32688	33000	35310	
7	0	32640	32999	35327	
8	0	32668	32852	35335	
9	0	32631	32856	35334	
10	0	32732	32804	35345	
11	0	32780	32766	35340	
12	0	32744	32838	35316	
13	0	32820	32732	35318	
14	0	32944	32729	35328	
15	0	32848	32856	35297	
16	0	32892	32653	35308	
17	0	32893	32760	35304	
18	0	32940	32692	35281	
19	0	32904	32736	35287	
20	0	32872	32852	35288	
21	0	32832	32917	35272	
22	0	32856	33010	35268	
23	0	32710	33030	35289	
24	0	32740	33060	35292	
25	0	32660	33026	35311	
26	0	32604	32908	35321	
27	0	32732	32900	35316	
28	0	32688	32954	35332	
29	0	32712	32830	35327	
30	0	32720	32804	35332	
31	0	32738	32693	35314	
32	0	32825	32714	35294	
33	0	32824	32728	35288	
34	0	32812	32693	35269	
35	0	32896	32788	35277	
36	0	32892	32728	35276	
37	0	32852	32780	35293	
38	0	32810	32724	35284	
39	0	32870	32884	35282	
40	0	32800	32724	35278	
41	0	32861	32910	35268	
42	0	32784	32895	35284	
43	0	32760	32966	35286	
44	0	32724	32965	35286	
45	0	32756	32926	35276	
46	0	32646	32970	35292	
47	0	32682	32902	35312	
48	0	32732	32836	35311	
49	0	32694	32852	35300	
50	0	32728	32737	35292	
51	0	32696	32806	35271	
52	0	32708	32801	35281	
53	0	32824	32716	35276	
54	0	32849	32692	35264	
55	0	32928	32807	35270	
56	0	32956	32756	35284	
57	0	32884	32758	35296	
58	0	32816	32816	35264	
59	0	32908	32748	35274	
60	0	32820	32920	35284	
61	0	32808	32751	35305	
62	0	32832	32956	35308	
63	0	32728	33021	35297	
64	0	32732	32988	35329	
65	0	32814	32972	35340	
66	0	32652	33020	35329	
67	0	32710	32921	35335	
68	0	32676	32844	35335	
69	0	32704	32775	35345	
70	0	32596	32804	35332	
71	0	32676	32737	35322	
72	0	32732	32736	35305	
73	0	32828	32836	35284	
74	0	32896	32740	35284	
75	0	32968	32824	35285	
76	0	32880	32839	35308	
77	0	32898	32724	35285	
78	0	32896	32823	35296	
79	0	32904	32754	35303	
80	0	32848	32756	35296	
81	0	32844	32856	35308	
82	0	32788	32900	35322	
83	0	32756	32954	35292	
84	0	32708	32929	35296	
85	0	32760	32965	35335	
86	0	32657	32913	35340	
87	0	32673	32879	35324	
88	0	32656	32801	35318	
89	0	32656	32808	35308	
90	0	32696	32896	35274	
91	0	32776	32700	35273	
92	0	32764	32760	35277	
93	0	32896	32712	35287	
94	0	32832	32689	35280	
95	0	32948	32816	35308	
96	0	32881	32768	35296	
97	0	32836	32701	35297	
98	0	32844	32844	35288	
99	0	32912	32816	35300	
100	0	32844	32820	35296	
101	0	32852	32857	35288	
102	0	32804	32917	35312	
103	0	32788	32885	35316	
104	0	32680	33062	35324	
105	0	32661	33020	35340	
106	0	32645	33069	35352	
107	0	32712	32848	35344	
108	0	32668	32782	35325	
109	0	32664	32871	35340	
110	0	32726	32788	35316	
111	0	32769	32788	35313	
112	0	32749	32784	35284	
113	0	32840	32809	35293	
114	0	32920	32829	35316	
115	0	32948	32729	35308	
116	0	32857	32744	35322	
117	0	32816	32793	35292	
118	0	32868	32668	35270	
119	0	32848	32792	35280	
120	0	32876	32882	35284	
121	0	32828	32840	35298	
122	0	32780	32996	35316	
123	0	32712	32924	35296	
124	0	32764	32944	35308	
125	0	32656	32966	35308	
126	0	32656	32817	35329	
127	0	32736	32908	35314	
128	0	32716	32841	35296	
129	0	32680	32848	35268	
130	0	32756	32821	35271	
131	0	32812	32772	35276	
132	0	32750	32840	35266	
133	0	32880	32844	35250	
134	0	32908	32696	35252	
135	0	32824	32720	35268	
136	0	32924	32657	35268	
137	0	32832	32596	35277	
138	0	32848	32729	35264	
139	0	32848	32762	35256	
140	0	32880	32793	35242	
141	0	32817	32920	35240	
142	0	32812	32868	35257	
143	0	32714	32951	35264	
144	0	32732	33050	35300	
145	0	32716	33096	35296	
146	0	32672	32974	35268	
147	0	32730	32921	35300	
148	0	32696	32766	35272	
149	0	32662	32885	35280	
150	0	32664	32844	35290	
151	0	32728	32924	35284	
152	0	32708	32858	35308	
153	0	32864	32666	35300	
154	0	32850	32668	35308	
155	0	32976	32663	35292	
156	0	32912	32770	35284	
157	0	32878	32739	35264	
158	0	32837	32796	35264	
159	0	32972	32785	35261	
160	0	32820	32885	35260	
161	0	32744	32910	35272	
162	0	32808	32868	35289	
163	0	32752	33013	35296	
164	0	32784	32983	35333	
165	0	32703	32973	35340	
166	0	32692	32985	35333	
167	0	32676	32869	35328	
168	0	32704	32900	35344	
169	0	32645	32764	35332	
170	0	32712	32692	35348	
171	0	32764	32686	35343	
172	0	32792	32752	35346	
173	0	32850	32620	35316	
174	0	32840	32753	35313	
175	0	32912	32800	35310	
176	0	32926	32699	35300	
177	0	32930	32714	35301	
178	0	32954	32814	35296	
179	0	32912	32746	35308	
180	0	32818	32740	35320	
181	0	32788	32932	35335	
182	0	32804	32973	35321	
183	0	32733	32916	35341	
184	0	32732	32980	35330	
185	0	32680	33044	35328	
186	0	32684	32956	35340	
187	0	32677	32848	35357	
188	0	32660	32970	35352	
189	0	32668	32810	35348	
190	0	32724	32822	35341	
191	0	32780	32908	35317	
192	0	32740	32716	35305	
193	0	32852	32709	35296	
194	0	32836	32741	35302	
195	0	32896	32756	35284	
196	0	32888	32762	35288	
197	0	32909	32768	35280	
198	0	32904	32742	35281	
199	0	32900	32845	35272	
200	0	32918	32820	35249	
201	0	32821	32836	35256	
202	0	32848	32870	35286	
203	0	32708	32876	35310	
204	0	32712	32982	35305	
205	0	32708	32996	35316	
206	0	32673	32924	35314	
207	0	32593	32896	35301	
208	0	32644	32849	35324	
209	0	32694	32832	35348	
210	0	32744	32892	35348	
211	0	32756	32834	35317	
212	0	32824	32688	35320	
213	0	32804	32839	35320	
214	0	32800	32693	35317	
215	0	32860	32732	35327	
216	0	32824	32809	35320	
217	0	32856	32740	35282	
218	0	32864	32711	35272	
219	0	32960	32712	35274	
220	0	32881	32804	35290	
221	0	32780	32805	35288	
222	0	32852	32957	35296	
223	0	32780	32932	35296	
224	0	32800	33082	35324	
225	0	32826	33084	35309	
226	0	32668	33005	35313	
227	0	32724	33008	35329	
228	0	32636	32968	35312	
229	0	32664	32820	35324	
230	0	32716	32852	35316	
231	0	32728	32706	35308	
232	0	32862	32824	35313	
233	0	32824	32740	35316	
234	0	32804	32714	35304	
235	0	32828	32840	35294	
236	0	32952	32765	35308	
237	0	32924	32738	35300	
238	0	32870	32790	35304	
239	0	32916	32748	35296	
240	0	32866	32800	35281	
241	0	32808	32732	35280	
242	0	32789	32863	35280	
243	0	32788	32910	35300	
244	0	32780	32864	35296	
245	0	32668	32964	35315	
246	0	32652	32911	35335	
247	0	32696	32840	35332	
248	0	32632	32894	35310	
249	0	32736	32844	35325	
250	0	32692	32829	35324	
251	0	32676	32748	35300	
252	0	32796	32756	35305	
253	0	32836	32708	35300	
254	0	32876	32688	35304	
255	0	32836	32729	35292	
256	0	32910	32794	35278	
257	0	32916	32677	35276	
258	0	32824	32760	35284	
259	0	32888	32868	35307	
260	0	32880	32845	35279	
261	0	32805	32848	35281	
262	0	32816	32986	35300	
263	0	32742	32944	35324	
264	0	32840	33021	35328	
265	0	32708	32998	35313	
266	0	32632	32999	35332	
267	0	32672	33036	35313	
268	0	32684	32921	35317	
269	0	32696	32988	35301	
270	0	32708	32724	35301	
271	0	32777	32716	35300	
272	0	32756	32765	35294	
273	0	32800	32688	35299	
274	0	32836	32720	35316	
275	0	32944	32833	35311	
276	0	32950	32674	35297	
277	0	32944	32686	35300	
278	0	32900	32688	35284	
279	0	32881	32697	35296	
280	0	32817	32704	35284	
281	0	32781	32889	35288	
282	0	32844	32836	35272	
283	0	32756	32866	35296	
284	0	32708	33060	35312	
285	0	32768	32954	35320	
286	0	32600	32943	35306	
287	0	32692	32956	35316	
288	0	32684	32774	35324	
289	0	32705	32870	35334	
290	0	32677	32817	35329	
291	0	32704	32814	35308	
292	0	32740	32752	35308	
293	0	32804	32748	35296	
294	0	32874	32788	35294	
295	0	32884	32840	35308	
296	0	32886	32752	35310	
297	0	32884	32724	35284	
298	0	32888	32805	35280	
299	0	32889	32744	35273	
300	0	32856	32832	35276	
301	0	32824	32858	35284	
302	0	32772	33002	35293	
303	0	32744	33076	35305	
304	0	32756	32932	35320	
305	0	32722	32970	35320	
306	0	32672	32992	35310	
307	0	32668	32946	35312	
308	0	32668	32900	35314	
309	0	32684	32840	35308	
310	0	32710	32809	35316	
311	0	32716	32816	35308	
312	0	32784	32686	35324	
313	0	32844	32737	35318	
314	0	32845	32744	35300	
315	0	32908	32736	35310	
316	0	32890	32742	35324	
317	0	32888	32754	35304	
318	0	32900	32616	35280	
319	0	32828	32720	35290	
320	0	32879	32909	35301	
321	0	32780	32954	35300	
322	0	32810	32954	35299	
323	0	32748	32896	35300	
324	0	32776	32998	35298	
325	0	32692	33004	35304	
326	0	32618	32945	35306	
327	0	32656	32904	35302	
328	0	32692	32944	35295	
329	0	32721	32760	35312	
330	0	32716	32774	35294	
331	0	32684	32822	35298	
332	0	32760	32717	35268	
333	0	32796	32785	35266	
334	0	32820	32724	35280	
335	0	32880	32714	35293	
336	0	32860	32712	35292	
337	0	32884	32676	35300	
338	0	32864	32711	35296	
339	0	32872	32693	35295	
340	0	32816	32661	35276	
341	0	32892	32896	35274	
342	0	32816	32932	35292	
343	0	32856	32944	35289	
344	0	32700	33084	35314	
345	0	32712	32986	35326	
346	0	32740	33036	35321	
347	0	32720	32992	35313	
348	0	32688	32816	35292	
349	0	32684	32880	35316	
350	0	32712	32768	35345	
351	0	32764	32730	35344	
352	0	32848	32772	35351	
353	0	32798	32693	35314	
354	0	32828	32714	35298	
355	0	32812	32792	35296	
356	0	32856	32790	35288	
357	0	32802	32752	35292	
358	0	32876	32745	35310	
359	0	32836	32781	35320	
360	0	32876	32785	35324	
361	0	32840	32775	35335	
362	0	32820	32929	35332	
363	0	32760	32987	35320	
364	0	32712	32976	35312	
365	0	32768	33071	35310	
366	0	32768	32948	35306	
367	0	32656	32975	35292	
368	0	32680	32943	35300	
369	0	32680	32804	35320	
370	0	32716	32904	35300	
371	0	32705	32672	35300	
372	0	32744	32714	35301	
373	0	32776	32631	35303	
374	0	32856	32654	35300	
375	0	32848	32748	35319	
376	0	32900	32752	35316	
377	0	32860	32705	35312	
378	0	32904	32673	35316	
379	0	32953	32790	35278	
380	0	32933	32852	35273	
381	0	32789	32904	35263	
382	0	32804	32972	35272	
383	0	32748	32992	35296	
384	0	32732	33081	35316	
385	0	32680	32970	35340	
386	0	32668	32943	35335	
387	0	32672	32865	35329	
388	0	32696	32901	35329	
389	0	32732	32959	35340	
390	0	32744	32798	35336	
391	0	32676	32820	35352	
392	0	32708	32704	35340	
393	0	32764	32704	35325	
394	0	32788	32660	35336	
395	0	32904	32750	35325	
396	0	32836	32796	35309	
397	0	32827	32736	35268	
398	0	32932	32736	35268	
399	0	32892	32737	35269	
400	0	32864	32724	35293	
401	0	32820	32852	35313	
402	0	32865	32918	35316	
403	0	32744	33004	35328	
404	0	32776	32930	35324	
405	0	32820	32964	35356	
406	0	32688	33064	35341	
407	0	32696	32956	35332	
408	0	32645	32849	35340	
409	0	32708	32768	35342	
410	0	32668	32740	35340	
411	0	32740	32848	35332	
412	0	32788	32778	35312	
413	0	32828	32732	35324	
414	0	32836	32692	35321	
415	0	32876	32801	35309	
416	0	32901	32746	35296	
417	0	32925	32679	35300	
418	0	32988	32796	35279	
419	0	32856	32711	35277	
420	0	32800	32816	35282	
421	0	32848	32814	35282	
422	0	32764	32900	35284	
423	0	32760	33012	35281	
424	0	32700	33000	35281	
425	0	32714	32989	35290	
426	0	32692	33022	35304	
427	0	32674	32936	35292	
428	0	32642	32804	35298	
429	0	32672	32818	35309	
430	0	32673	32849	35309	
431	0	32736	32898	35316	
432	0	32789	32820	35314	
433	0	32736	32735	35302	
434	0	32812	32741	35313	
435	0	32864	32730	35296	
436	0	32845	32849	35292	
437	0	32853	32745	35301	
438	0	32888	32720	35311	
439	0	32928	32749	35296	
440	0	32900	32701	35284	
441	0	32864	32924	35280	
442	0	32868	32867	35268	
443	0	32733	33066	35276	
444	0	32700	33020	35284	
445	0	32681	33031	35308	
446	0	32704	33112	35316	
447	0	32740	32964	35308	
448	0	32712	32885	35296	
449	0	32629	32796	35300	
450	0	32664	32828	35281	
451	0	32724	32772	35300	
452	0	32756	32692	35309	
453	0	32812	32748	35304	
454	0	32844	32677	35300	
455	0	32917	32688	35313	
456	0	32889	32782	35306	
457	0	32916	32797	35301	
458	0	32856	32724	35288	
459	0	32909	32709	35304	
460	0	32832	32762	35292	
461	0	32800	32888	35296	
462	0	32812	32903	35284	
463	0	32724	32970	35292	
464	0	32776	33040	35299	
465	0	32700	33097	35332	
466	0	32692	33060	35354	
467	0	32712	32852	35350	
468	0	32652	32802	35342	
469	0	32657	32806	35329	
470	0	32722	32799	35300	
471	0	32728	32688	35316	
472	0	32793	32705	35328	
473	0	32821	32736	35316	
474	0	32776	32845	35313	
475	0	32828	32850	35313	
476	0	32880	32775	35294	
477	0	32860	32725	35300	
478	0	32848	32685	35300	
479	0	32836	32658	35313	
480	0	32812	32792	35317	
481	0	32908	32856	35319	
482	0	32824	32893	35304	
483	0	32756	32982	35318	
484	0	32768	33025	35293	
485	0	32698	32943	35308	
486	0	32656	32984	35294	
487	0	32652	32821	35308	
488	0	32669	32804	35288	
489	0	32684	32860	35290	
490	0	32660	32774	35305	
491	0	32712	32720	35301	
492	0	32736	32673	35300	
493	0	32868	32742	35301	
494	0	32856	32767	35308	
495	0	32848	32876	35285	
496	0	32906	32792	35274	
497	0	32904	32772	35278	
498	0	32876	32871	35266	
499	0	32876	32906	35273	
500	0	32900	32870	35272	
501	0	32869	32796	35254	
502	0	32816	32834	35263	
503	0	32716	32850	35288	
504	0	32750	32901	35301	
505	0	32728	32970	35320	
506	0	32641	32940	35319	
507	0	32756	32905	35312	
508	0	32680	32802	35325	
509	0	32680	32792	35304	
510	0	32644	32837	35319	
511	0	32717	32760	35320	
512	0	32800	32784	35294	
513	0	32797	32792	35288	
514	0	32880	32684	35292	
515	0	32892	32768	35284	
516	0	32964	32789	35264	
517	0	32864	32732	35258	
518	0	32896	32647	35258	
519	0	32868	32733	35280	
520	0	32860	32786	35273	
521	0	32817	32918	35293	
522	0	32806	32964	35300	
523	0	32788	32981	35300	
524	0	32760	33064	35300	
525	0	32704	33089	35316	
526	0	32598	32976	35328	
527	0	32697	32937	35342	
528	0	32636	32833	35314	
529	0	32714	32861	35300	
530	0	32656	32914	35300	
531	0	32760	32688	35310	
532	0	32832	32744	35316	
533	0	32816	32797	35321	
534	0	32868	32672	35316	
535	0	32880	32822	35304	
536	0	32858	32730	35308	
537	0	32812	32696	35288	
538	0	32936	32768	35272	
539	0	32924	32750	35268	
540	0	32873	32715	35260	
541	0	32764	32831	35276	
542	0	32780	32946	35280	
543	0	32780	32982	35297	
544	0	32677	32936	35320	
545	0	32660	33078	35330	
546	0	32684	32996	35350	
547	0	32648	32916	35345	
548	0	32684	32830	35333	
549	0	32716	32844	35328	
550	0	32764	32785	35321	
551	0	32768	32774	35316	
552	0	32804	32785	35292	
553	0	32816	32647	35284	
554	0	32836	32573	35276	
555	0	32892	32784	35265	
556	0	32896	32700	35268	
557	0	32816	32649	35276	
558	0	32841	32740	35284	
559	0	32888	32640	35260	
560	0	32856	32876	35272	
561	0	32790	32788	35272	
562	0	32814	32928	35286	
563	0	32824	32900	35292	
564	0	32782	32922	35296	
565	0	32688	32932	35293	
566	0	32681	32972	35302	
567	0	32720	32932	35321	
568	0	32704	32824	35300	
569	0	32637	32798	35300	
570	0	32730	32843	35294	
571	0	32696	32796	35312	
572	0	32736	32704	35311	
573	0	32888	32716	35320	
574	0	32809	32740	35324	
575	0	32886	32732	35308	
576	0	32924	32752	35309	
577	0	32872	32818	35301	
578	0	32876	32804	35289	
579	0	32828	32896	35268	
580	0	32882	32780	35268	
581	0	32813	32853	35264	
582	0	32856	32980	35280	
583	0	32736	33004	35284	
584	0	32672	33096	35298	
585	0	32700	33124	35320	
586	0	32710	32972	35342	
587	0	32740	32966	35340	
588	0	32645	32864	35324	
589	0	32708	32820	35310	
590	0	32696	32768	35313	
591	0	32696	32720	35324	
592	0	32756	32786	35316	
593	0	32848	32714	35308	
594	0	32796	32700	35292	
595	0	32928	32740	35276	
596	0	32928	32791	35265	
597	0	32952	32685	35271	
598	0	32872	32616	35269	
599	0	32913	32660	35258	
600	0	32826	32830	35252	
601	0	32800	33029	35252	
602	0	32785	32900	35273	
603	0	32742	32991	35305	
604	0	32700	33030	35322	
605	0	32750	32998	35320	
606	0	32720	32961	35311	
607	0	32706	32903	35297	
608	0	32628	32863	35297	
609	0	32690	32948	35297	
610	0	32716	32784	35304	
611	0	32760	32784	35292	
612	0	32800	32728	35303	
613	0	32844	32692	35313	
614	0	32856	32736	35305	
615	0	32872	32672	35296	
616	0	32902	32790	35290	
617	0	32892	32772	35296	
618	0	32860	32730	35292	
619	0	32872	32792	35296	
620	0	32780	32892	35303	
621	0	32780	32802	35302	
622	0	32837	33010	35296	
623	0	32749	32886	35292	
624	0	32700	32984	35303	
625	0	32688	33068	35309	
626	0	32704	32980	35305	
627	0	32648	33012	35294	
628	0	32688	32921	35290	
629	0	32680	32916	35300	
630	0	32748	32917	35294	
631	0	32724	32650	35300	
632	0	32738	32736	35292	
633	0	32856	32702	35280	
634	0	32836	32709	35296	
635	0	32956	32693	35296	
636	0	32892	32728	35302	
637	0	32846	32720	35284	
638	0	32898	32735	35268	
639	0	32828	32764	35284	
640	0	32840	32797	35289	
641	0	32852	32839	35311	
642	0	32780	32936	35318	
643	0	32816	32896	35335	
644	0	32768	32984	35332	
645	0	32772	33068	35326	
646	0	32648	33024	35340	
647	0	32628	32908	35332	
648	0	32676	32829	35326	
649	0	32734	32852	35301	
650	0	32688	32749	35280	
651	0	32752	32700	35304	
652	0	32724	32724	35308	
653	0	32832	32673	35290	
654	0	32864	32696	35292	
655	0	32840	32836	35272	
656	0	32870	32794	35301	
657	0	32928	32686	35313	
658	0	32884	32714	35300	
659	0	32860	32809	35302	
660	0	32897	32704	35296	
661	0	32868	32829	35288	
662	0	32820	32860	35292	
663	0	32768	32936	35312	
664	0	32716	32941	35301	
665	0	32732	32980	35299	
666	0	32684	33106	35308	
667	0	32720	32952	35321	
668	0	32676	32896	35312	
669	0	32652	32933	35313	
670	0	32718	32784	35311	
671	0	32782	32772	35319	
672	0	32792	32790	35308	
673	0	32856	32804	35304	
674	0	32808	32700	35316	
675	0	32936	32833	35288	
676	0	32876	32805	35296	
677	0	32916	32714	35280	
678	0	32810	32804	35280	
679	0	32854	32832	35285	
680	0	32868	32749	35276	
681	0	32840	32833	35280	
682	0	32800	32964	35309	
683	0	32816	32938	35304	
684	0	32696	32959	35328	
685	0	32718	33041	35317	
686	0	32681	32888	35321	
687	0	32688	32902	35332	
688	0	32676	32801	35335	
689	0	32793	32796	35332	
690	0	32698	32866	35335	
691	0	32692	32881	35340	
692	0	32764	32688	35334	
693	0	32784	32730	35320	
694	0	32832	32716	35318	
695	0	32868	32660	35308	
696	0	32904	32644	35296	
697	0	32895	32748	35308	
698	0	32873	32652	35312	
699	0	32892	32644	35324	
700	0	32817	32740	35311	
701	0	32815	32849	35308	
702	0	32804	32905	35287	
703	0	32716	32953	35302	
704	0	32716	33000	35301	
705	0	32668	33005	35306	
706	0	32680	32969	35320	
707	0	32704	32870	35318	
708	0	32720	32792	35302	
709	0	32682	32896	35284	
710	0	32708	32844	35287	
711	0	32672	32832	35308	
712	0	32784	32838	35304	
713	0	32830	32736	35305	
714	0	32916	32740	35316	
715	0	32820	32700	35305	
716	0	32900	32775	35294	
717	0	32900	32748	35309	
718	0	32884	32660	35279	
719	0	32868	32673	35258	
720	0	32856	32769	35272	
721	0	32812	32800	35274	
722	0	32828	32840	35305	
723	0	32740	32910	35320	
724	0	32735	33076	35345	
725	0	32709	33045	35320	
726	0	32704	33064	35320	
727	0	32688	33000	35324	
728	0	32622	32913	35324	
729	0	32657	32918	35313	
730	0	32721	32782	35320	
731	0	32712	32884	35306	
732	0	32784	32752	35291	
733	0	32868	32765	35290	
734	0	32876	32728	35296	
735	0	32956	32688	35298	
736	0	32868	32709	35302	
737	0	32884	32676	35264	
738	0	32802	32772	35264	
739	0	32836	32676	35280	
740	0	32796	32848	35272	
741	0	32864	32840	35284	
742	0	32848	32868	35286	
743	0	32736	32977	35292	
744	0	32671	33004	35309	
745	0	32686	33048	35326	
746	0	32692	33070	35340	
747	0	32708	32939	35332	
748	0	32704	32832	35335	
749	0	32696	32828	35332	
750	0	32704	32774	35332	
751	0	32752	32916	35310	
752	0	32768	32782	35313	
753	0	32840	32759	35305	
754	0	32816	32760	35300	
755	0	32832	32708	35288	
756	0	32956	32767	35296	
757	0	32878	32797	35288	
758	0	32940	32724	35293	
759	0	32884	32765	35289	
760	0	32776	32772	35270	
761	0	32816	32760	35284	
762	0	32836	32876	35318	
763	0	32760	32901	35312	
764	0	32776	32841	35328	
765	0	32730	32945	35332	
766	0	32700	33018	35337	
767	0	32700	32852	35334	
768	0	32688	32844	35316	
769	0	32704	32865	35332	
770	0	32668	32762	35324	
771	0	32736	32714	35326	
772	0	32744	32680	35320	
773	0	32792	32784	35300	
774	0	32784	32716	35292	
775	0	32804	32740	35277	
776	0	32876	32844	35273	
777	0	32924	32816	35261	
778	0	32888	32768	35269	
779	0	32821	32775	35278	
780	0	32892	32812	35266	
781	0	32840	32871	35268	
782	0	32802	32886	35268	
783	0	32728	32960	35278	
784	0	32776	33037	35297	
785	0	32705	32916	35313	
786	0	32712	33012	35313	
787	0	32664	33056	35304	
788	0	32690	32806	35316	
789	0	32704	32769	35304	
790	0	32644	32775	35308	
791	0	32720	32740	35304	
792	0	32828	32918	35292	
793	0	32804	32836	35280	
794	0	32837	32660	35280	
795	0	32872	32741	35296	
796	0	32900	32676	35295	
797	0	32836	32676	35276	
798	0	32924	32677	35277	
799	0	32884	32736	35285	
800	0	32880	32772	35286	
801	0	32860	32809	35316	
802	0	32804	32897	35300	
803	0	32708	32797	35305	
804	0	32730	32858	35328	
805	0	32764	32938	35348	
806	0	32708	33094	35340	
807	0	32660	32912	35335	
808	0	32708	32812	35342	
809	0	32676	32949	35331	
810	0	32640	32825	35313	
811	0	32704	32857	35292	
812	0	32768	32860	35280	
813	0	32792	32796	35285	
814	0	32848	32748	35282	
815	0	32900	32696	35278	
816	0	32960	32780	35282	
817	0	32900	32785	35272	
818	0	32832	32757	35272	
819	0	32873	32738	35294	
820	0	32809	32788	35291	
821	0	32854	32932	35309	
822	0	32808	32932	35308	
823	0	32796	32920	35313	
824	0	32700	32960	35318	
825	0	32670	32880	35335	
826	0	32694	33050	35344	
827	0	32668	32990	35344	
828	0	32686	32860	35354	
829	0	32744	32903	35348	
830	0	32725	32782	35352	
831	0	32744	32816	35328	
832	0	32808	32757	35340	
833	0	32812	32661	35340	
834	0	32832	32684	35316	
835	0	32860	32721	35334	
836	0	32940	32804	35320	
837	0	32832	32641	35335	
838	0	32844	32768	35340	
839	0	32944	32680	35316	
840	0	32833	32644	35320	
841	0	32858	32848	35309	
842	0	32764	33000	35296	
843	0	32732	32936	35316	
844	0	32736	32966	35312	
845	0	32720	33180	35319	
846	0	32660	33039	35332	
847	0	32688	32940	35334	
848	0	32676	32892	35316	
849	0	32712	32758	35320	
850	0	32672	32742	35324	
851	0	32752	32820	35294	
852	0	32720	32789	35313	
853	0	32832	32716	35279	
854	0	32852	32678	35280	
855	0	32909	32846	35280	
856	0	32957	32637	35269	
857	0	32892	32712	35256	
858	0	32848	32820	35280	
859	0	32869	32789	35288	
860	0	32908	32775	35296	
861	0	32844	32948	35292	
862	0	32841	32933	35312	
863	0	32728	32972	35311	
864	0	32824	33060	35320	
865	0	32746	33004	35333	
866	0	32700	33028	35318	
867	0	32629	33008	35320	
868	0	32644	32833	35328	
869	0	32664	32744	35348	
870	0	32704	32820	35334	
871	0	32702	32700	35328	
872	0	32756	32664	35308	
873	0	32816	32820	35289	
874	0	32852	32789	35292	
875	0	32846	32765	35278	
876	0	32936	32716	35293	
877	0	32933	32689	35292	
878	0	32880	32680	35292	
879	0	32834	32749	35268	
880	0	32836	32807	35268	
881	0	32844	32860	35300	
882	0	32817	32933	35320	
883	0	32680	33088	35384	
884	0	32733	33084	35524	
885	0	32744	33024	35708	
886	0	32620	32982	35836	
887	0	32672	33004	35744	
888	0	32741	33004	35549	
889	0	32660	32768	35405	
890	0	32640	32833	35272	
891	0	32736	32772	35260	
892	0	32768	32708	35181	
893	0	32781	32712	35074	
894	0	32852	32724	35041	
895	0	32872	32760	34982	
896	0	32884	32673	34957	
897	0	32942	32599	34976	
898	0	32844	32684	35048	
899	0	32916	32785	35148	
900	0	32794	32834	35216	
901	0	32908	32844	35290	
902	0	32784	32808	35335	
903	0	32776	32911	35376	
904	0	32753	32993	35400	
905	0	32730	32977	35416	
906	0	32608	32988	35412	
907	0	32700	32862	35428	
908	0	32738	32836	35392	
909	0	32696	32844	35352	
910	0	32712	32872	35348	
911	0	32762	32769	35312	
912	0	32673	32716	35308	
913	0	32800	32758	35284	
914	0	32804	32763	35268	
915	0	32948	32753	35252	
916	0	32906	32764	35246	
917	0	32960	32749	35244	
918	0	32916	32913	35246	
919	0	32924	32817	35226	
920	0	32844	32781	35237	
921	0	32872	32892	35261	
922	0	32791	33031	35269	
923	0	32761	33020	35292	
924	0	32756	33010	35293	
925	0	32729	33069	35313	
926	0	32698	33022	35340	
927	0	32708	32954	35360	
928	0	32684	32775	35372	
929	0	32624	32805	35372	
930	0	32740	32845	35343	
931	0	32746	32812	35356	
932	0	32772	32856	35349	
933	0	32749	32769	35348	
934	0	32824	32772	35341	
935	0	32900	32712	35332	
936	0	32872	32704	35321	
937	0	32892	32740	35316	
938	0	32869	32688	35310	
939	0	32880	32724	35308	
940	0	32845	32733	35303	
941	0	32760	32840	35292	
942	0	32764	32904	35278	
943	0	32792	32896	35276	
944	0	32704	32930	35276	
945	0	32714	32983	35276	
946	0	32708	32988	35280	
947	0	32714	32957	35312	
948	0	32706	32951	35283	
949	0	32688	32933	35288	
950	0	32612	32774	35289	
951	0	32688	32744	35288	
952	0	32728	32764	35308	
953	0	32808	32766	35287	
954	0	32872	32679	35292	
955	0	32868	32796	35272	
956	0	32920	32788	35277	
957	0	32896	32680	35308	
958	0	32904	32696	35313	
959	0	32848	32660	35293	
960	0	32903	32745	35300	
961	0	32904	32869	35293	
962	0	32752	32881	35303	
963	0	32804	32887	35324	
964	0	32740	32976	35321	
965	0	32609	32951	35340	
966	0	32648	32997	35364	
967	0	32680	32900	35372	
968	0	32706	32892	35386	
969	0	32668	32918	35353	
970	0	32697	32796	35344	
971	0	32732	32645	35348	
972	0	32740	32677	35328	
973	0	32780	32720	35304	
974	0	32821	32637	35308	
975	0	32856	32633	35310	
976	0	32912	32728	35300	
977	0	32940	32832	35288	
978	0	32865	32808	35289	
979	0	32833	32738	35292	
980	0	32844	32773	35312	
981	0	32756	32829	35316	
982	0	32768	32880	35321	
983	0	32761	32905	35316	
984	0	32732	33120	35316	
985	0	32753	33090	35319	
986	0	32664	33072	35340	
987	0	32672	32988	35357	
988	0	32672	32924	35332	
989	0	32656	32888	35336	
990	0	32624	32762	35329	
991	0	32756	32756	35328	
992	0	32736	32796	35330	
993	0	32876	32775	35337	
994	0	32852	32710	35332	
995	0	32852	32729	35342	
996	0	32857	32764	35343	
997	0	32876	32694	35344	
998	0	32917	32636	35332	
999	0	32925	32729	35324	
1000	0	32860	32812	35325	
1001	0	32860	32898	35340	
1002	0	32825	32870	35349	
1003	0	32712	32948	35348	
1004	0	32700	33032	35344	
1005	0	32760	33036	35344	
1006	0	32663	33004	35348	
1007	0	32622	32945	35365	
1008	0	32660	32750	35361	
1009	0	32676	32781	35344	
1010	0	32732	32750	35335	
1011	0	32684	32775	35324	
1012	0	32780	32748	35314	
1013	0	32804	32780	35328	
1014	0	32820	32756	35332	
1015	0	32836	32760	35340	
1016	0	32884	32840	35344	
1017	0	32885	32745	35372	
1018	0	32881	32692	35368	
1019	0	32904	32766	35356	
1020	0	32836	32705	35357	
1021	0	32864	32856	35344	
1022	0	32896	32932	35335	
1023	0	32732	32884	35348	
1024	0	32752	33108	35350	
1025	0	32704	33060	35355	
1026	0	32692	32984	35368	
1027	0	32680	32968	35365	
1028	0	32668	32831	35349	
1029	0	32724	32820	35348	
1030	0	32716	32769	35341	
1031	0	32668	32775	35352	
1032	0	32728	32828	35346	
1033	0	32808	32758	35337	
1034	0	32842	32705	35336	
1035	0	32820	32773	35312	
1036	0	32898	32652	35304	
1037	0	32932	32596	35308	
1038	0	32856	32702	35328	
1039	0	32890	32804	35320	
1040	0	32838	32812	35313	
1041	0	32788	32840	35328	
1042	0	32816	32909	35312	
1043	0	32760	32944	35300	
1044	0	32816	32904	35308	
1045	0	32653	32960	35320	
1046	0	32669	32965	35316	
1047	0	32702	32984	35333	
1048	0	32624	32865	35336	
1049	0	32692	32844	35343	
1050	0	32700	32785	35324	
1051	0	32688	32796	35312	
1052	0	32740	32822	35316	
1053	0	32844	32770	35312	
1054	0	32869	32756	35316	
1055	0	32938	32704	35305	
1056	0	32892	32740	35296	
1057	0	32917	32815	35308	
1058	0	32924	32676	35305	
1059	0	32932	32760	35290	
1060	0	32868	32844	35304	
1061	0	32810	32962	35300	
1062	0	32804	32864	35296	
1063	0	32722	32996	35308	
1064	0	32736	32952	35304	
1065	0	32728	33060	35316	
1066	0	32686	32872	35337	
1067	0	32672	32977	35336	
1068	0	32680	32876	35344	
1069	0	32714	32752	35351	
1070	0	32704	32825	35368	
1071	0	32760	32788	35360	
1072	0	32765	32721	35334	
1073	0	32753	32860	35316	
1074	0	32780	32808	35327	
1075	0	32862	32734	35304	
1076	0	32936	32764	35300	
1077	0	32968	32686	35306	
1078	0	32924	32704	35301	
1079	0	32880	32772	35292	
1080	0	32908	32694	35280	
1081	0	32784	32828	35297	
1082	0	32800	32916	35303	
1083	0	32668	32782	35319	
1084	0	32708	32900	35316	
1085	0	32718	32996	35320	
1086	0	32677	32956	35332	
1087	0	32680	32992	35349	
1088	0	32687	32822	35318	
1089	0	32713	32876	35324	
1090	0	32680	32878	35335	
1091	0	32720	32844	35340	
1092	0	32756	32786	35335	
1093	0	32876	32737	35335	
1094	0	32802	32805	35334	
1095	0	32956	32710	35324	
1096	0	32902	32760	35313	
1097	0	32849	32745	35300	
1098	0	32856	32664	35305	
1099	0	32856	32800	35312	
1100	0	32888	32730	35302	
1101	0	32852	32830	35329	
1102	0	32836	32900	35317	
1103	0	32736	32888	35335	
1104	0	32749	32960	35348	
1105	0	32728	32951	35324	
1106	0	32656	32990	35324	
1107	0	32668	32968	35340	
1108	0	32696	32824	35320	
1109	0	32656	32868	35332	
1110	0	32706	32823	35320	
1111	0	32708	32834	35316	
1112	0	32708	32985	35324	
1113	0	32832	32720	35328	
1114	0	32854	32631	35325	
1115	0	32924	32760	35320	
1116	0	32885	32740	35322	
1117	0	32932	32664	35310	
1118	0	32820	32665	35316	
1119	0	32808	32763	35292	
1120	0	32856	32797	35297	
1121	0	32820	32758	35303	
1122	0	32844	32897	35318	
1123	0	32788	33012	35324	
1124	0	32688	32949	35320	
1125	0	32714	32996	35344	
1126	0	32708	32940	35356	
1127	0	32716	33012	35352	
1128	0	32664	32901	35344	
1129	0	32756	32756	35340	
1130	0	32768	32924	35332	
1131	0	32740	32821	35332	
1132	0	32762	32775	35349	
1133	0	32876	32789	35343	
1134	0	32780	32752	35332	
1135	0	32844	32912	35342	
1136	0	32856	32677	35305	
1137	0	32864	32666	35292	
1138	0	32872	32620	35300	
1139	0	32841	32809	35304	
1140	0	32828	32796	35288	
1141	0	32837	32913	35312	
1142	0	32748	32968	35316	
1143	0	32801	32854	35316	
1144	0	32712	32976	35324	
1145	0	32722	32964	35316	
1146	0	32644	33000	35348	
1147	0	32669	32966	35349	
1148	0	32652	32961	35354	
1149	0	32702	32816	35356	
1150	0	32684	32845	35360	
1151	0	32768	32729	35353	
1152	0	32708	32726	35353	
1153	0	32793	32700	35328	
1154	0	32813	32672	35312	
1155	0	32896	32772	35317	
1156	0	32900	32724	35312	
1157	0	32936	32788	35301	
1158	0	32884	32836	35300	
1159	0	32901	32812	35301	
1160	0	32948	32860	35309	
1161	0	32780	32965	35317	
1162	0	32808	33072	35321	
1163	0	32852	32896	35328	
1164	0	32684	32943	35333	
1165	0	32704	32992	35349	
1166	0	32646	33016	35366	
1167	0	32628	32957	35364	
1168	0	32712	32897	35348	
1169	0	32708	32732	35340	
1170	0	32712	32790	35335	
1171	0	32748	32708	35319	
1172	0	32740	32778	35304	
1173	0	32814	32756	35303	
1174	0	32872	32714	35301	
1175	0	32952	32751	35301	
1176	0	32900	32681	35320	
1177	0	32909	32730	35312	
1178	0	32916	32789	35303	
1179	0	32908	32742	35300	
1180	0	32832	32768	35304	
1181	0	32892	32740	35292	
1182	0	32800	32800	35309	
1183	0	32752	33012	35318	
1184	0	32709	33012	35340	
1185	0	32722	33061	35325	
1186	0	32660	33068	35312	
1187	0	32632	32968	35312	
1188	0	32672	32990	35305	
1189	0	32653	32772	35318	
1190	0	32629	32785	35321	
1191	0	32749	32799	35320	
1192	0	32705	32770	35335	
1193	0	32810	32690	35333	
1194	0	32832	32616	35335	
1195	0	32884	32670	35335	
1196	0	32924	32663	35330	
1197	0	32920	32812	35318	
1198	0	32900	32836	35300	
1199	0	32924	32792	35292	
1200	0	32904	32808	35306	
1201	0	32829	32826	35290	
1202	0	32808	32903	35312	
1203	0	32708	32912	35326	
1204	0	32696	32934	35364	
1205	0	32700	32993	35326	
1206	0	32724	33007	35333	
1207	0	32704	32922	35333	
1208	0	32697	32832	35343	
1209	0	32660	32843	35349	
1210	0	32736	32735	35352	
1211	0	32697	32764	35342	
1212	0	32812	32826	35328	
1213	0	32830	32750	35304	
1214	0	32796	32653	35281	
1215	0	32896	32668	35317	
1216	0	32898	32753	35300	
1217	0	32904	32672	35296	
1218	0	32840	32736	35296	
1219	0	32884	32776	35305	
1220	0	32860	32765	35316	
1221	0	32796	32864	35327	
1222	0	32804	32978	35341	
1223	0	32758	32860	35333	
1224	0	32700	32956	35352	
1225	0	32738	33045	35352	
1226	0	32736	32940	35355	
1227	0	32724	32880	35368	
1228	0	32624	32908	35341	
1229	0	32680	32816	35350	
1230	0	32702	32750	35349	
1231	0	32692	32840	35335	
1232	0	32796	32775	35356	
1233	0	32752	32672	35348	
1234	0	32828	32816	35342	
1235	0	32884	32772	35313	
1236	0	32848	32788	35314	
1237	0	32880	32772	35292	
1238	0	32884	32782	35287	
1239	0	32897	32846	35304	
1240	0	32888	32844	35321	
1241	0	32856	32869	35300	
1242	0	32788	32868	35296	
1243	0	32768	32964	35300	
1244	0	32754	33036	35302	
1245	0	32670	33000	35306	
1246	0	32744	33030	35332	
1247	0	32712	32928	35353	
1248	0	32724	32918	35335	
1249	0	32740	32830	35335	
1250	0	32666	32768	35324	
1251	0	32772	32652	35308	
1252	0	32736	32740	35304	
1253	0	32772	32745	35288	
1254	0	32800	32748	35311	
1255	0	32912	32668	35301	
1256	0	32904	32650	35294	
1257	0	32864	32697	35300	
1258	0	32842	32804	35288	
1259	0	32872	32722	35309	
1260	0	32832	32760	35316	
1261	0	32804	32869	35316	
1262	0	32816	32981	35309	
1263	0	32740	32980	35326	
1264	0	32718	33080	35343	
1265	0	32752	33076	35364	
1266	0	32702	32943	35364	
1267	0	32646	32916	35370	
1268	0	32668	32852	35356	
1269	0	32692	32792	35335	
1270	0	32694	32826	35338	
1271	0	32714	32746	35335	
1272	0	32792	32728	35333	
1273	0	32836	32672	35346	
1274	0	32837	32613	35340	
1275	0	32884	32698	35333	
1276	0	32894	32676	35324	
1277	0	32868	32660	35309	
1278	0	32920	32814	35313	
1279	0	32880	32752	35306	
1280	0	32848	32634	35309	
1281	0	32808	32948	35289	
1282	0	32800	32902	35284	
1283	0	32812	33029	35297	
1284	0	32760	33100	35294	
1285	0	32784	33080	35314	
1286	0	32648	33022	35335	
1287	0	32632	32924	35340	
1288	0	32684	32870	35343	
1289	0	32649	32852	35340	
1290	0	32628	32836	35340	
1291	0	32744	32749	35344	
1292	0	32728	32772	35325	
1293	0	32788	32632	35324	
1294	0	32808	32677	35325	
1295	0	32934	32742	35317	
1296	0	32925	32708	35304	
1297	0	32868	32796	35310	
1298	0	32824	32647	35310	
1299	0	32882	32689	35309	
1300	0	32864	32692	35332	
1301	0	32840	32878	35340	
1302	0	32785	32985	35328	
1303	0	32796	32864	35348	
1304	0	32740	33016	35342	
1305	0	32692	33049	35364	
1306	0	32637	32997	35364	
1307	0	32696	32988	35368	
1308	0	32692	32958	35352	
1309	0	32720	32829	35341	
1310	0	32706	32797	35360	
1311	0	32720	32807	35368	
1312	0	32784	32640	35364	
1313	0	32808	32684	35322	
1314	0	32836	32748	35328	
1315	0	32880	32841	35312	
1316	0	32884	32652	35335	
1317	0	32864	32712	35324	
1318	0	32852	32708	35335	
1319	0	32856	32718	35328	
1320	0	32825	32836	35305	
1321	0	32869	32908	35316	
1322	0	32804	32967	35332	
1323	0	32792	32958	35326	
1324	0	32772	33031	35321	
1325	0	32732	32989	35321	
1326	0	32717	32981	35331	
1327	0	32732	32876	35335	
1328	0	32668	32884	35332	
1329	0	32692	32876	35330	
1330	0	32732	32809	35316	
1331	0	32716	32797	35311	
1332	0	32732	32812	35309	
1333	0	32846	32772	35303	
1334	0	32820	32677	35325	
1335	0	32832	32753	35350	
1336	0	32874	32756	35352	
1337	0	32840	32671	35348	
1338	0	32864	32699	35340	
1339	0	32872	32836	35335	
1340	0	32852	32765	35328	
1341	0	32810	32896	35352	
1342	0	32860	32863	35356	
1343	0	32740	32956	35364	
1344	0	32756	32963	35384	
1345	0	32732	33057	35348	
1346	0	32716	32988	35364	
1347	0	32749	32954	35360	
1348	0	32728	32901	35364	
1349	0	32672	32868	35353	
1350	0	32724	32838	35364	
1351	0	32700	32903	35349	
1352	0	32800	32828	35348	
1353	0	32820	32728	35335	
1354	0	32828	32708	35342	
1355	0	32916	32700	35324	
1356	0	32888	32689	35296	
1357	0	32909	32596	35288	
1358	0	32872	32614	35288	
1359	0	32912	32744	35306	
1360	0	32832	32905	35312	
1361	0	32816	32957	35319	
1362	0	32796	32928	35320	
1363	0	32749	32956	35300	
1364	0	32784	32977	35313	
1365	0	32756	33048	35332	
1366	0	32703	32958	35328	
1367	0	32662	32924	35324	
1368	0	32701	32885	35354	
1369	0	32608	32798	35345	
1370	0	32660	32772	35343	
1371	0	32756	32816	35335	
1372	0	32752	32664	35335	
1373	0	32804	32741	35345	
1374	0	32848	32820	35342	
1375	0	32932	32684	35338	
1376	0	32892	32685	35335	
1377	0	32880	32630	35314	
1378	0	32864	32710	35312	
1379	0	32888	32775	35322	
1380	0	32860	32774	35300	
1381	0	32848	32888	35312	
1382	0	32752	32975	35317	
1383	0	32726	32947	35304	
1384	0	32804	32901	35305	
1385	0	32696	32978	35317	
1386	0	32689	33029	35311	
1387	0	32662	32948	35335	
1388	0	32685	32894	35356	
1389	0	32668	32852	35355	
1390	0	32668	32921	35332	
1391	0	32737	32796	35332	
1392	0	32728	32773	35336	
1393	0	32864	32761	35335	
1394	0	32852	32732	35341	
1395	0	32852	32801	35310	
1396	0	32900	32868	35328	
1397	0	32913	32698	35328	
1398	0	32928	32688	35318	
1399	0	32897	32720	35316	
1400	0	32820	32800	35304	
1401	0	32744	32814	35312	
1402	0	32818	32960	35326	
1403	0	32786	32921	35344	
1404	0	32716	32952	35368	
1405	0	32781	33012	35372	
1406	0	32769	32869	35364	
1407	0	32689	32916	35392	
1408	0	32694	32912	35360	
1409	0	32664	32775	35354	
1410	0	32584	32805	35372	
1411	0	32712	32684	35340	
1412	0	32776	32696	35354	
1413	0	32796	32767	35356	
1414	0	32832	32730	35356	
1415	0	32836	32680	35357	
1416	0	32964	32676	35328	
1417	0	32856	32620	35332	
1418	0	32850	32700	35334	
1419	0	32864	32797	35316	
1420	0	32905	32828	35304	
1421	0	32864	32960	35335	
1422	0	32768	32921	35335	
1423	0	32780	32981	35344	
1424	0	32736	32933	35356	
1425	0	32792	33026	35365	
1426	0	32676	33128	35367	
1427	0	32672	32924	35372	
1428	0	32632	32878	35388	
1429	0	32624	32748	35364	
1430	0	32700	32757	35364	
1431	0	32760	32808	35352	
1432	0	32800	32652	35328	
1433	0	32788	32644	35320	
1434	0	32880	32662	35326	
1435	0	32904	32684	35330	
1436	0	32908	32791	35324	
1437	0	32892	32701	35308	
1438	0	32902	32714	35296	
1439	0	32844	32784	35308	
1440	0	32872	32808	35324	
1441	0	32874	32909	35316	
1442	0	32894	32957	35322	
1443	0	32804	32932	35332	
1444	0	32668	32974	35330	
1445	0	32680	33090	35322	
1446	0	32696	33140	35329	
1447	0	32680	33016	35326	
1448	0	32741	33020	35336	
1449	0	32688	32824	35337	
1450	0	32689	32758	35320	
1451	0	32716	32858	35316	
1452	0	32800	32751	35304	
1453	0	32824	32806	35308	
1454	0	32794	32852	35319	
1455	0	32856	32836	35316	
1456	0	32912	32740	35318	
1457	0	32916	32772	35309	
1458	0	32908	32669	35301	
1459	0	32820	32808	35302	
1460	0	32893	32732	35304	
1461	0	32824	32860	35308	
1462	0	32798	32880	35333	
1463	0	32840	32832	35325	
1464	0	32782	32925	35321	
1465	0	32752	32892	35328	
1466	0	32698	32919	35333	
1467	0	32618	32956	35331	
1468	0	32668	32900	35348	
1469	0	32680	32804	35336	
1470	0	32718	32829	35356	
1471	0	32752	32788	35364	
1472	0	32736	32703	35357	
1473	0	32832	32769	35332	
1474	0	32872	32728	35354	
1475	0	32844	32708	35324	
1476	0	32852	32852	35328	
1477	0	32892	32765	35308	
1478	0	32880	32654	35316	
1479	0	32900	32736	35324	
1480	0	32856	32746	35344	
1481	0	32864	32860	35348	
1482	0	32868	32905	35352	
1483	0	32776	32972	35345	
1484	0	32676	32967	35344	
1485	0	32698	33014	35349	
1486	0	32712	33063	35344	
1487	0	32736	32940	35340	
1488	0	32688	32848	35359	
1489	0	32632	32940	35340	
1490	0	32749	32736	35350	
1491	0	32708	32714	35335	
1492	0	32708	32775	35332	
1493	0	32732	32768	35312	
1494	0	32830	32672	35313	
1495	0	32856	32760	35297	
1496	0	32896	32785	35279	
1497	0	32900	32606	35265	
1498	0	32968	32647	35270	
1499	0	32836	32705	35280	
1500	0	32930	32758	35288	
1501	0	32780	32796	35314	
1502	0	32864	32856	35334	
1503	0	32748	32956	35320	
1504	0	32725	32972	35321	
1505	0	32724	33081	35332	
1506	0	32644	33038	35328	
1507	0	32668	33020	35332	
1508	0	32708	32996	35335	
1509	0	32688	32934	35332	
1510	0	32684	32855	35327	
1511	0	32712	32836	35348	
1512	0	32812	32730	35348	
1513	0	32776	32692	35326	
1514	0	32776	32688	35309	
1515	0	32868	32729	35348	
1516	0	32898	32817	35340	
1517	0	32888	32793	35316	
1518	0	32912	32760	35308	
1519	0	32820	32820	35292	
1520	0	32808	32832	35292	
1521	0	32852	32866	35293	
1522	0	32842	32896	35316	
1523	0	32856	32953	35328	
1524	0	32784	33001	35335	
1525	0	32701	32992	35350	
1526	0	32738	32942	35364	
1527	0	32700	32885	35365	
1528	0	32684	32889	35355	
1529	0	32728	32877	35316	
1530	0	32636	32770	35332	
1531	0	32672	32757	35335	
1532	0	32744	32784	35333	
1533	0	32847	32665	35335	
1534	0	32836	32646	35324	
1535	0	32920	32740	35305	
1536	0	32872	32695	35320	
1537	0	32908	32793	35326	
1538	0	32864	32695	35301	
1539	0	32876	32729	35310	
1540	0	32848	32736	35324	
1541	0	32884	32852	35328	
1542	0	32836	33028	35312	
1543	0	32764	32901	35309	
1544	0	32780	33024	35317	
1545	0	32736	32992	35333	
1546	0	32652	33000	35349	
1547	0	32705	33030	35372	
1548	0	32733	32850	35334	
1549	0	32768	32836	35356	
1550	0	32688	32854	35344	
1551	0	32648	32672	35357	
1552	0	32768	32740	35333	
1553	0	32748	32774	35324	
1554	0	32772	32774	35320	
1555	0	32920	32886	35314	
1556	0	32852	32737	35308	
1557	0	32888	32733	35324	
1558	0	32845	32772	35328	
1559	0	32908	32698	35342	
1560	0	32908	32745	35348	
1561	0	32872	32824	35335	
1562	0	32840	32873	35321	
1563	0	32781	32872	35327	
1564	0	32733	32902	35327	
1565	0	32700	32892	35358	
1566	0	32788	33016	35373	
1567	0	32704	32961	35356	
1568	0	32736	32949	35348	
1569	0	32646	32794	35346	
1570	0	32672	32814	35350	
1571	0	32828	32678	35359	
1572	0	32740	32768	35359	
1573	0	32833	32762	35372	
1574	0	32858	32756	35340	
1575	0	32900	32844	35335	
1576	0	32940	32684	35311	
1577	0	32948	32782	35320	
1578	0	32921	32665	35306	
1579	0	32828	32705	35317	
1580	0	32889	32804	35304	
1581	0	32832	32840	35308	
1582	0	32748	32980	35312	
1583	0	32792	33022	35326	
1584	0	32796	33069	35332	
1585	0	32684	33012	35324	
1586	0	32732	33008	35329	
1587	0	32660	32953	35349	
1588	0	32684	32825	35348	
1589	0	32748	32840	35360	
1590	0	32676	32820	35345	
1591	0	32724	32654	35348	
1592	0	32706	32813	35357	
1593	0	32776	32826	35354	
1594	0	32784	32760	35328	
1595	0	32828	32768	35302	
1596	0	32896	32796	35312	
1597	0	32884	32878	35296	
1598	0	32908	32709	35315	
1599	0	32880	32744	35324	
1600	0	32892	32780	35312	
1601	0	32828	32885	35318	
1602	0	32872	32784	35309	
1603	0	32728	32843	35306	
1604	0	32755	32958	35306	
1605	0	32692	33030	35335	
1606	0	32688	33028	35357	
1607	0	32728	32932	35349	
1608	0	32696	32918	35335	
1609	0	32708	32744	35320	
1610	0	32708	32831	35322	
1611	0	32728	32772	35335	
1612	0	32760	32704	35335	
1613	0	32753	32724	35332	
1614	0	32756	32820	35327	
1615	0	32848	32751	35320	
1616	0	32890	32656	35312	
1617	0	32869	32738	35316	
1618	0	32860	32654	35312	
1619	0	32820	32764	35335	
1620	0	32836	32780	35326	
1621	0	32832	32829	35300	
1622	0	32856	32966	35296	
1623	0	32820	32952	35292	
1624	0	32740	32948	35313	
1625	0	32772	33068	35314	
1626	0	32744	33020	35333	
1627	0	32720	32950	35316	
1628	0	32676	32941	35332	
1629	0	32600	32796	35335	
1630	0	32652	32932	35348	
1631	0	32676	32824	35334	
1632	0	32732	32716	35335	
1633	0	32794	32804	35336	
1634	0	32868	32756	35341	
1635	0	32858	32738	35319	
1636	0	32949	32815	35342	
1637	0	32888	32741	35320	
1638	0	32904	32736	35312	
1639	0	32868	32761	35324	
1640	0	32917	32769	35333	
1641	0	32864	32869	35324	
1642	0	32790	32886	35348	
1643	0	32768	32925	35361	
1644	0	32700	33108	35348	
1645	0	32752	32965	35368	
1646	0	32716	33082	35373	
1647	0	32724	33056	35357	
1648	0	32688	32892	35342	
1649	0	32713	32816	35360	
1650	0	32700	32758	35362	
1651	0	32720	32762	35356	
1652	0	32708	32853	35357	
1653	0	32822	32809	35350	
1654	0	32868	32590	35344	
1655	0	32888	32650	35351	
1656	0	32896	32780	35373	
1657	0	32924	32772	35352	
1658	0	32902	32775	35326	
1659	0	32826	32724	35322	
1660	0	32904	32656	35302	
1661	0	32876	32833	35300	
1662	0	32789	32916	35308	
1663	0	32764	32980	35292	
1664	0	32730	33000	35328	
1665	0	32680	33020	35335	
1666	0	32736	33020	35345	
1667	0	32702	32985	35361	
1668	0	32704	32849	35356	
1669	0	32714	32857	35348	
1670	0	32716	32754	35344	
1671	0	32720	32798	35340	
1672	0	32744	32749	35344	
1673	0	32772	32696	35328	
1674	0	32852	32720	35351	
1675	0	32828	32775	35348	
1676	0	32884	32712	35335	
1677	0	32820	32740	35328	
1678	0	32887	32773	35316	
1679	0	32840	32737	35316	
1680	0	32848	32809	35316	
1681	0	32860	32903	35292	
1682	0	32796	32936	35324	
1683	0	32788	32866	35356	
1684	0	32769	32884	35340	
1685	0	32700	32916	35342	
1686	0	32706	32976	35341	
1687	0	32660	32928	35360	
1688	0	32708	32833	35340	
1689	0	32744	32876	35324	
1690	0	32664	32830	35333	
1691	0	32776	32775	35343	
1692	0	32764	32774	35346	
1693	0	32792	32800	35352	
1694	0	32876	32736	35322	
1695	0	32808	32708	35316	
1696	0	32900	32828	35308	
1697	0	32885	32736	35309	
1698	0	32872	32678	35306	
1699	0	32900	32708	35291	
1700	0	32852	32780	35300	
1701	0	32828	32832	35328	
1702	0	32817	32976	35340	
1703	0	32810	32916	35328	
1704	0	32736	32950	35322	
1705	0	32708	32940	35340	
1706	0	32672	32916	35357	
1707	0	32660	32836	35340	
1708	0	32654	32769	35352	
1709	0	32620	32796	35348	
1710	0	32740	32890	35357	
1711	0	32753	32792	35348	
1712	0	32756	32668	35336	
1713	0	32764	32806	35329	
1714	0	32772	32726	35309	
1715	0	32880	32692	35313	
1716	0	32876	32759	35308	
1717	0	32924	32807	35282	
1718	0	32861	32776	35276	
1719	0	32860	32762	35290	
1720	0	32932	32752	35301	
1721	0	32828	32841	35333	
1722	0	32772	32933	35340	
1723	0	32732	33012	35326	
1724	0	32736	33028	35344	
1725	0	32728	32962	35333	
1726	0	32700	33004	35335	
1727	0	32692	32956	35337	
1728	0	32728	32950	35335	
1729	0	32761	32870	35352	
1730	0	32672	32831	35356	
1731	0	32728	32836	35364	
1732	0	32816	32813	35364	
1733	0	32789	32765	35341	
1734	0	32848	32800	35353	
1735	0	32900	32700	35316	
1736	0	32844	32764	35313	
1737	0	32864	32797	35324	
1738	0	32884	32597	35312	
1739	0	32842	32692	35298	
1740	0	32808	32748	35316	
1741	0	32844	32769	35335	
1742	0	32772	32932	35333	
1743	0	32748	32874	35316	
1744	0	32772	32912	35314	
1745	0	32748	32968	35313	
1746	0	32713	32955	35320	
1747	0	32654	32964	35324	
1748	0	32703	32936	35331	
1749	0	32701	32865	35351	
1750	0	32692	32768	35362	
1751	0	32742	32836	35334	
1752	0	32742	32781	35354	
1753	0	32769	32838	35340	
1754	0	32900	32688	35333	
1755	0	32992	32871	35318	
1756	0	32900	32784	35316	
1757	0	32888	32664	35336	
1758	0	32836	32664	35340	
1759	0	32820	32644	35330	
1760	0	32884	32687	35332	
1761	0	32816	32801	35304	
1762	0	32865	32828	35340	
1763	0	32804	32846	35320	
1764	0	32720	32922	35312	
1765	0	32776	33045	35313	
1766	0	32724	32972	35317	
1767	0	32660	33028	35334	
1768	0	32704	32871	35348	
1769	0	32668	32815	35348	
1770	0	32748	32892	35334	
1771	0	32736	32720	35335	
1772	0	32744	32705	35324	
1773	0	32764	32786	35346	
1774	0	32812	32740	35322	
1775	0	32924	32805	35327	
1776	0	32920	32812	35304	
1777	0	32836	32750	35303	
1778	0	32842	32764	35308	
1779	0	32932	32720	35309	
1780	0	32836	32788	35308	
1781	0	32800	32903	35316	
1782	0	32768	32892	35313	
1783	0	32848	33106	35326	
1784	0	32736	32919	35321	
1785	0	32744	32905	35341	
1786	0	32736	33112	35359	
1787	0	32656	32935	35367	
1788	0	32696	32992	35356	
1789	0	32704	32919	35335	
1790	0	32696	32773	35335	
1791	0	32768	32768	35326	
1792	0	32796	32804	35308	
1793	0	32788	32636	35333	
1794	0	32812	32684	35352	
1795	0	32892	32676	35365	
1796	0	32884	32640	35380	
1797	0	32858	32656	35364	
1798	0	32797	32741	35368	
1799	0	32868	32668	35344	
1800	0	32860	32753	35327	
1801	0	32852	32676	35328	
1802	0	32872	32862	35335	
1803	0	32784	33039	35345	
1804	0	32700	33000	35343	
1805	0	32744	33032	35352	
1806	0	32664	33060	35366	
1807	0	32708	33048	35356	
1808	0	32728	32904	35352	
1809	0	32709	32915	35364	
1810	0	32736	32848	35370	
1811	0	32704	32742	35348	
1812	0	32700	32847	35348	
1813	0	32849	32720	35356	
1814	0	32804	32835	35348	
1815	0	32809	32808	35321	
1816	0	32928	32775	35322	
1817	0	32905	32702	35308	
1818	0	32905	32733	35312	
1819	0	32870	32614	35316	
1820	0	32889	32693	35292	
1821	0	32796	32836	35308	
1822	0	32832	32820	35305	
1823	0	32736	33004	35308	
1824	0	32852	33064	35312	
1825	0	32757	32992	35316	
1826	0	32744	32976	35311	
1827	0	32668	32997	35322	
1828	0	32712	32844	35336	
1829	0	32672	32852	35332	
1830	0	32720	32879	35326	
1831	0	32732	32828	35324	
1832	0	32772	32853	35344	
1833	0	32808	32815	35360	
1834	0	32800	32740	35358	
1835	0	32884	32668	35322	
1836	0	32925	32850	35304	
1837	0	32940	32697	35274	
1838	0	32852	32676	35279	
1839	0	32836	32732	35284	
1840	0	32836	32705	35290	
1841	0	32864	32775	35316	
1842	0	32836	32881	35311	
1843	0	32808	32945	35321	
1844	0	32712	32916	35332	
1845	0	32704	33016	35341	
1846	0	32668	32976	35332	
1847	0	32708	32878	35332	
1848	0	32712	32884	35343	
1849	0	32673	32881	35312	
1850	0	32655	32704	35305	
1851	0	32684	32685	35302	
1852	0	32798	32794	35316	
1853	0	32796	32761	35304	
1854	0	32906	32768	35289	
1855	0	32896	32816	35303	
1856	0	32926	32692	35322	
1857	0	32864	32646	35344	
1858	0	32852	32740	35322	
1859	0	32828	32676	35328	
1860	0	32773	32647	35328	
1861	0	32836	32944	35324	
1862	0	32826	32908	35324	
1863	0	32768	33060	35333	
1864	0	32773	32916	35332	
1865	0	32744	32938	35324	
1866	0	32700	33034	35340	
1867	0	32706	32956	35335	
1868	0	32686	32849	35345	
1869	0	32638	32892	35364	
1870	0	32676	32703	35356	
1871	0	32720	32765	35352	
1872	0	32760	32801	35358	
1873	0	32736	32780	35364	
1874	0	32832	32820	35369	
1875	0	32840	32833	35342	
1876	0	32864	32840	35313	
1877	0	32878	32837	35312	
1878	0	32824	32704	35312	
1879	0	32813	32642	35313	
1880	0	32832	32832	35292	
1881	0	32804	32800	35290	
1882	0	32768	32932	35288	
1883	0	32832	33023	35318	
1884	0	32752	32953	35348	
1885	0	32740	33105	35328	
1886	0	32714	32976	35312	
1887	0	32684	32924	35333	
1888	0	32717	32820	35340	
1889	0	32700	32759	35336	
1890	0	32736	32852	35340	
1891	0	32712	32641	35340	
1892	0	32752	32684	35332	
1893	0	32848	32752	35336	
1894	0	32834	32652	35312	
1895	0	32856	32708	35304	
1896	0	32876	32758	35308	
1897	0	32857	32742	35305	
1898	0	32917	32684	35310	
1899	0	32896	32775	35311	
1900	0	32892	32837	35328	
1901	0	32860	32832	35324	
1902	0	32792	32979	35312	
1903	0	32748	32972	35334	
1904	0	32689	32972	35354	
1905	0	32708	33108	35345	
1906	0	32772	32892	35332	
1907	0	32684	32998	35334	
1908	0	32736	32886	35333	
1909	0	32680	32844	35336	
1910	0	32714	32811	35328	
1911	0	32736	32764	35349	
1912	0	32749	32839	35335	
1913	0	32748	32814	35335	
1914	0	32804	32690	35330	
1915	0	32830	32712	35300	
1916	0	32897	32680	35297	
1917	0	32932	32732	35292	
1918	0	32845	32830	35292	
1919	0	32864	32692	35281	
1920	0	32836	32641	35292	
1921	0	32860	32808	35316	
1922	0	32808	32829	35313	
1923	0	32785	33028	35317	
1924	0	32720	32848	35316	
1925	0	32744	32950	35341	
1926	0	32640	32942	35352	
1927	0	32649	32920	35360	
1928	0	32664	32931	35356	
1929	0	32740	32782	35333	
1930	0	32632	32832	35327	
1931	0	32764	32842	35335	
1932	0	32728	32748	35305	
1933	0	32798	32740	35320	
1934	0	32788	32760	35316	
1935	0	32856	32774	35314	
1936	0	32864	32824	35312	
1937	0	32900	32685	35316	
1938	0	32849	32765	35304	
1939	0	32843	32740	35280	
1940	0	32924	32820	35276	
1941	0	32858	32912	35280	
1942	0	32832	32924	35286	
1943	0	32836	32881	35316	
1944	0	32772	33076	35325	
1945	0	32724	33124	35340	
1946	0	32672	33025	35344	
1947	0	32681	33006	35335	
1948	0	32692	32852	35352	
1949	0	32668	32868	35322	
1950	0	32681	32910	35334	
1951	0	32696	32788	35321	
1952	0	32790	32705	35332	
1953	0	32748	32846	35350	
1954	0	32780	32652	35332	
1955	0	32756	32766	35328	
1956	0	32893	32760	35335	
1957	0	32902	32708	35316	
1958	0	32952	32646	35313	
1959	0	32809	32753	35324	
1960	0	32897	32804	35348	
1961	0	32844	32853	35344	
1962	0	32824	32932	35357	
1963	0	32858	32847	35328	
1964	0	32752	32988	35341	
1965	0	32752	33030	35344	
1966	0	32704	32966	35341	
1967	0	32688	32894	35317	
1968	0	32732	32812	35340	
1969	0	32708	32880	35342	
1970	0	32680	32772	35326	
1971	0	32740	32775	35320	
1972	0	32717	32716	35320	
1973	0	32736	32756	35340	
1974	0	32828	32720	35308	
1975	0	32892	32771	35296	
1976	0	32972	32697	35316	
1977	0	32886	32718	35300	
1978	0	32814	32768	35285	
1979	0	32864	32797	35303	
1980	0	32842	32780	35308	
1981	0	32836	32847	35302	
1982	0	32816	32953	35302	
1983	0	32828	33000	35297	
1984	0	32728	32905	35308	
1985	0	32696	33050	35312	
1986	0	32700	33000	35325	
1987	0	32676	32869	35334	
1988	0	32696	32912	35348	
1989	0	32680	32941	35368	
1990	0	32696	32788	35358	
1991	0	32708	32830	35348	
1992	0	32796	32773	35324	
1993	0	32762	32874	35324	
1994	0	32816	32704	35352	
1995	0	32908	32737	35337	
1996	0	32896	32788	35344	
1997	0	32896	32762	35335	
1998	0	32872	32724	35318	
1999	0	32884	32740	35304	
2000	0	32824	32855	35320	
2001	0	32828	32765	35334	
2002	0	32817	32856	35326	
2003	0	32805	32884	35320	
2004	0	32729	32906	35335	
2005	0	32753	32925	35340	
2006	0	32704	33012	35332	
2007	0	32728	32981	35332	
2008	0	32700	32944	35340	
2009	0	32720	32807	35328	
2010	0	32684	32796	35348	
2011	0	32656	32764	35328	
2012	0	32714	32663	35328	
2013	0	32752	32712	35301	
2014	0	32807	32802	35304	
2015	0	32870	32752	35316	
2016	0	32919	32737	35314	
2017	0	32900	32860	35322	
2018	0	32842	32722	35308	
2019	0	32820	32740	35311	
2020	0	32868	32856	35313	
2021	0	32862	32810	35309	
2022	0	32792	32904	35312	
2023	0	32860	32977	35312	
2024	0	32744	32985	35340	
2025	0	32726	32916	35348	
2026	0	32628	32965	35329	
2027	0	32716	33141	35340	
2028	0	32604	32854	35334	
2029	0	32722	32848	35356	
2030	0	32731	32804	35345	
2031	0	32745	32821	35340	
2032	0	32736	32831	35328	
2033	0	32692	32832	35320	
2034	0	32920	32788	35324	
2035	0	32900	32796	35313	
2036	0	32898	32802	35308	
2037	0	32912	32709	35308	
2038	0	32852	32716	35303	
2039	0	32844	32600	35301	
2040	0	32920	32673	35308	
2041	0	32768	32751	35296	
2042	0	32764	32868	35308	
2043	0	32796	32903	35320	
2044	0	32684	32969	35332	
2045	0	32760	33068	35343	
2046	0	32704	33056	35359	
2047	0	32660	32984	35364	
2048	0	32724	32912	35348	
2049	0	32676	32894	35360	
2050	0	32680	32886	35356	
2051	0	32752	32809	35352	
2052	0	32740	32790	35348	
2053	0	32735	32700	35345	
2054	0	32828	32756	35334	
2055	0	32928	32792	35318	
2056	0	32940	32775	35300	
2057	0	32860	32620	35301	
2058	0	32928	32712	35304	
2059	0	32872	32848	35284	
2060	0	32865	32712	35299	
2061	0	32812	32716	35297	
2062	0	32860	32788	35273	
2063	0	32804	33024	35280	
2064	0	32736	32993	35304	
2065	0	32740	32996	35305	
2066	0	32712	33069	35309	
2067	0	32696	32969	35301	
2068	0	32680	32864	35322	
2069	0	32673	32857	35314	
2070	0	32720	32812	35296	
2071	0	32744	32817	35324	
2072	0	32678	32700	35328	
2073	0	32789	32680	35332	
2074	0	32796	32732	35310	
2075	0	32884	32810	35316	
2076	0	32860	32732	35288	
2077	0	32864	32764	35268	
2078	0	32852	32644	35300	
2079	0	32860	32720	35303	
2080	0	32900	32743	35289	
2081	0	32820	32780	35320	
2082	0	32780	32796	35306	
2083	0	32824	32912	35290	
2084	0	32760	32940	35303	
2085	0	32724	33004	35296	
2086	0	32726	33084	35296	
2087	0	32740	33084	35312	
2088	0	32652	33033	35324	
2089	0	32684	32944	35335	
2090	0	32738	32912	35329	
2091	0	32660	32770	35328	
2092	0	32788	32698	35308	
2093	0	32765	32764	35302	
2094	0	32880	32706	35300	
2095	0	32828	32702	35303	
2096	0	32828	32700	35292	
2097	0	32880	32656	35300	
2098	0	32928	32680	35320	
2099	0	32908	32744	35345	
2100	0	32865	32822	35348	
2101	0	32774	32860	35330	
2102	0	32804	32951	35345	
2103	0	32844	32984	35335	
2104	0	32728	32977	35335	
2105	0	32776	32945	35328	
2106	0	32680	32925	35320	
2107	0	32704	32873	35346	
2108	0	32636	32896	35340	
2109	0	32668	32888	35336	
2110	0	32660	32808	35353	
2111	0	32700	32804	35348	
2112	0	32728	32709	35354	
2113	0	32820	32796	35317	
2114	0	32837	32677	35321	
2115	0	32844	32728	35324	
2116	0	32872	32640	35308	
2117	0	32900	32637	35309	
2118	0	32888	32704	35310	
2119	0	32900	32796	35311	
2120	0	32853	32854	35316	
2121	0	32836	32836	35320	
2122	0	32833	32921	35335	
2123	0	32836	32885	35324	
2124	0	32748	32910	35329	
2125	0	32716	33015	35350	
2126	0	32696	32998	35352	
2127	0	32688	32998	35360	
2128	0	32677	32908	35356	
2129	0	32720	32781	35368	
2130	0	32728	32781	35367	
2131	0	32632	32740	35375	
2132	0	32760	32701	35368	
2133	0	32840	32807	35356	
2134	0	32852	32704	35342	
2135	0	32845	32732	35336	
2136	0	32848	32820	35344	
2137	0	32896	32706	35346	
2138	0	32864	32761	35335	
2139	0	32884	32764	35328	
2140	0	32842	32732	35324	
2141	0	32798	32861	35336	
2142	0	32780	32905	35329	
2143	0	32768	32953	35332	
2144	0	32688	32944	35348	
2145	0	32788	32992	35349	
2146	0	32670	33006	35352	
2147	0	32682	33041	35352	
2148	0	32748	32916	35349	
2149	0	32624	32860	35375	
2150	0	32666	32852	35370	
2151	0	32736	32846	35377	
2152	0	32764	32857	35386	
2153	0	32804	32773	35385	
2154	0	32820	32677	35372	
2155	0	32848	32666	35348	
2156	0	32900	32685	35316	
2157	0	32956	32725	35313	
2158	0	32884	32676	35302	
2159	0	32844	32692	35308	
2160	0	32840	32772	35293	
2161	0	32868	32840	35300	
2162	0	32816	32868	35303	
2163	0	32744	32956	35320	
2164	0	32701	32920	35316	
2165	0	32753	32945	35333	
2166	0	32693	33000	35304	
2167	0	32760	32982	35332	
2168	0	32816	32844	35352	
2169	0	32654	32836	35364	
2170	0	32644	32692	35335	
2171	0	32728	32664	35334	
2172	0	32744	32620	35328	
2173	0	32728	32700	35329	
2174	0	32860	32676	35308	
2175	0	32876	32809	35325	
2176	0	33032	32720	35309	
2177	0	32900	32764	35302	
2178	0	32868	32773	35305	
2179	0	32816	32743	35314	
2180	0	32785	32856	35337	
2181	0	32788	32869	35353	
2182	0	32756	32942	35334	
2183	0	32788	32908	35332	
2184	0	32688	32998	35341	
2185	0	32775	33031	35332	
2186	0	32722	33036	35316	
2187	0	32648	32982	35348	
2188	0	32709	33026	35368	
2189	0	32728	32792	35342	
2190	0	32676	32825	35352	
2191	0	32690	32777	35364	
2192	0	32702	32706	35348	
2193	0	32828	32652	35349	
2194	0	32872	32652	35329	
2195	0	32912	32732	35324	
2196	0	32844	32680	35325	
2197	0	32860	32744	35309	
2198	0	32894	32740	35304	
2199	0	32893	32684	35303	
2200	0	32829	32737	35308	
2201	0	32836	32872	35327	
2202	0	32794	32892	35340	
2203	0	32780	32969	35322	
2204	0	32805	33142	35340	
2205	0	32724	33132	35329	
2206	0	32737	33049	35316	
2207	0	32664	33029	35344	
2208	0	32712	32760	35352	
2209	0	32706	32799	35357	
2210	0	32766	32932	35357	
2211	0	32724	32672	35348	
2212	0	32777	32712	35348	
2213	0	32832	32696	35360	
2214	0	32777	32700	35352	
2215	0	32868	32743	35342	
2216	0	32912	32800	35352	
2217	0	32857	32811	35348	
2218	0	32870	32736	35348	
2219	0	32832	32756	35324	
2220	0	32864	32689	35300	
2221	0	32801	32756	35297	
2222	0	32784	32806	35293	
2223	0	32868	32902	35315	
2224	0	32765	32932	35316	
2225	0	32736	32964	35318	
2226	0	32752	32959	35313	
2227	0	32676	32964	35332	
2228	0	32730	32888	35327	
2229	0	32724	32880	35357	
2230	0	32704	32790	35359	
2231	0	32704	32897	35348	
2232	0	32728	32740	35348	
2233	0	32788	32767	35342	
2234	0	32939	32658	35324	
2235	0	32918	32660	35317	
2236	0	32876	32676	35317	
2237	0	32888	32612	35319	
2238	0	32909	32688	35308	
2239	0	32848	32759	35300	
2240	0	32876	32775	35297	
2241	0	32788	32864	35298	
2242	0	32744	32900	35313	
2243	0	32804	32884	35327	
2244	0	32736	32927	35340	
2245	0	32704	33052	35333	
2246	0	32775	32964	35316	
2247	0	32704	33004	35345	
2248	0	32624	32993	35328	
2249	0	32670	32917	35329	
2250	0	32704	32849	35340	
2251	0	32684	32788	35348	
2252	0	32780	32697	35326	
2253	0	32848	32694	35334	
2254	0	32836	32723	35332	
2255	0	32908	32674	35314	
2256	0	32896	32676	35320	
2257	0	32904	32760	35324	
2258	0	32884	32700	35325	
2259	0	32857	32645	35334	
2260	0	32836	32689	35332	
2261	0	32796	32775	35320	
2262	0	32812	32852	35316	
2263	0	32756	32946	35328	
2264	0	32744	33014	35334	
2265	0	32772	32980	35308	
2266	0	32712	33112	35328	
2267	0	32728	33025	35329	
2268	0	32733	32860	35335	
2269	0	32736	32836	35343	
2270	0	32722	32819	35326	
2271	0	32712	32805	35334	
2272	0	32688	32720	35348	
2273	0	32852	32789	35344	
2274	0	32885	32801	35316	
2275	0	32920	32772	35328	
2276	0	32884	32672	35325	
2277	0	32921	32752	35324	
2278	0	32885	32790	35316	
2279	0	32840	32697	35316	
2280	0	32846	32652	35300	
2281	0	32800	32792	35308	
2282	0	32834	32997	35324	
2283	0	32764	32905	35328	
2284	0	32758	32920	35352	
2285	0	32692	33008	35356	
2286	0	32736	33076	35356	
2287	0	32748	32930	35373	
2288	0	32672	32876	35364	
2289	0	32745	32804	35356	
2290	0	32637	32868	35361	
2291	0	32708	32672	35352	
2292	0	32704	32688	35380	
2293	0	32760	32757	35352	
2294	0	32812	32656	35348	
2295	0	32877	32912	35335	
2296	0	32958	32831	35340	
2297	0	32980	32770	35328	
2298	0	32846	32725	35324	
2299	0	32904	32754	35324	
2300	0	32836	32670	35318	
2301	0	32804	32702	35316	
2302	0	32770	32936	35300	
2303	0	32836	32937	35311	
2304	0	32677	33004	35325	
2305	0	32704	33047	35340	
2306	0	32724	33096	35337	
2307	0	32716	33064	35348	
2308	0	32692	32872	35358	
2309	0	32648	32917	35380	
2310	0	32662	32805	35392	
2311	0	32696	32733	35377	
2312	0	32753	32808	35352	
2313	0	32820	32749	35335	
2314	0	32844	32676	35352	
2315	0	32852	32856	35361	
2316	0	32908	32809	35348	
2317	0	32992	32808	35332	
2318	0	32890	32694	35321	
2319	0	32928	32775	35329	
2320	0	32900	32816	35321	
2321	0	32796	32884	35348	
2322	0	32756	32953	35335	
2323	0	32736	32912	35356	
2324	0	32768	32874	35349	
2325	0	32782	32972	35332	
2326	0	32669	33046	35349	
2327	0	32720	33048	35340	
2328	0	32736	32932	35330	
2329	0	32628	32828	35332	
2330	0	32656	32812	35329	
2331	0	32736	32845	35320	
2332	0	32761	32654	35320	
2333	0	32736	32837	35296	
2334	0	32880	32773	35287	
2335	0	32924	32756	35324	
2336	0	32908	32724	35301	
2337	0	32920	32856	35314	
2338	0	32872	32780	35322	
2339	0	32864	32644	35305	
2340	0	32878	32711	35313	
2341	0	32788	32794	35305	
2342	0	32784	32866	35325	
2343	0	32760	32952	35332	
2344	0	32768	32999	35326	
2345	0	32708	32941	35351	
2346	0	32760	32924	35368	
2347	0	32720	33044	35361	
2348	0	32670	32869	35351	
2349	0	32740	32800	35360	
2350	0	32696	32836	35364	
2351	0	32704	32692	35340	
2352	0	32720	32655	35329	
2353	0	32748	32732	35312	
2354	0	32804	32775	35326	
2355	0	32824	32744	35335	
2356	0	32812	32720	35340	
2357	0	32938	32714	35329	
2358	0	32872	32680	35304	
2359	0	32908	32783	35316	
2360	0	32884	32845	35300	
2361	0	32815	32876	35314	
2362	0	32816	32936	35321	
2363	0	32798	32916	35308	
2364	0	32694	33052	35316	
2365	0	32733	33098	35346	
2366	0	32784	32972	35348	
2367	0	32701	33030	35358	
2368	0	32688	32879	35340	
2369	0	32648	32877	35354	
2370	0	32724	32792	35348	
2371	0	32744	32836	35354	
2372	0	32710	32878	35356	
2373	0	32762	32773	35364	
2374	0	32776	32709	35344	
2375	0	32906	32768	35327	
2376	0	32917	32775	35344	
2377	0	32869	32712	35348	
2378	0	32902	32741	35327	
2379	0	32872	32669	35328	
2380	0	32839	32696	35316	
2381	0	32854	32813	35334	
2382	0	32836	32879	35340	
2383	0	32800	32916	35341	
2384	0	32720	32878	35347	
2385	0	32730	32953	35334	
2386	0	32663	32942	35340	
2387	0	32704	33031	35370	
2388	0	32728	32917	35380	
2389	0	32669	32830	35360	
2390	0	32708	32908	35342	
2391	0	32706	32842	35348	
2392	0	32744	32708	35328	
2393	0	32748	32736	35318	
2394	0	32804	32665	35320	
2395	0	32932	32723	35335	
2396	0	32894	32720	35335	
2397	0	32964	32746	35332	
2398	0	32904	32726	35324	
2399	0	32884	32712	35296	
2400	0	32836	32773	35320	
2401	0	32832	32832	35335	
2402	0	32769	32968	35335	
2403	0	32760	32878	35356	
2404	0	32704	32936	35370	
2405	0	32728	33054	35372	
2406	0	32718	33019	35372	
2407	0	32704	32836	35372	
2408	0	32720	32860	35357	
2409	0	32625	32868	35328	
2410	0	32732	32832	35327	
2411	0	32737	32687	35335	
2412	0	32696	32802	35326	
2413	0	32850	32872	35316	
2414	0	32764	32663	35305	
2415	0	32837	32709	35325	
2416	0	32862	32729	35309	
2417	0	32894	32792	35314	
2418	0	32821	32673	35305	
2419	0	32881	32786	35314	
2420	0	32824	32832	35312	
2421	0	32837	32804	35324	
2422	0	32785	32983	35336	
2423	0	32760	32988	35348	
2424	0	32734	32876	35348	
2425	0	32776	33082	35335	
2426	0	32684	33072	35343	
2427	0	32748	32976	35358	
2428	0	32680	32924	35332	
2429	0	32732	32912	35349	
2430	0	32698	32722	35341	
2431	0	32776	32791	35340	
2432	0	32764	32850	35335	
2433	0	32828	32645	35340	
2434	0	32848	32784	35335	
2435	0	32876	32905	35327	
2436	0	32900	32717	35321	
2437	0	32904	32625	35313	
2438	0	32898	32736	35335	
2439	0	32826	32793	35316	
2440	0	32824	32792	35299	
2441	0	32880	32937	35297	
2442	0	32844	32882	35280	
2443	0	32816	32849	35292	
2444	0	32700	32996	35335	
2445	0	32688	32975	35332	
2446	0	32760	32982	35364	
2447	0	32712	32920	35364	
2448	0	32736	32853	35373	
2449	0	32712	32800	35356	
2450	0	32644	32884	35348	
2451	0	32680	32828	35345	
2452	0	32752	32733	35316	
2453	0	32800	32656	35332	
2454	0	32796	32727	35320	
2455	0	32852	32780	35334	
2456	0	32896	32900	35324	
2457	0	32937	32856	35332	
2458	0	32820	32648	35343	
2459	0	32840	32670	35332	
2460	0	32842	32758	35331	
2461	0	32852	32724	35340	
2462	0	32856	32864	35333	
2463	0	32752	32954	35336	
2464	0	32740	33028	35336	
2465	0	32748	32984	35332	
2466	0	32716	33004	35335	
2467	0	32744	32948	35345	
2468	0	32680	32898	35328	
2469	0	32738	32743	35316	
2470	0	32660	32728	35322	
2471	0	32738	32700	35326	
2472	0	32740	32676	35317	
2473	0	32817	32724	35328	
2474	0	32828	32735	35327	
2475	0	32793	32692	35316	
2476	0	32972	32775	35316	
2477	0	32924	32780	35302	
2478	0	32876	32741	35293	
2479	0	32828	32724	35312	
2480	0	32900	32832	35300	
2481	0	32809	32953	35314	
2482	0	32808	32868	35302	
2483	0	32781	32972	35328	
2484	0	32797	32952	35326	
2485	0	32737	33042	35336	
2486	0	32716	33132	35348	
2487	0	32652	33002	35368	
2488	0	32701	33030	35356	
2489	0	32720	32932	35349	
2490	0	32692	32810	35348	
2491	0	32709	32861	35335	
2492	0	32757	32872	35321	
2493	0	32765	32733	35340	
2494	0	32808	32640	35333	
2495	0	32960	32708	35335	
2496	0	32864	32732	35344	
2497	0	32885	32708	35329	
2498	0	32847	32704	35341	
2499	0	32847	32791	35324	
2500	0	32937	32796	35304	
2501	0	32868	32784	35308	
2502	0	32856	32816	35328	
2503	0	32772	32890	35330	
2504	0	32752	33004	35356	
2505	0	32696	32991	35359	
2506	0	32744	33012	35352	
2507	0	32678	32958	35351	
2508	0	32736	32892	35345	
2509	0	32660	32738	35352	
2510	0	32736	32744	35364	
2511	0	32676	32793	35359	
2512	0	32788	32841	35321	
2513	0	32800	32792	35324	
2514	0	32856	32701	35316	
2515	0	32825	32796	35304	
2516	0	32829	32862	35312	
2517	0	32876	32668	35309	
2518	0	32892	32759	35328	
2519	0	32830	32847	35325	
2520	0	32852	32828	35319	
2521	0	32886	32820	35332	
2522	0	32848	32860	35328	
2523	0	32808	32965	35332	
2524	0	32730	32965	35340	
2525	0	32749	33132	35360	
2526	0	32693	33040	35361	
2527	0	32688	32960	35361	
2528	0	32686	32844	35345	
2529	0	32736	32804	35356	
2530	0	32694	32802	35340	
2531	0	32708	32680	35325	
2532	0	32772	32666	35313	
2533	0	32716	32708	35316	
2534	0	32888	32700	35310	
2535	0	32832	32825	35304	
2536	0	32944	32724	35318	
2537	0	32856	32742	35316	
2538	0	32924	32728	35296	
2539	0	32876	32772	35300	
2540	0	32880	32789	35300	
2541	0	32876	32865	35284	
2542	0	32748	32868	35311	
2543	0	32804	32933	35317	
2544	0	32708	33000	35328	
2545	0	32748	33005	35332	
2546	0	32693	33061	35341	
2547	0	32664	33052	35352	
2548	0	32724	32902	35345	
2549	0	32702	32936	35332	
2550	0	32669	32822	35328	
2551	0	32661	32658	35341	
2552	0	32664	32646	35333	
2553	0	32868	32808	35328	
2554	0	32840	32741	35324	
2555	0	32860	32801	35326	
2556	0	32892	32849	35335	
2557	0	32878	32813	35333	
2558	0	32900	32720	35330	
2559	0	32864	32728	35328	
2560	0	32896	32832	35326	
2561	0	32792	32770	35344	
2562	0	32892	32972	35359	
2563	0	32837	32964	35356	
2564	0	32696	32904	35356	
2565	0	32762	33036	35348	
2566	0	32656	33031	35361	
2567	0	32640	32980	35348	
2568	0	32716	32896	35376	
2569	0	32677	32856	35377	
2570	0	32704	32753	35372	
2571	0	32713	32852	35380	
2572	0	32769	32798	35360	
2573	0	32764	32800	35357	
2574	0	32824	32676	35329	
2575	0	32832	32797	35320	
2576	0	32852	32736	35328	
2577	0	32917	32577	35304	
2578	0	32892	32644	35321	
2579	0	32864	32668	35316	
2580	0	32876	32765	35325	
2581	0	32868	32785	35310	
2582	0	32820	32868	35311	
2583	0	32769	32906	35300	
2584	0	32749	32968	35314	
2585	0	32766	33060	35335	
2586	0	32712	33133	35352	
2587	0	32688	32924	35349	
2588	0	32717	32931	35335	
2589	0	32648	32856	35328	
2590	0	32669	32832	35322	
2591	0	32697	32775	35335	
2592	0	32716	32806	35335	
2593	0	32804	32812	35346	
2594	0	32804	32708	35324	
2595	0	32856	32730	35313	
2596	0	32876	32669	35303	
2597	0	32924	32680	35286	
2598	0	32920	32741	35290	
2599	0	32872	32689	35325	
2600	0	32868	32694	35326	
2601	0	32836	32912	35332	
2602	0	32800	32904	35352	
2603	0	32792	32949	35345	
2604	0	32764	32958	35349	
2605	0	32732	33056	35365	
2606	0	32670	33084	35367	
2607	0	32744	33132	35367	
2608	0	32753	32926	35372	
2609	0	32668	32921	35380	
2610	0	32732	32860	35367	
2611	0	32714	32772	35370	
2612	0	32688	32774	35365	
2613	0	32796	32668	35356	
2614	0	32852	32806	35348	
2615	0	32884	32808	35346	
2616	0	32880	32708	35329	
2617	0	32817	32681	35300	
2618	0	32820	32684	35296	
2619	0	32840	32716	35308	
2620	0	32848	32799	35318	
2621	0	32836	32775	35300	
2622	0	32829	32900	35287	
2623	0	32880	32948	35295	
2624	0	32748	32954	35296	
2625	0	32744	33052	35305	
2626	0	32676	33144	35318	
2627	0	32604	32989	35320	
2628	0	32706	33014	35329	
2629	0	32652	33028	35329	
2630	0	32696	32932	35352	
2631	0	32713	32728	35378	
2632	0	32758	32759	35348	
2633	0	32816	32660	35329	
2634	0	32750	32646	35335	
2635	0	32813	32646	35328	
2636	0	32916	32662	35341	
2637	0	32920	32656	35334	
2638	0	32878	32692	35334	
2639	0	32908	32708	35304	
2640	0	32868	32748	35318	
2641	0	32868	32764	35312	
2642	0	32820	32872	35304	
2643	0	32834	32856	35306	
2644	0	32773	33057	35333	
2645	0	32748	32980	35332	
2646	0	32705	32992	35353	
2647	0	32697	32964	35350	
2648	0	32685	32900	35361	
2649	0	32732	32869	35359	
2650	0	32700	32828	35360	
2651	0	32700	32825	35341	
2652	0	32753	32805	35332	
2653	0	32805	32788	35328	
2654	0	32860	32630	35332	
2655	0	32860	32684	35309	
2656	0	32860	32748	35310	
2657	0	32896	32666	35304	
2658	0	32886	32703	35313	
2659	0	32836	32745	35308	
2660	0	32924	32814	35308	
2661	0	32814	32836	35308	
2662	0	32844	32718	35284	
2663	0	32785	32872	35300	
2664	0	32732	33008	35308	
2665	0	32736	32944	35320	
2666	0	32724	33064	35333	
2667	0	32644	33022	35349	
2668	0	32748	32961	35368	
2669	0	32704	32824	35335	
2670	0	32726	32828	35302	
2671	0	32728	32812	35316	
2672	0	32706	32752	35311	
2673	0	32752	32769	35335	
2674	0	32816	32782	35348	
2675	0	32830	32685	35332	
2676	0	32860	32750	35348	
2677	0	32880	32756	35324	
2678	0	32877	32692	35311	
2679	0	32836	32740	35284	
2680	0	32760	32700	35300	
2681	0	32846	32810	35312	
2682	0	32828	33009	35311	
2683	0	32797	32909	35304	
2684	0	32784	32884	35317	
2685	0	32741	32980	35330	
2686	0	32685	32964	35357	
2687	0	32729	32896	35358	
2688	0	32752	32927	35357	
2689	0	32748	32932	35348	
2690	0	32745	32760	35369	
2691	0	32732	32783	35381	
2692	0	32756	32854	35380	
2693	0	32720	32760	35380	
2694	0	32880	32764	35349	
2695	0	32840	32846	35340	
2696	0	32880	32775	35340	
2697	0	32850	32820	35335	
2698	0	32872	32760	35324	
2699	0	32864	32647	35309	
2700	0	32865	32732	35333	
2701	0	32817	32804	35345	
2702	0	32804	32898	35345	
2703	0	32760	33018	35341	
2704	0	32740	32997	35356	
2705	0	32752	32966	35349	
2706	0	32772	33122	35356	
2707	0	32716	32952	35356	
2708	0	32736	32826	35360	
2709	0	32688	32788	35335	
2710	0	32688	32790	35344	
2711	0	32789	32804	35349	
2712	0	32777	32852	35334	
2713	0	32760	32657	35332	
2714	0	32816	32695	35317	
2715	0	32856	32664	35333	
2716	0	32852	32620	35335	
2717	0	32888	32655	35316	
2718	0	32884	32720	35308	
2719	0	32888	32644	35284	
2720	0	32848	32783	35297	
2721	0	32868	32805	35298	
2722	0	32804	32876	35296	
2723	0	32832	33008	35300	
2724	0	32764	32981	35288	
2725	0	32760	33000	35324	
2726	0	32684	33004	35352	
2727	0	32692	32984	35343	
2728	0	32644	32976	35325	
2729	0	32692	33037	35335	
2730	0	32712	32904	35334	
2731	0	32720	32737	35341	
2732	0	32836	32764	35332	
2733	0	32748	32804	35345	
2734	0	32824	32764	35335	
2735	0	32894	32838	35318	
2736	0	32928	32816	35329	
2737	0	32968	32754	35308	
2738	0	32880	32753	35308	
2739	0	32888	32678	35305	
2740	0	32904	32724	35292	
2741	0	32832	32813	35306	
2742	0	32792	32906	35304	
2743	0	32810	32884	35335	
2744	0	32728	32900	35330	
2745	0	32784	33094	35322	
2746	0	32700	33033	35334	
2747	0	32677	32887	35328	
2748	0	32700	32822	35340	
2749	0	32681	32941	35352	
2750	0	32676	32775	35348	
2751	0	32713	32821	35364	
2752	0	32668	32693	35343	
2753	0	32766	32820	35345	
2754	0	32760	32572	35344	
2755	0	32876	32760	35349	
2756	0	32862	32938	35325	
2757	0	32796	32712	35316	
2758	0	32896	32649	35292	
2759	0	32889	32676	35277	
2760	0	32888	32696	35296	
2761	0	32784	32784	35308	
2762	0	32824	32900	35316	
2763	0	32774	32935	35300	
2764	0	32724	32888	35313	
2765	0	32804	33004	35327	
2766	0	32728	33132	35324	
2767	0	32732	33040	35334	
2768	0	32700	32941	35345	
2769	0	32681	32856	35358	
2770	0	32734	32790	35320	
2771	0	32676	32746	35316	
2772	0	32716	32720	35312	
2773	0	32764	32708	35321	
2774	0	32881	32660	35326	
2775	0	32888	32796	35316	
2776	0	32929	32692	35312	
2777	0	32922	32762	35329	
2778	0	32892	32804	35335	
2779	0	32864	32712	35332	
2780	0	32852	32816	35302	
2781	0	32836	32842	35312	
2782	0	32796	32831	35335	
2783	0	32796	32909	35336	
2784	0	32784	32964	35340	
2785	0	32692	33074	35356	
2786	0	32672	33008	35342	
2787	0	32606	32948	35348	
2788	0	32704	32972	35364	
2789	0	32752	32948	35372	
2790	0	32653	32794	35365	
2791	0	32716	32766	35378	
2792	0	32716	32806	35380	
2793	0	32828	32684	35384	
2794	0	32852	32696	35385	
2795	0	32912	32710	35364	
2796	0	32832	32764	35354	
2797	0	32892	32682	35333	
2798	0	32921	32668	35322	
2799	0	32837	32828	35326	
2800	0	32836	32824	35318	
2801	0	32868	32756	35320	
2802	0	32852	32884	35305	
2803	0	32849	32947	35335	
2804	0	32704	32924	35328	
2805	0	32728	32958	35330	
2806	0	32684	33103	35334	
2807	0	32680	33136	35335	
2808	0	32714	32986	35334	
2809	0	32722	32772	35332	
2810	0	32708	32748	35318	
2811	0	32744	32704	35310	
2812	0	32628	32803	35302	
2813	0	32756	32789	35308	
2814	0	32820	32700	35316	
2815	0	32865	32677	35318	
2816	0	32948	32708	35332	
2817	0	32908	32592	35312	
2818	0	32840	32725	35296	
2819	0	32901	32860	35274	
2820	0	32856	32780	35300	
2821	0	32876	32756	35321	
2822	0	32800	32852	35346	
2823	0	32772	32991	35308	
2824	0	32764	32908	35320	
2825	0	32740	33015	35311	
2826	0	32640	32973	35320	
2827	0	32680	33012	35328	
2828	0	32676	32930	35329	
2829	0	32728	32848	35314	
2830	0	32741	32782	35322	
2831	0	32712	32805	35316	
2832	0	32753	32878	35309	
2833	0	32848	32672	35317	
2834	0	32804	32678	35328	
2835	0	32764	32694	35335	
2836	0	32832	32720	35353	
2837	0	32872	32694	35353	
2838	0	32828	32669	35340	
2839	0	32872	32616	35332	
2840	0	32908	32762	35316	
2841	0	32821	32832	35341	
2842	0	32868	32832	35340	
2843	0	32832	32986	35335	
2844	0	32828	32978	35348	
2845	0	32752	32974	35357	
2846	0	32732	33020	35377	
2847	0	32720	32884	35364	
2848	0	32732	32828	35358	
2849	0	32664	32844	35356	
2850	0	32664	32924	35356	
2851	0	32664	32862	35348	
2852	0	32720	32692	35335	
2853	0	32801	32752	35318	
2854	0	32762	32712	35318	
2855	0	32872	32789	35302	
2856	0	32912	32865	35306	
2857	0	32916	32600	35309	
2858	0	32807	32648	35300	
2859	0	32885	32783	35308	
2860	0	32841	32673	35288	
2861	0	32772	32804	35304	
2862	0	32864	32935	35324	
2863	0	32792	32978	35333	
2864	0	32788	32996	35350	
2865	0	32816	32995	35368	
2866	0	32777	33113	35352	
2867	0	32660	33048	35364	
2868	0	32675	32888	35380	
2869	0	32724	32748	35372	
2870	0	32656	32738	35372	
2871	0	32669	32740	35345	
2872	0	32708	32768	35341	
2873	0	32688	32722	35367	
2874	0	32790	32613	35360	
2875	0	32836	32597	35348	
2876	0	32912	32768	35342	
2877	0	32896	32752	35348	
2878	0	32852	32777	35335	
2879	0	32833	32796	35314	
2880	0	32883	32943	35316	
2881	0	32820	32848	35296	
2882	0	32784	32942	35318	
2883	0	32764	32921	35320	
2884	0	32736	33036	35314	
2885	0	32756	33089	35329	
2886	0	32756	32989	35356	
2887	0	32640	33080	35377	
2888	0	32744	33004	35370	
2889	0	32741	32772	35385	
2890	0	32703	32701	35392	
2891	0	32704	32815	35412	
2892	0	32764	32896	35413	
2893	0	32784	32688	35409	
2894	0	32768	32597	35396	
2895	0	32832	32696	35381	
2896	0	32868	32854	35373	
2897	0	32856	32668	35360	
2898	0	32840	32660	35356	
2899	0	32840	32716	35367	
2900	0	32858	32749	35372	
2901	0	32824	32724	35342	
2902	0	32824	32893	35324	
2903	0	32830	33014	35314	
2904	0	32700	33016	35311	
2905	0	32852	33044	35312	
2906	0	32764	33074	35321	
2907	0	32804	33144	35332	
2908	0	32765	32986	35317	
2909	0	32628	32818	35335	
2910	0	32620	32885	35309	
2911	0	32708	32740	35300	
2912	0	32704	32748	35300	
2913	0	32782	32752	35290	
2914	0	32788	32601	35294	
2915	0	32764	32665	35285	
2916	0	32858	32854	35301	
2917	0	32845	32672	35305	
2918	0	32832	32720	35316	
2919	0	32792	32741	35332	
2920	0	32812	32776	35320	
2921	0	32836	32805	35320	
2922	0	32848	32952	35332	
2923	0	32808	33004	35335	
2924	0	32864	32996	35360	
2925	0	32849	33046	35325	
2926	0	32860	33008	35357	
2927	0	32668	32964	35354	
2928	0	32689	32913	35352	
2929	0	32716	32848	35352	
2930	0	32680	32768	35342	
2931	0	32704	32756	35301	
2932	0	32696	32729	35320	
2933	0	32730	32669	35309	
2934	0	32792	32663	35325	
2935	0	32856	32716	35320	
2936	0	32858	32706	35316	
2937	0	32802	32781	35296	
2938	0	32860	32685	35308	
2939	0	32820	32734	35293	
2940	0	32844	32800	35304	
2941	0	32848	32863	35295	
2942	0	32834	32832	35305	
2943	0	32850	32900	35285	
2944	0	32849	33056	35296	
2945	0	32780	33201	35300	
2946	0	32746	33015	35308	
2947	0	32776	33044	35309	
2948	0	32744	33140	35310	
2949	0	32680	32812	35324	
2950	0	32669	32650	35325	
2951	0	32676	32730	35332	
2952	0	32720	32696	35316	
2953	0	32740	32679	35304	
2954	0	32788	32692	35327	
2955	0	32808	32728	35334	
2956	0	32828	32794	35341	
2957	0	32849	32684	35368	
2958	0	32856	32636	35344	
2959	0	32832	32717	35359	
2960	0	32884	32866	35320	
2961	0	32844	32816	35308	
2962	0	32892	32904	35331	
2963	0	32825	32900	35355	
2964	0	32826	32892	35376	
2965	0	32802	33008	35364	
2966	0	32728	33034	35382	
2967	0	32704	32953	35384	
2968	0	32744	32944	35408	
2969	0	32761	32820	35421	
2970	0	32720	32824	35405	
2971	0	32696	32813	35396	
2972	0	32720	32716	35396	
2973	0	32764	32740	35380	
2974	0	32708	32684	35372	
2975	0	32796	32596	35364	
2976	0	32900	32704	35361	
2977	0	32896	32699	35360	
2978	0	32889	32622	35364	
2979	0	32864	32680	35364	
2980	0	32880	32740	35365	
2981	0	32773	32860	35353	
2982	0	32840	33015	35357	
2983	0	32872	33012	35336	
2984	0	32760	33024	35345	
2985	0	32804	32976	35352	
2986	0	32768	33093	35348	
2987	0	32744	33134	35358	
2988	0	32749	32964	35356	
2989	0	32696	32807	35355	
2990	0	32650	32682	35356	
2991	0	32740	32758	35368	
2992	0	32696	32824	35365	
2993	0	32790	32730	35364	
2994	0	32741	32709	35353	
2995	0	32794	32708	35324	
2996	0	32760	32775	35320	
2997	0	32788	32700	35320	
2998	0	32780	32600	35328	
2999	0	32774	32656	35309	
3000	0	32756	32700	35300	
3001	0	32812	32708	35305	
3002	0	32736	32916	35302	
3003	0	32868	32892	35308	
3004	0	32892	32948	35318	
3005	0	32876	33040	35335	
3006	0	32900	33094	35325	
3007	0	32834	33144	35342	
3008	0	32920	33095	35332	
3009	0	32797	32863	35334	
3010	0	32784	32834	35334	
3011	0	32696	32868	35348	
3012	0	32660	32842	35333	
3013	0	32714	32657	35342	
3014	0	32672	32748	35321	
3015	0	32764	32720	35316	
3016	0	32780	32641	35323	
3017	0	32762	32668	35320	
3018	0	32780	32630	35316	
3019	0	32756	32660	35293	
3020	0	32812	32616	35280	
3021	0	32756	32708	35286	
3022	0	32757	32920	35303	
3023	0	32852	33181	35320	
3024	0	32837	32978	35320	
3025	0	32928	33181	35334	
3026	0	32946	33136	35344	
3027	0	32844	33175	35340	
3028	0	32876	33194	35334	
3029	0	32724	32841	35350	
3030	0	32773	32824	35345	
3031	0	32728	32860	35341	
3032	0	32704	32764	35335	
3033	0	32660	32740	35340	
3034	0	32740	32752	35335	
3035	0	32752	32536	35321	
3036	0	32777	32604	35309	
3037	0	32808	32678	35308	
3038	0	32752	32659	35290	
3039	0	32768	32588	35285	
3040	0	32808	32635	35292	
3041	0	32732	32783	35302	
3042	0	32760	32774	35311	
3043	0	32881	32903	35341	
3044	0	32818	33038	35343	
3045	0	32856	33064	35340	
3046	0	32836	33145	35348	
3047	0	32796	33130	35340	
3048	0	32874	33054	35340	
3049	0	32776	32930	35357	
3050	0	32696	32901	35384	
3051	0	32740	32765	35360	
3052	0	32732	32781	35349	
3053	0	32740	32736	35340	
3054	0	32740	32594	35312	
3055	0	32736	32540	35300	
3056	0	32738	32694	35304	
3057	0	32749	32614	35301	
3058	0	32766	32624	35294	
3059	0	32744	32621	35296	
3060	0	32792	32641	35312	
3061	0	32716	32776	35298	
3062	0	32860	32924	35292	
3063	0	32888	32989	35276	
3064	0	32845	33076	35290	
3065	0	32865	33204	35310	
3066	0	32881	33216	35332	
3067	0	32885	33166	35357	
3068	0	32876	33021	35340	
3069	0	32796	32964	35370	
3070	0	32704	32895	35364	
3071	0	32732	32725	35344	
3072	0	32740	32749	35348	
3073	0	32704	32758	35341	
3074	0	32748	32673	35344	
3075	0	32800	32704	35320	
3076	0	32776	32752	35309	
3077	0	32758	32672	35300	
3078	0	32800	32589	35297	
3079	0	32717	32711	35296	
3080	0	32786	32593	35289	
3081	0	32740	32816	35260	
3082	0	32804	32839	35276	
3083	0	32896	32966	35288	
3084	0	32796	32998	35298	
3085	0	32894	33052	35304	
3086	0	32912	33065	35320	
3087	0	32856	33024	35356	
3088	0	32868	32986	35352	
3089	0	32817	32897	35335	
3090	0	32790	32718	35324	
3091	0	32696	32868	35319	
3092	0	32708	32800	35334	
3093	0	32736	32696	35320	
3094	0	32780	32502	35308	
3095	0	32764	32661	35292	
3096	0	32780	32760	35280	
3097	0	32812	32584	35301	
3098	0	32774	32599	35288	
3099	0	32710	32576	35290	
3100	0	32752	32676	35284	
3101	0	32712	32807	35306	
3102	0	32804	32930	35288	
3103	0	32821	33053	35308	
3104	0	32836	33099	35335	
3105	0	32916	33137	35348	
3106	0	32840	33224	35328	
3107	0	32828	33120	35341	
3108	0	32812	33022	35335	
3109	0	32840	32864	35332	
3110	0	32772	32740	35335	
3111	0	32724	32740	35335	
3112	0	32726	32686	35351	
3113	0	32713	32646	35332	
3114	0	32740	32599	35332	
3115	0	32666	32687	35328	
3116	0	32748	32720	35320	
3117	0	32821	32682	35336	
3118	0	32824	32606	35332	
3119	0	32808	32692	35321	
3120	0	32760	32705	35310	
3121	0	32776	32754	35320	
3122	0	32865	32876	35340	
3123	0	32800	33024	35357	
3124	0	32868	32984	35359	
3125	0	32832	33193	35360	
3126	0	32813	33172	35378	
3127	0	32821	33156	35373	
3128	0	32884	33111	35376	
3129	0	32772	32856	35377	
3130	0	32776	32592	35380	
3131	0	32736	32589	35328	
3132	0	32716	32745	35328	
3133	0	32721	32710	35352	
3134	0	32730	32577	35342	
3135	0	32728	32642	35326	
3136	0	32748	32652	35329	
3137	0	32797	32600	35313	
3138	0	32776	32649	35296	
3139	0	32768	32716	35296	
3140	0	32800	32736	35308	
3141	0	32802	32770	35320	
3142	0	32782	32859	35317	
3143	0	32824	33012	35335	
3144	0	32816	33060	35325	
3145	0	32914	33268	35340	
3146	0	32916	33294	35352	
3147	0	32834	33165	35365	
3148	0	32808	33006	35356	
3149	0	32812	32860	35335	
3150	0	32768	32864	35337	
3151	0	32744	32815	35332	
3152	0	32692	32758	35324	
3153	0	32664	32681	35328	
3154	0	32792	32649	35316	
3155	0	32735	32632	35310	
3156	0	32816	32722	35309	
3157	0	32788	32745	35300	
3158	0	32720	32564	35289	
3159	0	32801	32572	35278	
3160	0	32764	32656	35284	
3161	0	32718	32796	35292	
3162	0	32756	32869	35308	
3163	0	32828	32960	35300	
3164	0	32804	33000	35300	
3165	0	32880	33104	35304	
3166	0	32836	33197	35316	
3167	0	32812	33061	35303	
3168	0	32844	33005	35315	
3169	0	32873	33054	35311	
3170	0	32740	32732	35334	
3171	0	32724	32732	35325	
3172	0	32704	32832	35311	
3173	0	32712	32678	35316	
3174	0	32756	32636	35332	
3175	0	32805	32645	35306	
3176	0	32732	32576	35328	
3177	0	32740	32764	35309	
3178	0	32748	32558	35296	
3179	0	32760	32609	35268	
3180	0	32762	32767	35265	
3181	0	32812	32805	35279	
3182	0	32690	32844	35284	
3183	0	32836	32961	35286	
3184	0	32852	33096	35320	
3185	0	32892	33028	35324	
3186	0	32852	33128	35326	
3187	0	32856	33158	35318	
3188	0	32903	33031	35303	
3189	0	32772	32903	35302	
3190	0	32740	32848	35311	
3191	0	32732	32773	35305	
3192	0	32768	32796	35312	
3193	0	32708	32676	35292	
3194	0	32704	32722	35300	
3195	0	32784	32712	35288	
3196	0	32740	32616	35300	
3197	0	32764	32666	35296	
3198	0	32732	32545	35300	
3199	0	32788	32492	35279	
3200	0	32796	32709	35264	
3201	0	32760	32636	35284	
3202	0	32760	32852	35286	
3203	0	32824	32905	35284	
3204	0	32816	33077	35272	
3205	0	32900	33084	35300	
3206	0	32884	33160	35319	
3207	0	32876	33228	35332	
3208	0	32872	33128	35321	
3209	0	32824	32897	35354	
3210	0	32832	32860	35366	
3211	0	32716	32790	35386	
3212	0	32684	32692	35356	
3213	0	32728	32732	35356	
3214	0	32732	32706	35365	
3215	0	32720	32640	35349	
3216	0	32847	32628	35348	
3217	0	32796	32613	35340	
3218	0	32744	32608	35310	
3219	0	32764	32652	35300	
3220	0	32758	32600	35302	
3221	0	32741	32646	35294	
3222	0	32757	32792	35309	
3223	0	32788	32984	35309	
3224	0	32804	33049	35328	
3225	0	32920	33112	35345	
3226	0	32904	33131	35364	
3227	0	32885	33250	35364	
3228	0	32864	33020	35361	
3229	0	32840	32948	35340	
3230	0	32788	32911	35352	
3231	0	32732	32761	35350	
3232	0	32708	32688	35350	
3233	0	32708	32780	35352	
3234	0	32692	32648	35345	
3235	0	32756	32493	35340	
3236	0	32734	32552	35332	
3237	0	32836	32560	35308	
3238	0	32752	32660	35301	
3239	0	32784	32711	35304	
3240	0	32740	32820	35316	
3241	0	32792	32752	35320	
3242	0	32860	32880	35301	
3243	0	32808	33028	35329	
3244	0	32844	33032	35340	
3245	0	32844	33132	35338	
3246	0	32873	33125	35325	
3247	0	32840	33144	35344	
3248	0	32844	33037	35350	
3249	0	32821	32852	35352	
3250	0	32800	32710	35364	
3251	0	32777	32752	35365	
3252	0	32724	32764	35360	
3253	0	32764	32729	35335	
3254	0	32756	32610	35327	
3255	0	32722	32526	35332	
3256	0	32819	32613	35300	
3257	0	32752	32745	35318	
3258	0	32792	32652	35312	
3259	0	32760	32605	35311	
3260	0	32752	32661	35290	
3261	0	32776	32766	35286	
3262	0	32772	32933	35279	
3263	0	32916	32996	35294	
3264	0	32858	33136	35308	
3265	0	32809	33117	35324	
3266	0	32872	33090	35335	
3267	0	32842	33144	35336	
3268	0	32872	33156	35342	
3269	0	32824	32877	35341	
3270	0	32694	32839	35344	
3271	0	32684	32740	35353	
3272	0	32706	32796	35364	
3273	0	32728	32692	35358	
3274	0	32732	32712	35332	
3275	0	32684	32609	35313	
3276	0	32784	32577	35342	
3277	0	32758	32548	35335	
3278	0	32820	32638	35342	
3279	0	32784	32708	35314	
3280	0	32778	32679	35296	
3281	0	32784	32726	35316	
3282	0	32696	32872	35325	
3283	0	32826	32902	35349	
3284	0	32774	32954	35368	
3285	0	32872	33129	35358	
3286	0	32848	33100	35356	
3287	0	32897	33061	35364	
3288	0	32804	33036	35386	
3289	0	32800	32868	35396	
3290	0	32741	32818	35360	
3291	0	32784	32826	35367	
3292	0	32760	32749	35349	
3293	0	32716	32637	35348	
3294	0	32732	32564	35346	
3295	0	32740	32604	35342	
3296	0	32804	32608	35348	
3297	0	32808	32672	35337	
3298	0	32740	32620	35310	
3299	0	32732	32604	35304	
3300	0	32748	32592	35296	
3301	0	32745	32616	35308	
3302	0	32784	32911	35316	
3303	0	32861	33086	35302	
3304	0	32820	33070	35320	
3305	0	32864	33110	35305	
3306	0	32844	33190	35326	
3307	0	32780	33188	35338	
3308	0	32810	33031	35353	
3309	0	32800	33024	35356	
3310	0	32772	32935	35348	
3311	0	32788	32799	35325	
3312	0	32764	32751	35320	
3313	0	32724	32717	35308	
3314	0	32670	32614	35310	
3315	0	32776	32641	35324	
3316	0	32816	32740	35316	
3317	0	32841	32576	35308	
3318	0	32752	32536	35296	
3319	0	32744	32625	35312	
3320	0	32784	32660	35310	
3321	0	32762	32708	35308	
3322	0	32800	32862	35316	
3323	0	32876	32959	35361	
3324	0	32790	33076	35372	
3325	0	32756	33204	35365	
3326	0	32865	33234	35352	
3327	0	32849	33032	35365	
3328	0	32900	33004	35342	
3329	0	32756	33036	35348	
3330	0	32784	32844	35335	
3331	0	32704	32808	35319	
3332	0	32713	32712	35304	
3333	0	32757	32652	35296	
3334	0	32720	32608	35317	
3335	0	32660	32512	35302	
3336	0	32801	32609	35298	
3337	0	32800	32756	35308	
3338	0	32824	32700	35280	
3339	0	32812	32632	35264	
3340	0	32820	32701	35256	
3341	0	32684	32752	35272	
3342	0	32836	32852	35278	
3343	0	32772	32978	35308	
3344	0	32856	33026	35308	
3345	0	32836	33209	35316	
3346	0	32817	33157	35320	
3347	0	32868	33147	35332	
3348	0	32876	32956	35343	
3349	0	32800	32864	35348	
3350	0	32724	32775	35324	
3351	0	32732	32832	35335	
3352	0	32656	32743	35328	
3353	0	32652	32760	35320	
3354	0	32768	32679	35320	
3355	0	32808	32632	35332	
3356	0	32832	32692	35330	
3357	0	32800	32621	35324	
3358	0	32772	32642	35308	
3359	0	32789	32677	35300	
3360	0	32764	32684	35305	
3361	0	32700	32760	35309	
3362	0	32764	32846	35321	
3363	0	32868	33068	35352	
3364	0	32816	33042	35352	
3365	0	32852	33116	35340	
3366	0	32853	33286	35348	
3367	0	32889	33175	35373	
3368	0	32860	32936	35364	
3369	0	32798	32820	35365	
3370	0	32720	32863	35356	
3371	0	32776	32808	35353	
3372	0	32680	32664	35333	
3373	0	32728	32673	35343	
3374	0	32782	32708	35356	
3375	0	32800	32500	35316	
3376	0	32768	32602	35301	
3377	0	32780	32694	35296	
3378	0	32844	32520	35300	
3379	0	32736	32581	35288	
3380	0	32756	32598	35274	
3381	0	32720	32764	35268	
3382	0	32800	32948	35277	
3383	0	32820	32948	35308	
3384	0	32796	33058	35316	
3385	0	32864	33132	35333	
3386	0	32832	33116	35336	
3387	0	32840	33138	35332	
3388	0	32828	33108	35335	
3389	0	32768	32903	35367	
3390	0	32748	32826	35353	
3391	0	32729	32904	35344	
3392	0	32788	32813	35332	
3393	0	32696	32716	35330	
3394	0	32775	32678	35332	
3395	0	32688	32812	35312	
3396	0	32748	32753	35308	
3397	0	32763	32612	35311	
3398	0	32780	32593	35284	
3399	0	32756	32664	35268	
3400	0	32788	32481	35264	
3401	0	32766	32608	35272	
3402	0	32793	32815	35288	
3403	0	32820	32916	35300	
3404	0	32813	32974	35308	
3405	0	32756	33092	35332	
3406	0	32895	33160	35345	
3407	0	32826	33200	35350	
3408	0	32824	33080	35328	
3409	0	32812	32812	35327	
3410	0	32818	32797	35326	
3411	0	32738	32774	35344	
3412	0	32709	32736	35348	
3413	0	32724	32748	35332	
3414	0	32668	32741	35344	
3415	0	32720	32676	35348	
3416	0	32784	32726	35335	
3417	0	32740	32663	35350	
3418	0	32768	32736	35339	
3419	0	32784	32684	35317	
3420	0	32804	32660	35332	
3421	0	32797	32708	35328	
3422	0	32841	32900	35308	
3423	0	32808	32968	35320	
3424	0	32852	33036	35324	
3425	0	32768	33068	35329	
3426	0	32785	33050	35352	
3427	0	32808	33104	35386	
3428	0	32812	33215	35374	
3429	0	32852	33072	35372	
3430	0	32744	32904	35382	
3431	0	32756	32856	35345	
3432	0	32752	32857	35335	
3433	0	32724	32701	35327	
3434	0	32788	32638	35316	
3435	0	32740	32680	35296	
3436	0	32789	32685	35296	
3437	0	32793	32636	35312	
3438	0	32836	32728	35340	
3439	0	32816	32608	35319	
3440	0	32712	32672	35327	
3441	0	32748	32796	35332	
3442	0	32816	32780	35342	
3443	0	32840	32992	35349	
3444	0	32840	33044	35349	
3445	0	32876	33084	35343	
3446	0	32916	33124	35335	
3447	0	32876	33186	35350	
3448	0	32898	33048	35380	
3449	0	32760	32932	35381	
3450	0	32692	32928	35392	
3451	0	32668	32740	35400	
3452	0	32728	32646	35392	
3453	0	32704	32678	35382	
3454	0	32700	32604	35364	
3455	0	32744	32588	35336	
3456	0	32758	32640	35335	
3457	0	32836	32792	35335	
3458	0	32756	32578	35332	
3459	0	32772	32609	35309	
3460	0	32776	32777	35303	
3461	0	32768	32709	35301	
3462	0	32824	32932	35293	
3463	0	32780	33088	35321	
3464	0	32856	33021	35328	
3465	0	32872	33074	35335	
3466	0	32844	33181	35332	
3467	0	32837	33036	35335	
3468	0	32808	33096	35306	
3469	0	32845	33012	35330	
3470	0	32797	32848	35326	
3471	0	32768	32852	35356	
3472	0	32648	32889	35348	
3473	0	32756	32784	35332	
3474	0	32784	32764	35312	
3475	0	32732	32636	35324	
3476	0	32829	32536	35304	
3477	0	32792	32537	35316	
3478	0	32784	32532	35302	
3479	0	32825	32652	35300	
3480	0	32832	32616	35296	
3481	0	32804	32632	35292	
3482	0	32829	32838	35288	
3483	0	32856	32903	35308	
3484	0	32814	33048	35311	
3485	0	32842	33172	35327	
3486	0	32860	33063	35332	
3487	0	32838	33189	35348	
3488	0	32845	33034	35333	
3489	0	32709	32816	35328	
3490	0	32768	32899	35320	
3491	0	32758	32760	35314	
3492	0	32724	32813	35328	
3493	0	32732	32798	35326	
3494	0	32741	32630	35308	
3495	0	32773	32649	35304	
3496	0	32773	32772	35292	
3497	0	32776	32685	35284	
3498	0	32736	32620	35277	
3499	0	32733	32638	35288	
3500	0	32714	32665	35268	
3501	0	32770	32676	35288	
3502	0	32828	32848	35292	
3503	0	32840	32940	35319	
3504	0	32888	32982	35344	
3505	0	32876	33104	35353	
3506	0	32796	33252	35356	
3507	0	32888	33084	35360	
3508	0	32844	32973	35372	
3509	0	32808	32956	35368	
3510	0	32792	32952	35384	
3511	0	32764	32740	35364	
3512	0	32788	32683	35372	
3513	0	32704	32640	35368	
3514	0	32716	32708	35352	
3515	0	32772	32592	35345	
3516	0	32808	32588	35332	
3517	0	32772	32660	35324	
3518	0	32838	32678	35309	
3519	0	32816	32548	35312	
3520	0	32777	32645	35300	
3521	0	32808	32794	35305	
3522	0	32728	32884	35325	
3523	0	32873	32916	35306	
3524	0	32741	32924	35341	
3525	0	32937	33172	35349	
3526	0	32884	33205	35356	
3527	0	32800	33132	35364	
3528	0	32786	33020	35359	
3529	0	32820	32925	35372	
3530	0	32770	32865	35377	
3531	0	32743	32924	35364	
3532	0	32696	32741	35348	
3533	0	32684	32749	35331	
3534	0	32716	32708	35335	
3535	0	32781	32546	35308	
3536	0	32764	32676	35291	
3537	0	32872	32661	35316	
3538	0	32826	32548	35311	
3539	0	32744	32712	35311	
3540	0	32808	32568	35309	
3541	0	32788	32715	35314	
3542	0	32781	32775	35312	
3543	0	32852	32854	35303	
3544	0	32773	33072	35310	
3545	0	32792	33124	35325	
3546	0	32833	33135	35343	
3547	0	32834	33088	35352	
3548	0	32824	33030	35352	
3549	0	32756	32948	35340	
3550	0	32748	32967	35316	
3551	0	32764	32797	35312	
3552	0	32724	32736	35310	
3553	0	32664	32774	35308	
3554	0	32764	32749	35296	
3555	0	32784	32612	35300	
3556	0	32780	32632	35304	
3557	0	32832	32700	35312	
3558	0	32781	32557	35284	
3559	0	32756	32597	35285	
3560	0	32804	32662	35276	
3561	0	32781	32745	35276	
3562	0	32812	32861	35293	
3563	0	32820	32998	35303	
3564	0	32813	33024	35317	
3565	0	32840	33124	35318	
3566	0	32801	33117	35324	
3567	0	32822	33094	35308	
3568	0	32775	33012	35320	
3569	0	32856	32939	35312	
3570	0	32760	32829	35330	
3571	0	32777	32697	35320	
3572	0	32796	32745	35317	
3573	0	32760	32753	35308	
3574	0	32722	32592	35312	
3575	0	32694	32580	35305	
3576	0	32762	32716	35320	
3577	0	32760	32652	35304	
3578	0	32816	32613	35308	
3579	0	32740	32641	35298	
3580	0	32760	32692	35296	
3581	0	32753	32753	35322	
3582	0	32793	32800	35322	
3583	0	32852	32924	35308	
3584	0	32860	33000	35332	
3585	0	32836	33164	35356	
3586	0	32836	33125	35354	
3587	0	32812	33092	35356	
3588	0	32809	33084	35348	
3589	0	32768	32981	35356	
3590	0	32796	32956	35356	
3591	0	32805	32789	35340	
3592	0	32776	32718	35340	
3593	0	32700	32704	35335	
3594	0	32744	32697	35308	
3595	0	32737	32604	35313	
3596	0	32832	32692	35324	
3597	0	32768	32773	35308	
3598	0	32737	32716	35298	
3599	0	32828	32700	35287	
3600	0	32812	32741	35294	
3601	0	32764	32676	35288	
3602	0	32694	32828	35294	
3603	0	32836	32916	35304	
3604	0	32800	32996	35330	
3605	0	32834	33056	35335	
3606	0	32864	32976	35345	
3607	0	32804	33060	35375	
3608	0	32840	33004	35356	
3609	0	32741	32910	35380	
3610	0	32764	32913	35356	
3611	0	32728	32684	35352	
3612	0	32712	32838	35332	
3613	0	32749	32699	35329	
3614	0	32693	32738	35349	
3615	0	32760	32696	35332	
3616	0	32792	32645	35306	
3617	0	32876	32668	35306	
3618	0	32820	32580	35308	
3619	0	32796	32542	35296	
3620	0	32770	32661	35300	
3621	0	32762	32790	35292	
3622	0	32824	32957	35292	
3623	0	32816	32989	35297	
3624	0	32852	33038	35288	
3625	0	32868	33080	35300	
3626	0	32848	32973	35315	
3627	0	32804	33086	35316	
3628	0	32792	33086	35332	
3629	0	32830	32960	35332	
3630	0	32756	32925	35333	
3631	0	32777	32848	35333	
3632	0	32756	32728	35324	
3633	0	32736	32775	35340	
3634	0	32785	32726	35338	
3635	0	32732	32668	35329	
3636	0	32752	32692	35297	
3637	0	32820	32709	35300	
3638	0	32816	32602	35310	
3639	0	32732	32576	35287	
3640	0	32782	32570	35272	
3641	0	32764	32742	35268	
3642	0	32794	32852	35288	
3643	0	32828	32892	35320	
3644	0	32772	32861	35340	
3645	0	32801	33044	35348	
3646	0	32892	33105	35340	
3647	0	32812	33076	35360	
3648	0	32784	33134	35345	
3649	0	32816	33040	35360	
3650	0	32789	32882	35352	
3651	0	32736	32824	35335	
3652	0	32748	32805	35311	
3653	0	32772	32807	35309	
3654	0	32724	32716	35301	
3655	0	32772	32713	35284	
3656	0	32845	32775	35298	
3657	0	32821	32729	35284	
3658	0	32812	32622	35284	
3659	0	32780	32660	35281	
3660	0	32765	32716	35276	
3661	0	32832	32768	35308	
3662	0	32844	32764	35302	
3663	0	32824	32854	35309	
3664	0	32796	32948	35318	
3665	0	32748	32999	35336	
3666	0	32784	33060	35350	
3667	0	32909	33120	35344	
3668	0	32760	33061	35352	
3669	0	32788	33020	35353	
3670	0	32724	32900	35343	
3671	0	32688	32860	35336	
3672	0	32684	32730	35340	
3673	0	32695	32730	35329	
3674	0	32753	32764	35324	
3675	0	32820	32519	35300	
3676	0	32768	32557	35312	
3677	0	32781	32752	35296	
3678	0	32769	32628	35284	
3679	0	32736	32684	35286	
3680	0	32790	32654	35296	
3681	0	32804	32757	35319	
3682	0	32822	32894	35328	
3683	0	32828	32929	35340	
3684	0	32752	32992	35332	
3685	0	32824	33069	35329	
3686	0	32756	33142	35317	
3687	0	32758	33296	35332	
3688	0	32861	33112	35352	
3689	0	32752	32978	35350	
3690	0	32745	32858	35328	
3691	0	32724	32860	35312	
3692	0	32676	32762	35328	
3693	0	32784	32686	35328	
3694	0	32777	32740	35313	
3695	0	32792	32697	35300	
3696	0	32808	32737	35280	
3697	0	32760	32640	35292	
3698	0	32836	32574	35290	
3699	0	32756	32584	35288	
3700	0	32808	32636	35293	
3701	0	32759	32697	35304	
3702	0	32844	32845	35285	
3703	0	32789	32972	35296	
3704	0	32762	33054	35288	
3705	0	32793	33166	35327	
3706	0	32840	33134	35328	
3707	0	32800	33132	35340	
3708	0	32804	33052	35345	
3709	0	32812	32980	35345	
3710	0	32797	32897	35338	
3711	0	32748	32798	35348	
3712	0	32734	32820	35328	
3713	0	32784	32782	35305	
3714	0	32772	32692	35312	
3715	0	32712	32639	35301	
3716	0	32768	32610	35281	
3717	0	32797	32600	35296	
3718	0	32772	32568	35287	
3719	0	32769	32666	35288	
3720	0	32769	32644	35280	
3721	0	32796	32700	35292	
3722	0	32800	32744	35296	
3723	0	32832	32860	35296	
3724	0	32892	32934	35303	
3725	0	32781	33096	35300	
3726	0	32848	33217	35328	
3727	0	32852	33292	35340	
3728	0	32842	33153	35350	
3729	0	32818	33024	35356	
3730	0	32688	32982	35365	
3731	0	32714	32798	35330	
3732	0	32736	32696	35332	
3733	0	32744	32569	35335	
3734	0	32800	32557	35344	
3735	0	32740	32524	35333	
3736	0	32836	32583	35316	
3737	0	32852	32696	35299	
3738	0	32820	32680	35298	
3739	0	32764	32680	35304	
3740	0	32756	32720	35273	
3741	0	32788	32720	35284	
3742	0	32808	32856	35293	
3743	0	32820	32960	35300	
3744	0	32896	32948	35325	
3745	0	32872	33168	35332	
3746	0	32816	33196	35345	
3747	0	32758	33144	35335	
3748	0	32776	33041	35344	
3749	0	32748	32917	35332	
3750	0	32768	32976	35342	
3751	0	32762	32756	35356	
3752	0	32754	32752	35336	
3753	0	32700	32668	35332	
3754	0	32728	32774	35320	
3755	0	32781	32684	35308	
3756	0	32849	32676	35303	
3757	0	32784	32756	35316	
3758	0	32792	32710	35296	
3759	0	32800	32704	35289	
3760	0	32804	32700	35276	
3761	0	32822	32775	35273	
3762	0	32822	32832	35268	
3763	0	32832	32918	35280	
3764	0	32780	33031	35289	
3765	0	32852	33100	35304	
3766	0	32848	33186	35320	
3767	0	32744	33194	35312	
3768	0	32792	32964	35309	
3769	0	32786	32820	35316	
3770	0	32768	32856	35330	
3771	0	32758	32765	35328	
3772	0	32756	32692	35333	
3773	0	32769	32712	35328	
3774	0	32720	32632	35324	
3775	0	32760	32634	35311	
3776	0	32794	32630	35320	
3777	0	32774	32692	35306	
3778	0	32832	32696	35300	
3779	0	32744	32601	35301	
3780	0	32800	32624	35279	
3781	0	32776	32594	35276	
3782	0	32804	32894	35288	
3783	0	32820	33021	35313	
3784	0	32804	32949	35321	
3785	0	32856	33017	35344	
3786	0	32864	33128	35328	
3787	0	32846	33243	35321	
3788	0	32800	33060	35345	
3789	0	32814	32879	35328	
3790	0	32744	32781	35342	
3791	0	32728	32854	35333	
3792	0	32740	32775	35331	
3793	0	32732	32742	35316	
3794	0	32749	32721	35328	
3795	0	32748	32680	35310	
3796	0	32768	32676	35301	
3797	0	32865	32612	35296	
3798	0	32780	32660	35303	
3799	0	32768	32716	35284	
3800	0	32796	32720	35276	
3801	0	32780	32628	35278	
3802	0	32816	32824	35280	
3803	0	32820	32930	35288	
3804	0	32780	33062	35296	
3805	0	32792	33110	35301	
3806	0	32852	33064	35308	
3807	0	32826	33080	35304	
3808	0	32836	33116	35310	
3809	0	32829	33028	35322	
3810	0	32740	32829	35325	
3811	0	32708	32828	35322	
3812	0	32690	32800	35311	
3813	0	32728	32565	35308	
3814	0	32728	32604	35300	
3815	0	32764	32633	35324	
3816	0	32832	32645	35324	
3817	0	32872	32737	35322	
3818	0	32792	32672	35316	
3819	0	32768	32657	35300	
3820	0	32796	32665	35281	
3821	0	32836	32750	35283	
3822	0	32796	32792	35292	
3823	0	32824	32902	35278	
3824	0	32800	33024	35300	
3825	0	32847	33092	35308	
3826	0	32802	33073	35308	
3827	0	32877	33129	35324	
3828	0	32861	33042	35335	
3829	0	32720	32936	35332	
3830	0	32740	32888	35329	
3831	0	32772	32768	35344	
3832	0	32672	32607	35326	
3833	0	32746	32764	35312	
3834	0	32716	32724	35304	
3835	0	32776	32634	35303	
3836	0	32820	32801	35304	
3837	0	32814	32733	35312	
3838	0	32826	32584	35308	
3839	0	32788	32572	35313	
3840	0	32820	32637	35312	
3841	0	32836	32660	35296	
3842	0	32856	32917	35306	
3843	0	32832	33010	35307	
3844	0	32813	32893	35316	
3845	0	32829	32998	35341	
3846	0	32820	33012	35348	
3847	0	32760	33044	35352	
3848	0	32852	33120	35342	
3849	0	32764	32936	35340	
3850	0	32768	32932	35344	
3851	0	32676	32760	35344	
3852	0	32664	32820	35344	
3853	0	32647	32890	35341	
3854	0	32740	32652	35332	
3855	0	32717	32628	35328	
3856	0	32801	32789	35333	
3857	0	32796	32712	35316	
3858	0	32844	32633	35324	
3859	0	32846	32688	35304	
3860	0	32870	32653	35316	
3861	0	32804	32668	35344	
3862	0	32794	32770	35340	
3863	0	32852	32921	35335	
3864	0	32900	32966	35324	
3865	0	32860	32980	35324	
3866	0	32812	33108	35323	
3867	0	32792	33143	35332	
3868	0	32804	33056	35339	
3869	0	32754	32954	35319	
3870	0	32740	32928	35311	
3871	0	32740	32789	35318	
3872	0	32706	32748	35335	
3873	0	32716	32816	35318	
3874	0	32700	32644	35344	
3875	0	32788	32688	35330	
3876	0	32831	32734	35335	
3877	0	32800	32676	35324	
3878	0	32828	32616	35304	
3879	0	32730	32626	35300	
3880	0	32846	32642	35321	
3881	0	32854	32806	35324	
3882	0	32858	32788	35303	
3883	0	32833	32948	35308	
3884	0	32804	33068	35297	
3885	0	32778	32970	35292	
3886	0	32824	33106	35297	
3887	0	32806	33227	35295	
3888	0	32760	32992	35313	
3889	0	32744	33024	35329	
3890	0	32722	32908	35317	
3891	0	32680	32796	35316	
3892	0	32724	32748	35327	
3893	0	32704	32676	35330	
3894	0	32685	32720	35319	
3895	0	32765	32672	35333	
3896	0	32848	32704	35326	
3897	0	32812	32735	35308	
3898	0	32792	32705	35300	
3899	0	32764	32753	35288	
3900	0	32852	32774	35308	
3901	0	32832	32700	35313	
3902	0	32780	32820	35316	
3903	0	32876	32970	35314	
3904	0	32764	33019	35325	
3905	0	32748	33121	35313	
3906	0	32824	33085	35348	
3907	0	32804	33076	35346	
3908	0	32756	33102	35357	
3909	0	32756	32965	35352	
3910	0	32744	32824	35360	
3911	0	32704	32771	35372	
3912	0	32690	32708	35364	
3913	0	32732	32708	35349	
3914	0	32705	32685	35316	
3915	0	32817	32676	35309	
3916	0	32808	32602	35314	
3917	0	32842	32601	35308	
3918	0	32774	32589	35289	
3919	0	32817	32594	35300	
3920	0	32844	32736	35270	
3921	0	32832	32780	35272	
3922	0	32793	32848	35264	
3923	0	32824	32925	35268	
3924	0	32860	33005	35300	
3925	0	32804	33052	35322	
3926	0	32789	33146	35324	
3927	0	32770	33178	35335	
3928	0	32836	33060	35344	
3929	0	32706	33016	35341	
3930	0	32656	32944	35348	
3931	0	32684	32896	35332	
3932	0	32778	32765	35321	
3933	0	32701	32708	35308	
3934	0	32749	32734	35300	
3935	0	32860	32628	35297	
3936	0	32804	32592	35293	
3937	0	32833	32617	35300	
3938	0	32784	32578	35274	
3939	0	32780	32604	35274	
3940	0	32845	32625	35286	
3941	0	32828	32712	35295	
3942	0	32824	32820	35300	
3943	0	32844	32949	35297	
3944	0	32828	33050	35296	
3945	0	32852	33092	35310	
3946	0	32816	33118	35312	
3947	0	32769	33226	35335	
3948	0	32805	33088	35346	
3949	0	32704	32940	35344	
3950	0	32728	32853	35328	
3951	0	32716	32805	35326	
3952	0	32690	32772	35320	
3953	0	32732	32700	35329	
3954	0	32792	32648	35332	
3955	0	32780	32725	35321	
3956	0	32820	32617	35320	
3957	0	32860	32730	35306	
3958	0	32808	32621	35294	
3959	0	32841	32689	35280	
3960	0	32852	32600	35292	
3961	0	32832	32696	35296	
3962	0	32804	32764	35300	
3963	0	32832	32951	35309	
3964	0	32868	32992	35312	
3965	0	32752	33000	35335	
3966	0	32858	33092	35346	
3967	0	32856	33062	35336	
3968	0	32780	33077	35346	
3969	0	32744	32862	35324	
3970	0	32740	32900	35316	
3971	0	32657	32904	35338	
3972	0	32720	32728	35340	
3973	0	32694	32832	35332	
3974	0	32749	32746	35324	
3975	0	32806	32660	35320	
3976	0	32808	32661	35310	
3977	0	32816	32604	35328	
3978	0	32852	32684	35292	
3979	0	32852	32592	35282	
3980	0	32792	32591	35305	
3981	0	32817	32782	35300	
3982	0	32824	32824	35303	
3983	0	32840	32876	35308	
3984	0	32808	33024	35308	
3985	0	32860	32988	35316	
3986	0	32776	33132	35321	
3987	0	32781	33118	35328	
3988	0	32748	33001	35345	
3989	0	32788	32924	35332	
3990	0	32708	32908	35332	
3991	0	32740	32864	35320	
3992	0	32661	32780	35324	
3993	0	32750	32685	35324	
3994	0	32740	32720	35319	
3995	0	32773	32646	35301	
3996	0	32769	32728	35305	
3997	0	32832	32804	35304	
3998	0	32788	32649	35268	
3999	0	32852	32670	35268	
4000	0	32816	32792	35300	
4001	0	32853	32766	35296	
4002	0	32840	32799	35303	
4003	0	32809	33064	35320	
4004	0	32832	33056	35344	
4005	0	32816	33109	35344	
4006	0	32832	33200	35356	
4007	0	32800	33176	35356	
4008	0	32686	33112	35337	
4009	0	32712	32934	35344	
4010	0	32732	32821	35317	
4011	0	32701	32844	35304	
4012	0	32692	32660	35312	
4013	0	32778	32576	35305	
4014	0	32740	32674	35304	
4015	0	32806	32478	35318	
4016	0	32816	32585	35294	
4017	0	32792	32721	35286	
4018	0	32856	32598	35305	
4019	0	32836	32684	35284	
4020	0	32888	32699	35287	
4021	0	32808	32685	35252	
4022	0	32741	32932	35248	
4023	0	32832	32950	35254	
4024	0	32866	33072	35252	
4025	0	32792	33152	35268	
4026	0	32816	33024	35292	
4027	0	32888	33129	35289	
4028	0	32768	33048	35313	
4029	0	32784	32966	35304	
4030	0	32728	32775	35320	
4031	0	32688	32744	35320	
4032	0	32716	32756	35335	
4033	0	32696	32678	35317	
4034	0	32696	32647	35310	
4035	0	32724	32624	35298	
4036	0	32793	32728	35289	
4037	0	32864	32780	35302	
4038	0	32829	32736	35288	
4039	0	32828	32672	35280	
4040	0	32820	32788	35282	
4041	0	32832	32744	35292	
4042	0	32785	32919	35289	
4043	0	32856	32996	35288	
4044	0	32862	32958	35301	
4045	0	32766	33031	35318	
4046	0	32796	33168	35360	
4047	0	32860	33128	35364	
4048	0	32760	32964	35376	
4049	0	32764	32892	35372	
4050	0	32776	32880	35343	
4051	0	32700	32677	35335	
4052	0	32708	32703	35329	
4053	0	32744	32704	35334	
4054	0	32712	32668	35335	
4055	0	32798	32615	35320	
4056	0	32840	32601	35328	
4057	0	32880	32742	35300	
4058	0	32872	32715	35272	
4059	0	32804	32652	35287	
4060	0	32836	32653	35284	
4061	0	32764	32764	35273	
4062	0	32832	32834	35304	
4063	0	32800	32872	35313	
4064	0	32877	32983	35333	
4065	0	32772	33047	35364	
4066	0	32781	33063	35353	
4067	0	32784	33038	35376	
4068	0	32728	32996	35378	
4069	0	32772	33016	35365	
4070	0	32704	32832	35370	
4071	0	32656	32901	35364	
4072	0	32784	32868	35357	
4073	0	32720	32684	35334	
4074	0	32744	32774	35335	
4075	0	32780	32640	35344	
4076	0	32808	32740	35320	
4077	0	32796	32696	35300	
4078	0	32816	32593	35290	
4079	0	32836	32709	35281	
4080	0	32869	32726	35289	
4081	0	32874	32741	35268	
4082	0	32784	32794	35274	
4083	0	32810	32920	35284	
4084	0	32820	33024	35298	
4085	0	32780	33109	35300	
4086	0	32748	33072	35324	
4087	0	32794	33053	35364	
4088	0	32805	33077	35388	
4089	0	32720	32874	35382	
4090	0	32752	32786	35369	
4091	0	32722	32826	35341	
4092	0	32676	32808	35318	
4093	0	32712	32680	35335	
4094	0	32724	32700	35325	
4095	0	32782	32645	35308	
4096	0	32849	32728	35312	
4097	0	32824	32800	35332	
4098	0	32818	32676	35332	
4099	0	32812	32714	35316	
4100	0	32737	32660	35306	
4101	0	32784	32676	35321	
4102	0	32847	32807	35333	
4103	0	32808	32924	35317	
4104	0	32854	32956	35286	
4105	0	32774	33056	35300	
4106	0	32837	33169	35316	
4107	0	32744	33172	35340	
4108	0	32756	33064	35343	
4109	0	32688	32933	35343	
4110	0	32728	32861	35341	
4111	0	32732	32874	35329	
4112	0	32720	32716	35318	
4113	0	32648	32728	35324	
4114	0	32780	32799	35301	
4115	0	32825	32761	35292	
4116	0	32869	32633	35304	
4117	0	32856	32740	35301	
4118	0	32832	32657	35292	
4119	0	32860	32696	35292	
4120	0	32800	32724	35290	
4121	0	32848	32749	35292	
4122	0	32856	32816	35282	
4123	0	32814	32904	35296	
4124	0	32812	32928	35289	
4125	0	32780	33060	35303	
4126	0	32812	32966	35313	
4127	0	32768	33068	35316	
4128	0	32760	33076	35316	
4129	0	32698	33014	35320	
4130	0	32742	32844	35325	
4131	0	32694	32880	35300	
4132	0	32732	32793	35312	
4133	0	32656	32820	35334	
4134	0	32736	32804	35321	
4135	0	32816	32612	35325	
4136	0	32820	32656	35316	
4137	0	32873	32673	35272	
4138	0	32820	32664	35264	
4139	0	32812	32632	35271	
4140	0	32828	32631	35266	
4141	0	32864	32639	35250	
4142	0	32814	32806	35255	
4143	0	32854	33001	35272	
4144	0	32822	32984	35278	
4145	0	32870	33116	35325	
4146	0	32832	33080	35335	
4147	0	32832	33093	35335	
4148	0	32741	33049	35335	
4149	0	32760	32956	35325	
4150	0	32738	32816	35332	
4151	0	32690	32841	35335	
4152	0	32772	32786	35320	
4153	0	32780	32754	35300	
4154	0	32784	32692	35280	
4155	0	32785	32701	35288	
4156	0	32800	32782	35296	
4157	0	32841	32776	35296	
4158	0	32864	32749	35305	
4159	0	32812	32629	35316	
4160	0	32812	32656	35296	
4161	0	32857	32836	35280	
4162	0	32816	32784	35306	
4163	0	32826	33052	35310	
4164	0	32812	32972	35300	
4165	0	32815	33012	35316	
4166	0	32852	33000	35336	
4167	0	32753	33040	35356	
4168	0	32780	33049	35333	
4169	0	32780	32928	35334	
4170	0	32698	32906	35345	
4171	0	32738	32732	35320	
4172	0	32756	32820	35320	
4173	0	32720	32796	35352	
4174	0	32728	32808	35344	
4175	0	32784	32617	35335	
4176	0	32801	32584	35332	
4177	0	32896	32644	35334	
4178	0	32836	32805	35340	
4179	0	32864	32727	35304	
4180	0	32816	32612	35284	
4181	0	32760	32676	35280	
4182	0	32782	32873	35256	
4183	0	32812	33024	35266	
4184	0	32780	32908	35292	
4185	0	32752	33004	35340	
4186	0	32737	32996	35352	
4187	0	32760	33180	35352	
4188	0	32753	33066	35364	
4189	0	32800	32993	35378	
4190	0	32760	32932	35367	
4191	0	32754	32760	35356	
4192	0	32744	32809	35353	
4193	0	32692	32756	35365	
4194	0	32728	32681	35348	
4195	0	32764	32688	35332	
4196	0	32832	32649	35344	
4197	0	32852	32710	35325	
4198	0	32860	32668	35316	
4199	0	32808	32596	35309	
4200	0	32804	32662	35292	
4201	0	32828	32724	35308	
4202	0	32874	32752	35306	
4203	0	32808	32897	35312	
4204	0	32820	32908	35326	
4205	0	32836	33100	35332	
4206	0	32764	33037	35335	
4207	0	32768	33028	35351	
4208	0	32744	33040	35356	
4209	0	32746	32998	35364	
4210	0	32762	32933	35368	
4211	0	32688	32792	35365	
4212	0	32748	32824	35360	
4213	0	32718	32701	35334	
4214	0	32700	32710	35325	
4215	0	32817	32601	35320	
4216	0	32793	32740	35312	
4217	0	32844	32775	35308	
4218	0	32826	32790	35304	
4219	0	32812	32746	35288	
4220	0	32836	32684	35281	
4221	0	32816	32729	35297	
4222	0	32844	32780	35304	
4223	0	32792	32917	35306	
4224	0	32876	32985	35284	
4225	0	32772	33037	35281	
4226	0	32816	33073	35304	
4227	0	32768	33148	35336	
4228	0	32765	33104	35330	
4229	0	32789	33004	35324	
4230	0	32732	32838	35340	
4231	0	32712	32816	35333	
4232	0	32740	32648	35316	
4233	0	32728	32655	35328	
4234	0	32772	32709	35335	
4235	0	32772	32725	35317	
4236	0	32744	32776	35316	
4237	0	32852	32647	35305	
4238	0	32844	32720	35311	
4239	0	32844	32760	35312	
4240	0	32840	32624	35309	
4241	0	32772	32706	35312	
4242	0	32804	32842	35300	
4243	0	32852	32868	35308	
4244	0	32873	32994	35320	
4245	0	32792	33048	35335	
4246	0	32736	33057	35338	
4247	0	32816	33052	35335	
4248	0	32766	32988	35348	
4249	0	32756	32958	35335	
4250	0	32701	32868	35335	
4251	0	32660	32848	35340	
4252	0	32708	32765	35333	
4253	0	32714	32728	35316	
4254	0	32840	32892	35298	
4255	0	32740	32636	35293	
4256	0	32868	32617	35288	
4257	0	32816	32589	35308	
4258	0	32820	32584	35297	
4259	0	32884	32612	35306	
4260	0	32796	32636	35303	
4261	0	32852	32770	35288	
4262	0	32849	32824	35309	
4263	0	32856	32868	35312	
4264	0	32885	32935	35331	
4265	0	32790	33051	35308	
4266	0	32856	33144	35336	
4267	0	32780	33012	35334	
4268	0	32728	32932	35359	
4269	0	32758	32998	35324	
4270	0	32708	32783	35332	
4271	0	32716	32809	35302	
4272	0	32720	32964	35304	
4273	0	32810	32764	35296	
4274	0	32752	32697	35285	
4275	0	32817	32743	35268	
4276	0	32807	32697	35304	
4277	0	32772	32728	35305	
4278	0	32836	32725	35284	
4279	0	32840	32653	35296	
4280	0	32828	32728	35254	
4281	0	32853	32756	35254	
4282	0	32824	32797	35296	
4283	0	32794	32981	35304	
4284	0	32792	32880	35305	
4285	0	32800	33068	35328	
4286	0	32828	32942	35301	
4287	0	32794	33056	35324	
4288	0	32772	33005	35321	
4289	0	32724	32836	35320	
4290	0	32728	32809	35333	
4291	0	32708	32578	35308	
4292	0	32668	32644	35292	
4293	0	32692	32660	35329	
4294	0	32704	32732	35305	
4295	0	32782	32748	35300	
4296	0	32868	32678	35305	
4297	0	32854	32684	35288	
4298	0	32832	32756	35292	
4299	0	32828	32725	35272	
4300	0	32788	32848	35276	
4301	0	32816	32865	35282	
4302	0	32828	32852	35301	
4303	0	32842	32880	35302	
4304	0	32832	33002	35312	
4305	0	32804	33100	35332	
4306	0	32794	33045	35340	
4307	0	32784	33169	35358	
4308	0	32780	33025	35343	
4309	0	32728	32870	35342	
4310	0	32656	33018	35350	
4311	0	32712	32770	35333	
4312	0	32712	32658	35329	
4313	0	32672	32722	35344	
4314	0	32732	32656	35345	
4315	0	32789	32644	35348	
4316	0	32852	32692	35338	
4317	0	32812	32785	35340	
4318	0	32864	32641	35324	
4319	0	32812	32664	35316	
4320	0	32832	32617	35300	
4321	0	32828	32654	35304	
4322	0	32788	32748	35308	
4323	0	32805	32856	35325	
4324	0	32816	33036	35324	
4325	0	32768	33028	35335	
4326	0	32781	33159	35326	
4327	0	32798	33212	35313	
4328	0	32740	33129	35332	
4329	0	32715	32948	35326	
4330	0	32685	32837	35305	
4331	0	32752	32767	35324	
4332	0	32780	32758	35334	
4333	0	32774	32662	35335	
4334	0	32804	32593	35308	
4335	0	32741	32502	35290	
4336	0	32872	32544	35292	
4337	0	32774	32644	35287	
4338	0	32844	32580	35280	
4339	0	32805	32657	35290	
4340	0	32880	32684	35288	
4341	0	32804	32812	35280	
4342	0	32828	32852	35310	
4343	0	32846	32956	35301	
4344	0	32816	32992	35324	
4345	0	32844	33076	35328	
4346	0	32852	33078	35344	
4347	0	32708	33057	35330	
4348	0	32684	33030	35341	
4349	0	32720	32900	35356	
4350	0	32748	32828	35365	
4351	0	32732	32810	35380	
4352	0	32732	32746	35368	
4353	0	32708	32804	35344	
4354	0	32736	32688	35335	
4355	0	32817	32671	35340	
4356	0	32846	32729	35340	
4357	0	32849	32614	35334	
4358	0	32832	32712	35320	
4359	0	32818	32696	35309	
4360	0	32873	32748	35297	
4361	0	32818	32770	35292	
4362	0	32764	32757	35284	
4363	0	32853	32953	35300	
4364	0	32844	33054	35316	
4365	0	32776	33001	35336	
4366	0	32801	33050	35341	
4367	0	32724	33124	35324	
4368	0	32712	32996	35324	
4369	0	32637	32906	35333	
4370	0	32768	32911	35342	
4371	0	32736	32768	35334	
4372	0	32701	32836	35328	
4373	0	32714	32586	35322	
4374	0	32764	32761	35321	
4375	0	32808	32726	35309	
4376	0	32856	32758	35309	
4377	0	32868	32740	35320	
4378	0	32885	32646	35320	
4379	0	32844	32660	35319	
4380	0	32846	32684	35333	
4381	0	32860	32783	35289	
4382	0	32808	32897	35280	
4383	0	32841	32944	35268	
4384	0	32840	33056	35280	
4385	0	32718	32909	35292	
4386	0	32738	33104	35292	
4387	0	32782	33176	35314	
4388	0	32730	32975	35310	
4389	0	32772	33005	35308	
4390	0	32700	32804	35305	
4391	0	32636	32780	35316	
4392	0	32752	32704	35311	
4393	0	32736	32647	35328	
4394	0	32788	32623	35316	
4395	0	32858	32584	35317	
4396	0	32901	32685	35304	
4397	0	32884	32702	35308	
4398	0	32896	32676	35296	
4399	0	32828	32664	35281	
4400	0	32832	32704	35279	
4401	0	32794	32836	35277	
4402	0	32806	32884	35293	
4403	0	32820	32984	35300	
4404	0	32836	32988	35304	
4405	0	32765	32968	35324	
4406	0	32760	33088	35320	
4407	0	32788	33034	35348	
4408	0	32740	33132	35365	
4409	0	32736	32989	35362	
4410	0	32796	32879	35358	
4411	0	32720	32860	35364	
4412	0	32668	32812	35347	
4413	0	32704	32710	35335	
4414	0	32708	32679	35334	
4415	0	32856	32527	35325	
4416	0	32828	32676	35329	
4417	0	32852	32644	35322	
4418	0	32892	32682	35320	
4419	0	32836	32632	35319	
4420	0	32841	32694	35321	
4421	0	32810	32725	35308	
4422	0	32866	32758	35292	
4423	0	32800	32993	35302	
4424	0	32796	33061	35312	
4425	0	32774	33117	35348	
4426	0	32792	33078	35349	
4427	0	32778	33112	35356	
4428	0	32776	33164	35356	
4429	0	32745	32984	35328	
4430	0	32720	32815	35345	
4431	0	32640	32816	35341	
4432	0	32652	32745	35318	
4433	0	32772	32752	35320	
4434	0	32744	32801	35320	
4435	0	32800	32716	35318	
4436	0	32824	32766	35301	
4437	0	32860	32891	35274	
4438	0	32817	32572	35284	
4439	0	32861	32629	35288	
4440	0	32800	32740	35294	
4441	0	32924	32664	35286	
4442	0	32812	32828	35280	
4443	0	32776	32884	35287	
4444	0	32828	32952	35296	
4445	0	32792	33041	35297	
4446	0	32788	32922	35310	
4447	0	32780	33051	35335	
4448	0	32709	33108	35348	
4449	0	32757	32857	35336	
4450	0	32720	32741	35332	
4451	0	32709	32748	35308	
4452	0	32694	32724	35313	
4453	0	32744	32748	35310	
4454	0	32740	32622	35316	
4455	0	32784	32593	35306	
4456	0	32884	32668	35292	
4457	0	32876	32661	35296	
4458	0	32900	32676	35288	
4459	0	32836	32736	35273	
4460	0	32865	32722	35297	
4461	0	32764	32692	35305	
4462	0	32760	32828	35300	
4463	0	32764	32892	35304	
4464	0	32828	32964	35294	
4465	0	32852	33172	35304	
4466	0	32742	33170	35300	
4467	0	32720	33062	35308	
4468	0	32720	33152	35335	
4469	0	32736	32913	35332	
4470	0	32644	32848	35324	
4471	0	32667	32940	35336	
4472	0	32688	32796	35332	
4473	0	32696	32689	35340	
4474	0	32702	32720	35344	
4475	0	32772	32705	35345	
4476	0	32852	32708	35332	
4477	0	32840	32728	35312	
4478	0	32890	32683	35303	
4479	0	32824	32682	35303	
4480	0	32856	32708	35300	
4481	0	32869	32716	35292	
4482	0	32788	32756	35311	
4483	0	32764	32966	35309	
4484	0	32934	33019	35308	
4485	0	32800	33024	35325	
4486	0	32820	33023	35324	
4487	0	32792	33149	35341	
4488	0	32730	33140	35344	
4489	0	32792	32971	35328	
4490	0	32661	32821	35313	
4491	0	32686	32925	35316	
4492	0	32705	32730	35345	
4493	0	32696	32758	35334	
4494	0	32776	32688	35333	
4495	0	32844	32622	35324	
4496	0	32796	32660	35296	
4497	0	32864	32722	35296	
4498	0	32816	32628	35316	
4499	0	32874	32673	35309	
4500	0	32888	32730	35313	
4501	0	32872	32798	35312	
4502	0	32763	32868	35290	
4503	0	32788	32904	35312	
4504	0	32844	32927	35320	
4505	0	32801	33084	35326	
4506	0	32809	33005	35320	
4507	0	32700	33028	35328	
4508	0	32648	32982	35342	
4509	0	32772	32949	35333	
4510	0	32708	32839	35320	
4511	0	32757	32774	35348	
4512	0	32793	32790	35361	
4513	0	32788	32720	35344	
4514	0	32704	32691	35333	
4515	0	32769	32695	35314	
4516	0	32773	32677	35332	
4517	0	32858	32797	35333	
4518	0	32856	32832	35336	
4519	0	32900	32708	35318	
4520	0	32874	32632	35304	
4521	0	32840	32808	35324	
4522	0	32832	32840	35320	
4523	0	32868	32908	35335	
4524	0	32804	33008	35309	
4525	0	32768	33100	35322	
4526	0	32808	33031	35352	
4527	0	32752	32929	35348	
4528	0	32724	32933	35344	
4529	0	32762	32879	35332	
4530	0	32720	32800	35335	
4531	0	32704	32665	35335	
4532	0	32760	32710	35332	
4533	0	32737	32741	35335	
4534	0	32804	32689	35320	
4535	0	32846	32656	35300	
4536	0	32870	32647	35313	
4537	0	32845	32672	35316	
4538	0	32816	32737	35311	
4539	0	32804	32700	35308	
4540	0	32874	32759	35300	
4541	0	32876	32702	35288	
4542	0	32828	32809	35291	
4543	0	32740	32888	35296	
4544	0	32785	33044	35300	
4545	0	32824	33028	35310	
4546	0	32908	33024	35304	
4547	0	32764	33105	35340	
4548	0	32708	33152	35329	
4549	0	32721	32993	35349	
4550	0	32729	32853	35340	
4551	0	32692	32840	35348	
4552	0	32652	32669	35344	
4553	0	32728	32694	35326	
4554	0	32809	32826	35326	
4555	0	32812	32604	35324	
4556	0	32824	32738	35332	
4557	0	32796	32724	35324	
4558	0	32820	32660	35336	
4559	0	32828	32634	35335	
4560	0	32808	32704	35352	
4561	0	32800	32697	35347	
4562	0	32808	32880	35335	
4563	0	32824	33092	35316	
4564	0	32818	33026	35328	
4565	0	32710	33084	35329	
4566	0	32780	33040	35343	
4567	0	32732	32896	35348	
4568	0	32728	32989	35348	
4569	0	32732	32932	35348	
4570	0	32676	32856	35334	
4571	0	32712	32702	35344	
4572	0	32713	32758	35350	
4573	0	32688	32824	35335	
4574	0	32770	32743	35332	
4575	0	32840	32729	35316	
4576	0	32825	32775	35316	
4577	0	32832	32732	35335	
4578	0	32829	32700	35329	
4579	0	32872	32714	35350	
4580	0	32858	32685	35328	
4581	0	32808	32748	35328	
4582	0	32888	32924	35316	
4583	0	32828	32970	35305	
4584	0	32772	32968	35300	
4585	0	32764	33042	35316	
4586	0	32844	33025	35312	
4587	0	32724	33152	35343	
4588	0	32740	33040	35344	
4589	0	32724	32972	35350	
4590	0	32681	32752	35365	
4591	0	32746	32766	35370	
4592	0	32688	32775	35353	
4593	0	32804	32726	35321	
4594	0	32728	32696	35348	
4595	0	32848	32692	35348	
4596	0	32796	32809	35310	
4597	0	32868	32706	35300	
4598	0	32812	32708	35279	
4599	0	32772	32728	35278	
4600	0	32842	32670	35288	
4601	0	32820	32693	35281	
4602	0	32832	32760	35296	
4603	0	32852	32901	35300	
4604	0	32848	32894	35308	
4605	0	32791	32880	35312	
4606	0	32776	33045	35332	
4607	0	32754	33094	35340	
4608	0	32741	33114	35345	
4609	0	32752	32984	35340	
4610	0	32684	32852	35324	
4611	0	32664	32822	35326	
4612	0	32692	32817	35333	
4613	0	32716	32768	35320	
4614	0	32778	32741	35324	
4615	0	32789	32608	35304	
4616	0	32768	32582	35280	
4617	0	32796	32628	35294	
4618	0	32836	32620	35284	
4619	0	32836	32644	35268	
4620	0	32793	32636	35265	
4621	0	32900	32676	35262	
4622	0	32816	32764	35288	
4623	0	32808	32842	35304	
4624	0	32826	33049	35300	
4625	0	32829	32984	35312	
4626	0	32810	33081	35302	
4627	0	32796	33224	35308	
4628	0	32726	33031	35327	
4629	0	32760	33041	35325	
4630	0	32680	32781	35319	
4631	0	32696	32808	35330	
4632	0	32680	32741	35324	
