# OpenSignals Text File Format
# {"00:07:80:4D:2E:AD": {"sensor": ["EMG", "EMG", "XYZ"], "device name": "00:07:80:4D:2E:AD", "column": ["nSeq", "DI", "CH1", "CH2", "CH3"], "sync interval": 2, "time": "15:31:30.451", "comments": "paper | ch1_flexor_digitorum_superficialis ch2_aductor_policis ch3_acc_z [trial 2]", "device connection": "BTH00:07:80:4D:2E:AD", "channels": [1, 2, 3], "keywords": "", "mode": 0, "digital IO": [0, 1], "firmware version": 773, "device": "biosignalsplux", "position": 0, "sampling rate": 1000, "label": ["CH1", "CH2", "CH3"], "resolution": [16, 16, 16], "date": "2019-1-23", "special": [{}, {}, {}]}}
# EndOfHeader
0	0	32900	32772	35410	
1	0	32904	32752	35396	
2	0	32880	32761	35412	
3	0	32966	32766	35409	
4	0	32900	32668	35416	
5	0	32876	32928	35396	
6	0	32924	32916	35412	
7	0	32788	32905	35413	
8	0	32765	32932	35432	
9	0	32780	32974	35421	
10	0	32612	32992	35432	
11	0	32656	32916	35437	
12	0	32743	32817	35424	
13	0	32660	32874	35442	
14	0	32608	32716	35456	
15	0	32701	32776	35452	
16	0	32680	32780	35431	
17	0	32808	32780	35424	
18	0	32820	32712	35413	
19	0	32812	32648	35415	
20	0	32872	32845	35412	
21	0	32876	32693	35424	
22	0	32898	32789	35428	
23	0	32992	32880	35428	
24	0	32896	32900	35418	
25	0	32864	32876	35428	
26	0	32874	32932	35440	
27	0	32769	33009	35461	
28	0	32838	33038	35460	
29	0	32736	32989	35462	
30	0	32744	32925	35453	
31	0	32620	32944	35452	
32	0	32660	32901	35450	
33	0	32674	32804	35433	
34	0	32608	32828	35452	
35	0	32664	32816	35444	
36	0	32752	32716	35441	
37	0	32774	32764	35429	
38	0	32802	32764	35439	
39	0	32812	32669	35426	
40	0	32872	32690	35424	
41	0	32856	32741	35431	
42	0	32868	32773	35422	
43	0	32908	32808	35400	
44	0	32884	32863	35390	
45	0	32920	32868	35396	
46	0	32961	32984	35392	
47	0	32736	32960	35404	
48	0	32804	32932	35424	
49	0	32724	32964	35444	
50	0	32720	32960	35448	
51	0	32628	33033	35489	
52	0	32704	32870	35463	
53	0	32708	32710	35459	
54	0	32724	32800	35463	
55	0	32773	32687	35448	
56	0	32681	32712	35424	
57	0	32800	32789	35429	
58	0	32720	32609	35408	
59	0	32922	32836	35392	
60	0	32841	32744	35381	
61	0	32904	32670	35380	
62	0	32828	32700	35368	
63	0	32932	32831	35377	
64	0	32976	32863	35405	
65	0	32868	32945	35412	
66	0	32880	32964	35404	
67	0	32828	32920	35428	
68	0	32804	32938	35444	
69	0	32692	32996	35456	
70	0	32636	33069	35464	
71	0	32632	32868	35466	
72	0	32708	32802	35460	
73	0	32668	32808	35441	
74	0	32645	32704	35436	
75	0	32656	32745	35424	
76	0	32772	32656	35453	
77	0	32812	32752	35445	
78	0	32746	32736	35437	
79	0	32846	32793	35409	
80	0	32944	32804	35408	
81	0	32916	32692	35393	
82	0	32888	32666	35374	
83	0	32865	32813	35358	
84	0	32872	32845	35348	
85	0	32897	32860	35367	
86	0	32840	32966	35380	
87	0	32744	32868	35405	
88	0	32770	32984	35437	
89	0	32744	33100	35437	
90	0	32676	32956	35437	
91	0	32712	32944	35437	
92	0	32630	32856	35420	
93	0	32692	32868	35432	
94	0	32653	32806	35420	
95	0	32728	32744	35416	
96	0	32672	32824	35436	
97	0	32788	32676	35421	
98	0	32813	32744	35415	
99	0	32880	32720	35413	
100	0	32920	32847	35426	
101	0	32916	32774	35404	
102	0	32860	32813	35388	
103	0	32932	32844	35404	
104	0	32840	32780	35409	
105	0	32808	32908	35425	
106	0	32869	32876	35436	
107	0	32788	32828	35436	
108	0	32768	32964	35432	
109	0	32752	32860	35455	
110	0	32756	33008	35470	
111	0	32625	32886	35463	
112	0	32716	32831	35468	
113	0	32629	32732	35484	
114	0	32656	32677	35469	
115	0	32676	32700	35457	
116	0	32740	32834	35448	
117	0	32762	32812	35456	
118	0	32794	32848	35457	
119	0	32896	32753	35422	
120	0	32808	32748	35432	
121	0	32848	32768	35423	
122	0	32924	32822	35412	
123	0	32925	32861	35409	
124	0	32900	32804	35396	
125	0	32840	32885	35421	
126	0	32944	32904	35420	
127	0	32793	32904	35428	
128	0	32782	32908	35431	
129	0	32708	33048	35449	
130	0	32736	32936	35421	
131	0	32700	32884	35444	
132	0	32684	32780	35445	
133	0	32672	32767	35448	
134	0	32650	32764	35444	
135	0	32572	32800	35432	
136	0	32684	32629	35433	
137	0	32752	32775	35462	
138	0	32797	32660	35456	
139	0	32869	32756	35472	
140	0	32840	32782	35452	
141	0	32920	32768	35432	
142	0	32897	32724	35420	
143	0	32884	32805	35412	
144	0	32884	32760	35412	
145	0	32944	32804	35420	
146	0	32924	33009	35433	
147	0	32812	32996	35448	
148	0	32776	33004	35452	
149	0	32676	32951	35453	
150	0	32631	32920	35444	
151	0	32720	32967	35471	
152	0	32677	32881	35463	
153	0	32612	32775	35456	
154	0	32652	32844	35452	
155	0	32716	32758	35436	
156	0	32712	32793	35460	
157	0	32770	32772	35460	
158	0	32832	32689	35433	
159	0	32864	32876	35429	
160	0	32864	32660	35417	
161	0	32840	32654	35417	
162	0	32852	32720	35408	
163	0	32902	32716	35404	
164	0	32884	32774	35420	
165	0	32873	32860	35437	
166	0	32937	32936	35420	
167	0	32864	32928	35424	
168	0	32804	33000	35434	
169	0	32728	33026	35463	
170	0	32700	33044	35470	
171	0	32662	32837	35480	
172	0	32700	32740	35453	
173	0	32616	32918	35438	
174	0	32657	32912	35440	
175	0	32648	32708	35430	
176	0	32745	32714	35444	
177	0	32812	32749	35440	
178	0	32808	32773	35430	
179	0	32856	32728	35436	
180	0	32836	32680	35450	
181	0	32908	32759	35450	
182	0	32909	32799	35424	
183	0	32888	32712	35405	
184	0	32852	32800	35404	
185	0	32872	32820	35412	
186	0	32876	32902	35437	
187	0	32814	33052	35432	
188	0	32724	32970	35428	
189	0	32760	32921	35404	
190	0	32718	33082	35404	
191	0	32672	32908	35428	
192	0	32652	32892	35416	
193	0	32656	32765	35420	
194	0	32640	32801	35433	
195	0	32593	32764	35436	
196	0	32728	32700	35420	
197	0	32844	32604	35428	
198	0	32824	32720	35424	
199	0	32852	32748	35430	
200	0	32926	32724	35393	
201	0	32852	32735	35404	
202	0	32904	32772	35408	
203	0	32920	32900	35404	
204	0	32928	32740	35425	
205	0	32876	32768	35437	
206	0	32912	32824	35421	
207	0	32772	32976	35440	
208	0	32820	32948	35438	
209	0	32708	32928	35434	
210	0	32661	33008	35460	
211	0	32668	32953	35436	
212	0	32708	32844	35440	
213	0	32584	32842	35444	
214	0	32668	32808	35424	
215	0	32688	32740	35440	
216	0	32716	32784	35455	
217	0	32748	32645	35436	
218	0	32812	32703	35417	
219	0	32860	32824	35397	
220	0	32852	32769	35417	
221	0	32861	32602	35422	
222	0	32880	32775	35404	
223	0	32904	32732	35396	
224	0	32884	32808	35397	
225	0	32896	32968	35412	
226	0	32860	33029	35422	
227	0	32866	32935	35436	
228	0	32784	32972	35445	
229	0	32704	33056	35453	
230	0	32642	33024	35444	
231	0	32696	32870	35461	
232	0	32612	32878	35430	
233	0	32594	32853	35436	
234	0	32677	32800	35444	
235	0	32704	32802	35420	
236	0	32732	32721	35428	
237	0	32816	32716	35432	
238	0	32764	32729	35422	
239	0	32853	32736	35404	
240	0	32905	32716	35413	
241	0	32956	32725	35436	
242	0	32884	32824	35429	
243	0	32896	32796	35424	
244	0	32914	32829	35405	
245	0	32896	32908	35412	
246	0	32872	32972	35420	
247	0	32853	32925	35408	
248	0	32760	32896	35428	
249	0	32676	32946	35424	
250	0	32652	32940	35446	
251	0	32704	32944	35448	
252	0	32644	32768	35444	
253	0	32616	32756	35448	
254	0	32604	32788	35446	
255	0	32685	32742	35436	
256	0	32696	32801	35439	
257	0	32832	32720	35436	
258	0	32866	32766	35436	
259	0	32828	32857	35432	
260	0	32944	32775	35414	
261	0	32896	32729	35402	
262	0	32961	32708	35408	
263	0	32936	32768	35404	
264	0	32860	32868	35404	
265	0	32872	32890	35404	
266	0	32896	32988	35428	
267	0	32772	32902	35424	
268	0	32712	32884	35432	
269	0	32676	32964	35437	
270	0	32676	33036	35441	
271	0	32660	32962	35441	
272	0	32648	32822	35437	
273	0	32640	32793	35458	
274	0	32637	32741	35460	
275	0	32688	32680	35444	
276	0	32704	32775	35440	
277	0	32840	32693	35445	
278	0	32848	32797	35461	
279	0	32824	32758	35456	
280	0	32952	32696	35430	
281	0	32869	32804	35434	
282	0	32874	32756	35433	
283	0	32974	32860	35424	
284	0	32892	32820	35404	
285	0	32944	32908	35413	
286	0	32864	32973	35428	
287	0	32796	32994	35432	
288	0	32778	32965	35454	
289	0	32729	33023	35463	
290	0	32692	33080	35473	
291	0	32605	32944	35480	
292	0	32624	32884	35501	
293	0	32628	32828	35484	
294	0	32660	32806	35468	
295	0	32637	32740	35472	
296	0	32684	32700	35468	
297	0	32729	32761	35476	
298	0	32764	32554	35450	
299	0	32968	32690	35454	
300	0	32852	32708	35468	
301	0	32916	32677	35434	
302	0	32892	32822	35428	
303	0	32964	32770	35417	
304	0	32910	32857	35420	
305	0	32876	32844	35440	
306	0	32885	32968	35424	
307	0	32833	32948	35432	
308	0	32773	32940	35428	
309	0	32772	32972	35424	
310	0	32664	32988	35427	
311	0	32660	32930	35460	
312	0	32660	32821	35468	
313	0	32644	32744	35484	
314	0	32676	32780	35480	
315	0	32641	32672	35469	
316	0	32721	32708	35456	
317	0	32754	32695	35446	
318	0	32818	32668	35444	
319	0	32904	32805	35457	
320	0	32800	32700	35444	
321	0	32893	32672	35447	
322	0	32940	32740	35455	
323	0	32932	32732	35466	
324	0	32856	32823	35440	
325	0	32884	32892	35436	
326	0	32844	32960	35432	
327	0	32789	32904	35432	
328	0	32832	32996	35452	
329	0	32720	33152	35478	
330	0	32644	33018	35481	
331	0	32628	32964	35452	
332	0	32616	32821	35448	
333	0	32676	32888	35468	
334	0	32684	32760	35432	
335	0	32712	32713	35442	
336	0	32712	32772	35439	
337	0	32756	32741	35448	
338	0	32810	32744	35456	
339	0	32940	32772	35450	
340	0	32896	32668	35440	
341	0	32912	32746	35453	
342	0	32888	32720	35444	
343	0	32888	32848	35404	
344	0	32892	32836	35405	
345	0	32876	33002	35410	
346	0	32849	32968	35420	
347	0	32848	32912	35436	
348	0	32833	32988	35432	
349	0	32733	32896	35456	
350	0	32644	32952	35472	
351	0	32656	32976	35489	
352	0	32676	32901	35477	
353	0	32716	32750	35465	
354	0	32668	32775	35460	
355	0	32673	32665	35461	
356	0	32672	32737	35447	
357	0	32716	32682	35453	
358	0	32832	32740	35436	
359	0	32821	32676	35431	
360	0	32909	32862	35432	
361	0	32860	32701	35424	
362	0	32824	32752	35404	
363	0	32929	32677	35407	
364	0	32872	32782	35437	
365	0	32832	32801	35428	
366	0	32813	32876	35412	
367	0	32808	32932	35425	
368	0	32852	33009	35428	
369	0	32740	33176	35436	
370	0	32682	33008	35454	
371	0	32608	32828	35448	
372	0	32664	32920	35437	
373	0	32648	32832	35433	
374	0	32700	32874	35444	
375	0	32676	32828	35456	
376	0	32737	32796	35444	
377	0	32736	32764	35431	
378	0	32764	32596	35433	
379	0	32853	32740	35424	
380	0	32896	32734	35423	
381	0	32858	32655	35441	
382	0	32916	32720	35448	
383	0	32992	32837	35449	
384	0	32908	32881	35438	
385	0	32948	32944	35440	
386	0	32884	32857	35449	
387	0	32804	32872	35485	
388	0	32776	32845	35471	
389	0	32748	32943	35472	
390	0	32728	32906	35476	
391	0	32620	33012	35460	
392	0	32744	32860	35480	
393	0	32629	32866	35484	
394	0	32636	32704	35480	
395	0	32732	32764	35446	
396	0	32740	32738	35445	
397	0	32812	32802	35436	
398	0	32808	32678	35436	
399	0	32840	32740	35424	
400	0	32900	32784	35440	
401	0	32912	32732	35432	
402	0	32960	32793	35438	
403	0	32945	32708	35426	
404	0	32888	32846	35434	
405	0	32840	32860	35430	
406	0	32840	32942	35436	
407	0	32844	32961	35452	
408	0	32760	33086	35466	
409	0	32810	32996	35472	
410	0	32680	32994	35468	
411	0	32529	32935	35482	
412	0	32640	32820	35463	
413	0	32584	32836	35448	
414	0	32700	32790	35457	
415	0	32660	32772	35444	
416	0	32736	32734	35428	
417	0	32788	32749	35457	
418	0	32804	32604	35444	
419	0	32846	32840	35440	
420	0	32896	32775	35452	
421	0	32892	32698	35429	
422	0	32952	32799	35423	
423	0	32884	32804	35420	
424	0	32920	32797	35428	
425	0	32880	32924	35448	
426	0	32880	32912	35462	
427	0	32800	32866	35476	
428	0	32836	33008	35478	
429	0	32712	32931	35450	
430	0	32664	33000	35438	
431	0	32636	32876	35450	
432	0	32652	32811	35444	
433	0	32640	32774	35431	
434	0	32668	32742	35462	
435	0	32746	32801	35452	
436	0	32740	32764	35441	
437	0	32797	32724	35433	
438	0	32764	32722	35423	
439	0	32813	32772	35424	
440	0	32812	32674	35420	
441	0	32832	32734	35430	
442	0	32886	32756	35424	
443	0	32845	32816	35417	
444	0	32912	32900	35429	
445	0	32912	32897	35444	
446	0	32892	33009	35430	
447	0	32912	32984	35452	
448	0	32832	32980	35460	
449	0	32708	32984	35445	
450	0	32657	32952	35476	
451	0	32620	32969	35490	
452	0	32720	32791	35484	
453	0	32644	32791	35463	
454	0	32636	32698	35444	
455	0	32672	32762	35432	
456	0	32708	32660	35456	
457	0	32760	32692	35445	
458	0	32832	32639	35429	
459	0	32848	32677	35446	
460	0	32836	32805	35417	
461	0	32880	32713	35404	
462	0	32920	32768	35392	
463	0	32916	32814	35422	
464	0	32896	32894	35424	
465	0	32876	32844	35420	
466	0	32804	32880	35425	
467	0	32836	32976	35433	
468	0	32716	32968	35432	
469	0	32784	33080	35421	
470	0	32688	32954	35436	
471	0	32692	32948	35444	
472	0	32645	32796	35477	
473	0	32620	32849	35460	
474	0	32687	32708	35444	
475	0	32696	32876	35432	
476	0	32668	32692	35449	
477	0	32712	32784	35454	
478	0	32828	32708	35468	
479	0	32808	32836	35448	
480	0	32878	32654	35432	
481	0	32836	32741	35448	
482	0	32892	32756	35432	
483	0	32884	32741	35431	
484	0	32977	32840	35416	
485	0	32876	32825	35414	
486	0	32949	32942	35420	
487	0	32876	32918	35454	
488	0	32836	32985	35462	
489	0	32788	32936	35461	
490	0	32628	33054	35452	
491	0	32620	32912	35462	
492	0	32654	32925	35466	
493	0	32668	32884	35456	
494	0	32692	32807	35448	
495	0	32670	32796	35450	
496	0	32716	32710	35428	
497	0	32728	32805	35425	
498	0	32813	32721	35437	
499	0	32887	32772	35432	
500	0	32914	32772	35434	
501	0	32900	32750	35448	
502	0	32912	32844	35424	
503	0	32916	32802	35428	
504	0	32933	32868	35440	
505	0	32928	32956	35456	
506	0	32880	32917	35464	
507	0	32794	33004	35447	
508	0	32712	33012	35440	
509	0	32740	33076	35464	
510	0	32724	32944	35465	
511	0	32692	32903	35465	
512	0	32668	32861	35465	
513	0	32628	32853	35461	
514	0	32648	32848	35474	
515	0	32674	32666	35468	
516	0	32722	32700	35456	
517	0	32744	32658	35429	
518	0	32824	32716	35431	
519	0	32905	32816	35450	
520	0	32912	32709	35448	
521	0	32874	32730	35430	
522	0	32946	32756	35433	
523	0	32912	32772	35441	
524	0	32876	32849	35444	
525	0	32896	32832	35444	
526	0	32932	32838	35455	
527	0	32860	32960	35455	
528	0	32768	32980	35463	
529	0	32744	32972	35476	
530	0	32716	32920	35488	
531	0	32640	32910	35477	
532	0	32649	32860	35480	
533	0	32662	32745	35469	
534	0	32708	32948	35444	
535	0	32680	32805	35447	
536	0	32720	32775	35453	
537	0	32777	32744	35440	
538	0	32784	32800	35444	
539	0	32812	32778	35428	
540	0	32865	32791	35444	
541	0	32888	32677	35423	
542	0	32880	32775	35440	
543	0	32864	32716	35433	
544	0	32864	32822	35413	
545	0	32932	32900	35420	
546	0	32945	32940	35444	
547	0	32789	32904	35446	
548	0	32804	32953	35448	
549	0	32768	33200	35428	
550	0	32636	32948	35438	
551	0	32645	32905	35442	
552	0	32672	32865	35453	
553	0	32676	32849	35436	
554	0	32616	32717	35444	
555	0	32705	32668	35449	
556	0	32680	32678	35430	
557	0	32664	32612	35405	
558	0	32804	32680	35398	
559	0	32820	32800	35424	
560	0	32849	32634	35436	
561	0	32932	32754	35412	
562	0	32896	32775	35433	
563	0	32968	32805	35440	
564	0	32945	32760	35393	
565	0	32868	32921	35414	
566	0	32864	32961	35421	
567	0	32834	32948	35418	
568	0	32748	32990	35456	
569	0	32756	33081	35468	
570	0	32696	32908	35464	
571	0	32696	32988	35460	
572	0	32640	32848	35452	
573	0	32633	32797	35438	
574	0	32668	32892	35441	
575	0	32648	32775	35429	
576	0	32704	32780	35434	
577	0	32681	32756	35425	
578	0	32792	32689	35421	
579	0	32848	32780	35421	
580	0	32904	32750	35429	
581	0	32904	32652	35433	
582	0	32888	32792	35424	
583	0	32872	32744	35434	
584	0	32944	32809	35424	
585	0	32974	32900	35416	
586	0	32864	32924	35428	
587	0	32832	32934	35452	
588	0	32772	32965	35456	
589	0	32836	32960	35460	
590	0	32736	32980	35454	
591	0	32664	32961	35468	
592	0	32748	32860	35460	
593	0	32628	32784	35457	
594	0	32646	32878	35436	
595	0	32720	32732	35429	
596	0	32748	32717	35433	
597	0	32728	32836	35414	
598	0	32804	32624	35436	
599	0	32829	32720	35432	
600	0	32820	32836	35418	
601	0	32848	32757	35382	
602	0	32888	32791	35390	
603	0	32980	32887	35420	
604	0	32900	32761	35422	
605	0	32840	32853	35432	
606	0	32884	32968	35436	
607	0	32860	32869	35456	
608	0	32768	33018	35452	
609	0	32780	32948	35463	
610	0	32716	32868	35486	
611	0	32616	32820	35472	
612	0	32644	32880	35460	
613	0	32640	32796	35460	
614	0	32756	32839	35449	
615	0	32696	32785	35428	
616	0	32644	32637	35432	
617	0	32780	32708	35428	
618	0	32820	32730	35432	
619	0	32804	32732	35428	
620	0	32897	32912	35430	
621	0	32804	32712	35432	
622	0	32932	32769	35440	
623	0	32932	32812	35447	
624	0	32922	32768	35444	
625	0	32852	32871	35432	
626	0	32888	32978	35444	
627	0	32896	32988	35460	
628	0	32791	32947	35465	
629	0	32788	32985	35476	
630	0	32676	32964	35477	
631	0	32677	32849	35473	
632	0	32668	32916	35472	
633	0	32644	32770	35478	
634	0	32636	32748	35462	
635	0	32652	32824	35477	
636	0	32704	32745	35468	
637	0	32712	32612	35468	
638	0	32804	32636	35444	
639	0	32900	32725	35449	
640	0	32884	32737	35441	
641	0	32868	32692	35454	
642	0	32852	32726	35426	
643	0	33008	32839	35416	
644	0	32962	32844	35424	
645	0	32944	32907	35428	
646	0	32900	33039	35445	
647	0	32832	33017	35452	
648	0	32820	32924	35458	
649	0	32772	33046	35484	
650	0	32660	32928	35470	
651	0	32688	32975	35472	
652	0	32660	32829	35461	
653	0	32636	32812	35487	
654	0	32712	32869	35480	
655	0	32705	32837	35455	
656	0	32676	32769	35444	
657	0	32736	32839	35469	
658	0	32796	32732	35453	
659	0	32888	32748	35433	
660	0	32836	32756	35428	
661	0	32860	32800	35416	
662	0	32896	32720	35428	
663	0	32932	32788	35424	
664	0	32895	32876	35428	
665	0	32944	32948	35437	
666	0	32904	33004	35432	
667	0	32836	32853	35445	
668	0	32736	32960	35473	
669	0	32792	32927	35492	
670	0	32772	33100	35487	
671	0	32634	32902	35497	
672	0	32664	32844	35492	
673	0	32692	32826	35464	
674	0	32644	32764	35460	
675	0	32704	32713	35469	
676	0	32656	32752	35464	
677	0	32752	32796	35445	
678	0	32797	32661	35453	
679	0	32872	32791	35466	
680	0	32857	32744	35462	
681	0	32920	32679	35452	
682	0	32888	32713	35460	
683	0	32873	32769	35453	
684	0	32904	32828	35453	
685	0	32904	32918	35447	
686	0	32924	32988	35462	
687	0	32836	32988	35456	
688	0	32792	32872	35460	
689	0	32790	32928	35484	
690	0	32742	33064	35487	
691	0	32644	32948	35468	
692	0	32672	32965	35460	
693	0	32632	32880	35461	
694	0	32662	32792	35460	
695	0	32680	32848	35459	
696	0	32732	32712	35440	
697	0	32684	32809	35440	
698	0	32816	32797	35440	
699	0	32777	32688	35425	
700	0	32804	32790	35432	
701	0	32936	32718	35449	
702	0	32868	32772	35441	
703	0	32852	32806	35437	
704	0	32880	32812	35432	
705	0	32876	32985	35458	
706	0	32894	32918	35463	
707	0	32812	32912	35472	
708	0	32708	32858	35469	
709	0	32726	32903	35464	
710	0	32661	32997	35476	
711	0	32678	32902	35476	
712	0	32696	32964	35476	
713	0	32596	32922	35487	
714	0	32676	32868	35457	
715	0	32816	32512	35442	
716	0	32836	32716	35464	
717	0	32792	32750	35497	
718	0	32828	32708	35484	
719	0	32820	32672	35425	
720	0	32876	32778	35414	
721	0	32845	32731	35403	
722	0	32872	32839	35396	
723	0	32824	32752	35428	
724	0	32900	32800	35430	
725	0	32865	32781	35445	
726	0	32850	32952	35436	
727	0	32852	32980	35460	
728	0	32752	32954	35468	
729	0	32688	32984	35484	
730	0	32668	32997	35508	
731	0	32640	32927	35516	
732	0	32574	32813	35504	
733	0	32640	32664	35472	
734	0	32736	32840	35448	
735	0	32672	32816	35432	
736	0	32728	32775	35416	
737	0	32794	32812	35427	
738	0	32752	32741	35431	
739	0	32880	32840	35433	
740	0	32900	32836	35433	
741	0	32994	32660	35439	
742	0	33068	32758	35449	
743	0	33024	32804	35438	
744	0	32932	32942	35444	
745	0	32906	32927	35446	
746	0	32964	32935	35448	
747	0	32961	32881	35460	
748	0	32820	33024	35468	
749	0	32732	33124	35464	
750	0	32588	33093	35466	
751	0	32484	32952	35452	
752	0	32558	32804	35426	
753	0	32628	32929	35416	
754	0	32670	33060	35420	
755	0	32664	32977	35406	
756	0	32676	32949	35420	
757	0	32745	32874	35491	
758	0	32716	32852	35540	
759	0	32868	32693	35568	
760	0	32848	32710	35620	
761	0	32976	32740	35649	
762	0	32888	32652	35663	
763	0	32910	32552	35660	
764	0	32895	32672	35669	
765	0	32918	32684	35652	
766	0	32900	32764	35621	
767	0	32866	32804	35572	
768	0	32652	32870	35517	
769	0	32668	32956	35496	
770	0	32620	32972	35468	
771	0	32620	32992	35454	
772	0	32645	32916	35401	
773	0	32648	33060	35372	
774	0	32657	33005	35348	
775	0	32748	32950	35316	
776	0	32832	32902	35305	
777	0	32826	32920	35292	
778	0	32952	33020	35292	
779	0	32970	32984	35300	
780	0	32984	32866	35295	
781	0	33004	32876	35248	
782	0	32852	32866	35233	
783	0	32824	32870	35228	
784	0	32836	32900	35270	
785	0	32852	32837	35298	
786	0	32812	32928	35314	
787	0	32842	32880	35345	
788	0	32852	32864	35364	
789	0	32740	32944	35391	
790	0	32680	33032	35404	
791	0	32532	32879	35421	
792	0	32632	32864	35424	
793	0	32644	32942	35441	
794	0	32648	32751	35471	
795	0	32644	32788	35497	
796	0	32648	32821	35492	
797	0	32724	32739	35540	
798	0	32808	32637	35565	
799	0	32900	32593	35574	
800	0	32976	32325	35566	
801	0	32988	32446	35580	
802	0	32952	32490	35584	
803	0	32772	32638	35576	
804	0	32844	32812	35556	
805	0	32916	32792	35564	
806	0	32884	32904	35589	
807	0	32942	32996	35584	
808	0	32760	33012	35575	
809	0	32808	33270	35608	
810	0	32724	33220	35636	
811	0	32660	32995	35628	
812	0	32736	33072	35591	
813	0	32864	32885	35557	
814	0	32736	32805	35565	
815	0	32684	32636	35552	
816	0	32628	32472	35501	
817	0	32728	32293	35508	
818	0	32660	32172	35508	
819	0	32716	32366	35496	
820	0	32804	32501	35493	
821	0	32844	32552	35477	
822	0	32922	32680	35492	
823	0	33060	32792	35540	
824	0	33064	32832	35575	
825	0	32860	33140	35660	
826	0	32832	32946	35729	
827	0	32860	32960	35828	
828	0	32760	32936	35948	
829	0	32528	33012	36084	
830	0	32369	33054	36320	
831	0	32397	33284	36556	
832	0	32532	33198	36864	
833	0	32712	33201	37209	
834	0	32688	33180	37580	
835	0	32820	33008	37925	
836	0	33092	32465	38316	
837	0	33368	32300	38732	
838	0	33162	32208	39145	
839	0	32888	32388	39455	
840	0	32748	32495	39650	
841	0	32788	32380	39828	
842	0	33081	32541	39952	
843	0	32932	32762	40063	
844	0	32892	32988	40089	
845	0	32772	33020	40052	
846	0	32674	33060	39988	
847	0	32624	33041	39943	
848	0	32214	32913	39926	
849	0	32296	32734	39893	
850	0	32532	32248	39942	
851	0	32620	31913	40077	
852	0	32888	32156	40125	
853	0	33097	32424	40180	
854	0	33272	32870	40217	
855	0	33114	33133	40244	
856	0	32936	33142	40276	
857	0	32994	33132	40268	
858	0	32957	33356	40212	
859	0	32976	33181	40100	
860	0	32916	32921	39893	
861	0	32968	32612	39700	
862	0	32856	32480	39453	
863	0	32704	32384	39176	
864	0	32900	32340	38852	
865	0	33116	32569	38565	
866	0	32720	32735	38254	
867	0	32728	32948	37912	
868	0	32676	32904	37584	
869	0	32568	32809	37232	
870	0	32484	32753	36908	
871	0	32428	32512	36557	
872	0	31964	32664	36220	
873	0	31976	33128	35888	
874	0	31668	33166	35592	
875	0	31812	32844	35320	
876	0	32608	32838	35057	
877	0	32856	33040	34892	
878	0	33686	32957	34681	
879	0	33924	32964	34404	
880	0	33364	32576	34189	
881	0	33397	32348	34023	
882	0	33416	32397	33912	
883	0	33280	32878	33810	
884	0	33154	33098	33708	
885	0	32800	33346	33624	
886	0	32508	33592	33581	
887	0	32144	33508	33548	
888	0	31528	33448	33566	
889	0	31780	33196	33550	
890	0	32324	33196	33578	
891	0	32606	32932	33601	
892	0	32842	32890	33652	
893	0	32820	32669	33716	
894	0	32688	32672	33798	
895	0	32586	32644	33888	
896	0	32704	32565	34012	
897	0	32830	32713	34125	
898	0	32944	32560	34260	
899	0	33014	32628	34436	
900	0	33524	32612	34616	
901	0	33652	32420	34812	
902	0	33556	32380	34980	
903	0	33340	32376	35146	
904	0	33234	32704	35311	
905	0	33436	32614	35463	
906	0	32836	32756	35633	
907	0	32120	33240	35766	
908	0	32372	33402	35904	
909	0	32864	33572	36036	
910	0	32776	33556	36136	
911	0	31569	33165	36234	
912	0	31462	32548	36327	
913	0	31604	32108	36389	
914	0	32084	32054	36480	
915	0	32682	32368	36532	
916	0	33068	32610	36605	
917	0	32856	32572	36664	
918	0	33125	32736	36716	
919	0	33640	33108	36760	
920	0	34357	33202	36800	
921	0	34556	32953	36824	
922	0	34012	32868	36901	
923	0	32670	32732	36992	
924	0	32892	32498	37088	
925	0	33064	32388	37216	
926	0	32412	32272	37405	
927	0	30936	32312	37632	
928	0	30252	32630	37889	
929	0	31496	33076	38156	
930	0	32816	33260	38444	
931	0	33504	33152	38738	
932	0	33232	33108	39016	
933	0	32184	33316	39270	
934	0	31908	32972	39496	
935	0	32702	32340	39735	
936	0	33352	32145	39953	
937	0	33984	32308	40040	
938	0	34068	33030	40156	
939	0	33962	33209	40270	
940	0	33920	32848	40376	
941	0	34136	33346	40455	
942	0	34536	33600	40514	
943	0	33168	33224	40580	
944	0	32600	32984	40636	
945	0	32384	32980	40692	
946	0	31858	32982	40741	
947	0	31028	33236	40785	
948	0	29929	33188	40839	
949	0	30974	33066	40783	
950	0	31604	32992	40689	
951	0	32512	32704	40604	
952	0	32660	32304	40525	
953	0	32856	32580	40404	
954	0	33504	32453	40257	
955	0	33568	31588	40104	
956	0	33228	31552	39957	
957	0	32888	32097	39767	
958	0	32940	33037	39566	
959	0	33208	34150	39354	
960	0	33080	33482	39102	
961	0	32996	32792	38884	
962	0	33360	32289	38675	
963	0	33180	32504	38396	
964	0	32799	32884	38116	
965	0	32452	32678	37873	
966	0	32472	33140	37654	
967	0	33264	33880	37452	
968	0	33164	33724	37264	
969	0	32864	33569	37112	
970	0	32576	33250	36976	
971	0	32445	32916	36871	
972	0	32337	32718	36776	
973	0	32432	32616	36716	
974	0	32531	32304	36655	
975	0	32636	32817	36608	
976	0	32744	33452	36645	
977	0	32905	33656	36585	
978	0	33096	33644	36496	
979	0	33156	33454	36449	
980	0	33313	32584	36424	
981	0	33364	31908	36406	
982	0	33224	31960	36352	
983	0	33116	31940	36304	
984	0	32968	31972	36276	
985	0	32952	32032	36261	
986	0	32764	32500	36169	
987	0	32656	32900	36070	
988	0	32512	32857	35948	
989	0	32416	32600	35852	
990	0	32516	32732	35780	
991	0	32440	32896	35678	
992	0	32229	33052	35554	
993	0	32252	33001	35452	
994	0	32604	33006	35364	
995	0	32544	33009	35316	
996	0	32724	33079	35125	
997	0	32796	32996	34927	
998	0	33182	32818	34768	
999	0	33440	33030	34660	
1000	0	33663	32916	34532	
1001	0	33580	32896	34404	
1002	0	33884	32844	34236	
1003	0	33030	32922	34072	
1004	0	32526	32996	33876	
1005	0	31652	33159	33681	
1006	0	31152	33220	33481	
1007	0	32344	33126	33288	
1008	0	33412	32782	33060	
1009	0	33110	32748	32802	
1010	0	33172	32621	32546	
1011	0	34012	32600	32246	
1012	0	34200	32768	31956	
1013	0	33812	32884	31628	
1014	0	33900	32966	31300	
1015	0	33844	33057	30964	
1016	0	31857	33096	30621	
1017	0	28800	32728	30267	
1018	0	27961	33085	29918	
1019	0	29941	33304	29576	
1020	0	32852	33318	29225	
1021	0	34622	33208	28886	
1022	0	33944	33186	28564	
1023	0	32998	32914	28248	
1024	0	33664	32415	27940	
1025	0	35057	32201	27648	
1026	0	34090	32276	27336	
1027	0	32800	32706	27048	
1028	0	31610	33144	26815	
1029	0	31760	33537	26664	
1030	0	32496	33148	26596	
1031	0	33428	33564	26565	
1032	0	32764	33765	26550	
1033	0	32815	33382	26576	
1034	0	32646	33082	26640	
1035	0	32644	32934	26760	
1036	0	33124	32468	26974	
1037	0	33061	31792	27228	
1038	0	32238	31589	27562	
1039	0	32820	32164	27944	
1040	0	34308	32487	28376	
1041	0	33940	32630	28868	
1042	0	33076	33088	29425	
1043	0	31548	33076	30044	
1044	0	29980	33208	30682	
1045	0	30860	33080	31532	
1046	0	33276	32948	32100	
1047	0	34012	32732	32631	
1048	0	33164	32700	33239	
1049	0	33045	32792	33931	
1050	0	33654	32956	34626	
1051	0	33280	32677	35316	
1052	0	32300	32580	35948	
1053	0	31688	32420	36516	
1054	0	31440	31861	37101	
1055	0	31944	32016	37700	
1056	0	33601	32672	38296	
1057	0	34324	33052	38860	
1058	0	34156	32672	39364	
1059	0	33892	32580	39904	
1060	0	34346	32670	40400	
1061	0	34412	32774	40884	
1062	0	34032	32864	41357	
1063	0	32456	32701	41824	
1064	0	31560	33012	42233	
1065	0	30620	32844	42623	
1066	0	29968	32812	42973	
1067	0	31005	33164	43301	
1068	0	32100	33156	43620	
1069	0	33152	33132	43916	
1070	0	33196	33313	44116	
1071	0	33084	33364	44285	
1072	0	33388	32804	44440	
1073	0	33472	31938	44568	
1074	0	33364	31752	44660	
1075	0	32980	32309	44757	
1076	0	32838	32444	44752	
1077	0	33072	32645	44784	
1078	0	33196	32423	44749	
1079	0	32544	32497	44749	
1080	0	32724	32964	44704	
1081	0	32798	32925	44632	
1082	0	32760	32792	44547	
1083	0	33084	32880	44476	
1084	0	32728	33020	44191	
1085	0	33236	33132	43980	
1086	0	33821	32980	43773	
1087	0	34212	33159	43564	
1088	0	33184	33374	43340	
1089	0	32268	32960	43044	
1090	0	31500	32728	42764	
1091	0	31480	32574	42397	
1092	0	31660	32720	42055	
1093	0	31425	33028	41692	
1094	0	31488	32916	41280	
1095	0	32784	32908	40836	
1096	0	32864	32967	40416	
1097	0	33308	33172	39972	
1098	0	33870	33360	39502	
1099	0	33644	33212	39034	
1100	0	33856	33132	38560	
1101	0	32896	33279	38096	
1102	0	31990	32716	37644	
1103	0	32110	32148	37191	
1104	0	33396	32420	36776	
1105	0	33197	32912	36356	
1106	0	32360	33192	35936	
1107	0	32384	33204	35532	
1108	0	32932	33140	35146	
1109	0	33144	33212	34785	
1110	0	33216	33164	34444	
1111	0	33000	33188	34128	
1112	0	32476	32996	33834	
1113	0	32244	32832	33553	
1114	0	32677	32998	33285	
1115	0	32307	32956	33034	
1116	0	32590	32885	32788	
1117	0	32840	32990	32584	
1118	0	33544	33000	32390	
1119	0	33076	33051	32237	
1120	0	33200	32892	32132	
1121	0	33928	32653	32090	
1122	0	33828	32469	32080	
1123	0	33056	32603	32100	
1124	0	32628	32607	32124	
1125	0	32520	32816	32222	
1126	0	32384	32868	32344	
1127	0	32484	32813	32508	
1128	0	32748	32932	32642	
1129	0	32814	33116	32800	
1130	0	32344	33463	32993	
1131	0	32600	33148	33182	
1132	0	32712	32615	33376	
1133	0	31916	32218	33588	
1134	0	32060	32372	33772	
1135	0	32782	32528	33964	
1136	0	32868	32360	34164	
1137	0	32845	32448	34340	
1138	0	33064	32724	34506	
1139	0	33150	32822	34672	
1140	0	33036	32556	34840	
1141	0	33125	32584	35016	
1142	0	33108	32780	35188	
1143	0	32894	32868	35356	
1144	0	32848	32736	35556	
1145	0	32872	32879	35718	
1146	0	32840	32853	35914	
1147	0	32720	32961	36124	
1148	0	32426	33030	36312	
1149	0	32240	33132	36532	
1150	0	32141	33134	36734	
1151	0	32132	33126	36943	
1152	0	32654	32490	37133	
1153	0	33577	32620	37305	
1154	0	34005	32702	37481	
1155	0	33924	32538	37640	
1156	0	33468	32644	37775	
1157	0	32984	32813	37908	
1158	0	32604	32748	37989	
1159	0	31260	33108	38080	
1160	0	31856	33143	38180	
1161	0	32740	32752	38272	
1162	0	33192	32784	38297	
1163	0	33174	32722	38308	
1164	0	33204	33020	38312	
1165	0	33196	32740	38284	
1166	0	33062	32422	38241	
1167	0	33308	32644	38189	
1168	0	33322	32734	38100	
1169	0	33072	32680	38022	
1170	0	32600	32976	37917	
1171	0	31026	33048	37812	
1172	0	30592	33056	37704	
1173	0	32106	33318	37577	
1174	0	32496	33040	37453	
1175	0	32108	32468	37321	
1176	0	32806	32336	37224	
1177	0	32864	32556	37092	
1178	0	32924	32628	36992	
1179	0	33308	32729	36869	
1180	0	33636	32780	36756	
1181	0	33164	32756	36660	
1182	0	33116	32833	36516	
1183	0	33060	32864	36421	
1184	0	33024	33023	36306	
1185	0	32908	33025	36226	
1186	0	32993	33135	36144	
1187	0	33144	33124	36082	
1188	0	32485	33104	36057	
1189	0	32596	33076	36024	
1190	0	32529	33072	35972	
1191	0	32534	32724	35933	
1192	0	33292	32736	35912	
1193	0	33064	32812	35871	
1194	0	32256	32756	35864	
1195	0	31912	32958	35854	
1196	0	31984	32858	35820	
1197	0	32460	32796	35823	
1198	0	32908	32901	35808	
1199	0	33544	32914	35814	
1200	0	33820	32933	35812	
1201	0	33740	32914	35822	
1202	0	33228	32820	35844	
1203	0	33520	33006	35846	
1204	0	33494	32998	35860	
1205	0	33064	32804	35855	
1206	0	32580	32660	35847	
1207	0	31912	32801	35862	
1208	0	32260	32705	35876	
1209	0	32548	32748	35884	
1210	0	32396	32965	35892	
1211	0	32401	32943	35897	
1212	0	32480	32948	35897	
1213	0	32320	32762	35888	
1214	0	32304	32688	35919	
1215	0	32693	32740	35900	
1216	0	32888	32588	35888	
1217	0	33152	32802	35869	
1218	0	33412	32530	35846	
1219	0	33188	32613	35830	
1220	0	32696	32848	35833	
1221	0	32665	32840	35798	
1222	0	33012	32834	35766	
1223	0	33100	32660	35772	
1224	0	32920	32736	35717	
1225	0	32768	32928	35704	
1226	0	32836	32824	35652	
1227	0	32748	32732	35650	
1228	0	32728	32833	35644	
1229	0	32544	32839	35624	
1230	0	32404	33009	35640	
1231	0	32580	32798	35645	
1232	0	32496	32764	35649	
1233	0	32724	32684	35672	
1234	0	32768	32870	35721	
1235	0	32832	33162	35779	
1236	0	33360	33084	35852	
1237	0	33408	33253	35928	
1238	0	32764	32886	36024	
1239	0	33324	32929	36100	
1240	0	33239	32720	36200	
1241	0	32400	32292	36280	
1242	0	29884	32132	36409	
1243	0	30648	32244	36516	
1244	0	32936	32517	36638	
1245	0	34304	32665	36740	
1246	0	35172	32996	36868	
1247	0	34056	33141	36998	
1248	0	33444	33126	37108	
1249	0	32645	32839	37208	
1250	0	32628	32840	37300	
1251	0	32738	32741	37380	
1252	0	32672	32974	37429	
1253	0	32334	32868	37485	
1254	0	32080	32868	37549	
1255	0	31429	32749	37581	
1256	0	32221	32836	37612	
1257	0	32452	32992	37656	
1258	0	32498	32728	37700	
1259	0	33112	32798	37757	
1260	0	33024	32964	37796	
1261	0	33030	32988	37824	
1262	0	33058	32931	37871	
1263	0	33264	32824	37895	
1264	0	32960	32840	37956	
1265	0	33389	32860	38008	
1266	0	33264	32820	38044	
1267	0	33320	32812	38064	
1268	0	33112	32838	38065	
1269	0	33090	32922	38070	
1270	0	32404	32938	38068	
1271	0	31554	32884	38084	
1272	0	32060	32918	38055	
1273	0	32860	33000	38006	
1274	0	32804	32804	37976	
1275	0	32121	32399	37933	
1276	0	32240	32421	37876	
1277	0	32660	32710	37838	
1278	0	33036	32900	37796	
1279	0	33136	32808	37716	
1280	0	32958	32872	37670	
1281	0	33004	32933	37592	
1282	0	32988	33104	37525	
1283	0	33048	32788	37473	
1284	0	32972	32772	37434	
1285	0	32890	32916	37357	
1286	0	33060	32988	37324	
1287	0	33076	33024	37255	
1288	0	32848	33140	37180	
1289	0	32932	32988	37084	
1290	0	32652	32938	36984	
1291	0	32426	32902	36893	
1292	0	32348	32775	36797	
1293	0	32404	32660	36660	
1294	0	32548	32692	36544	
1295	0	32652	32828	36415	
1296	0	32842	32960	36288	
1297	0	32820	32922	36158	
1298	0	32756	32721	36032	
1299	0	32816	32964	35856	
1300	0	32906	33017	35719	
1301	0	32950	32860	35566	
1302	0	33146	32933	35416	
1303	0	33076	32940	35273	
1304	0	33116	33052	35142	
1305	0	32917	32930	35024	
1306	0	32881	33042	34916	
1307	0	32832	33052	34796	
1308	0	32576	33004	34668	
1309	0	32428	32868	34558	
1310	0	32444	32728	34440	
1311	0	32368	32762	34349	
1312	0	32469	32740	34252	
1313	0	32650	32892	34184	
1314	0	33040	33104	34119	
1315	0	32857	33064	34068	
1316	0	32765	32872	34044	
1317	0	32848	32775	34025	
1318	0	33114	32588	34055	
1319	0	33014	32493	34060	
1320	0	32944	32935	34084	
1321	0	32896	32772	34165	
1322	0	32773	32750	34236	
1323	0	32740	32912	34313	
1324	0	32996	32916	34453	
1325	0	33124	32844	34564	
1326	0	33120	32838	34687	
1327	0	33008	32918	34844	
1328	0	33288	32996	35016	
1329	0	32448	32964	35188	
1330	0	31944	32908	35345	
1331	0	31776	32686	35492	
1332	0	32612	32680	35652	
1333	0	32124	32648	35808	
1334	0	32180	32874	35944	
1335	0	32660	32452	36100	
1336	0	33412	32424	36244	
1337	0	33676	32544	36364	
1338	0	34484	32720	36505	
1339	0	34324	32896	36629	
1340	0	32964	32716	36768	
1341	0	31202	32712	36902	
1342	0	31980	32631	37028	
1343	0	31532	32688	37133	
1344	0	32164	32998	37261	
1345	0	33676	32868	37364	
1346	0	33289	32780	37500	
1347	0	32568	33105	37626	
1348	0	31820	33060	37748	
1349	0	32372	33217	37893	
1350	0	32832	32806	38028	
1351	0	33060	32654	38128	
1352	0	32864	32580	38236	
1353	0	32870	32820	38304	
1354	0	32804	32900	38364	
1355	0	33236	32890	38412	
1356	0	33452	32646	38493	
1357	0	33220	32526	38550	
1358	0	32872	32628	38581	
1359	0	32568	32806	38600	
1360	0	32293	32508	38626	
1361	0	32148	32542	38661	
1362	0	32457	32887	38692	
1363	0	33336	32877	38677	
1364	0	33392	32828	38694	
1365	0	33356	32867	38700	
1366	0	33652	32902	38720	
1367	0	32996	33031	38672	
1368	0	32308	32820	38656	
1369	0	32185	32845	38631	
1370	0	32496	32865	38574	
1371	0	32508	32735	38488	
1372	0	32601	32534	38436	
1373	0	32640	32842	38360	
1374	0	32516	32784	38288	
1375	0	32524	32906	38164	
1376	0	32692	32908	38071	
1377	0	32920	33012	37982	
1378	0	32820	33096	37860	
1379	0	32740	32869	37772	
1380	0	32845	33032	37668	
1381	0	32768	32805	37544	
1382	0	32772	32756	37416	
1383	0	32804	32948	37292	
1384	0	33008	32736	37178	
1385	0	33141	32628	37080	
1386	0	33352	32837	36940	
1387	0	33276	32918	36804	
1388	0	32989	32765	36704	
1389	0	32949	32928	36580	
1390	0	32740	33145	36464	
1391	0	32562	33124	36340	
1392	0	32578	33036	36236	
1393	0	32317	33012	36136	
1394	0	32156	32752	36047	
1395	0	32344	32684	35932	
1396	0	32652	32724	35852	
1397	0	32700	32892	35754	
1398	0	32908	32916	35640	
1399	0	33074	32841	35552	
1400	0	32936	33020	35460	
1401	0	32796	32930	35368	
1402	0	32497	32718	35276	
1403	0	32768	32748	35178	
1404	0	33281	32940	35101	
1405	0	33456	32905	34976	
1406	0	33730	33101	34908	
1407	0	33424	33128	34841	
1408	0	32676	33085	34768	
1409	0	32477	32990	34694	
1410	0	32512	33034	34649	
1411	0	32428	32485	34600	
1412	0	32148	32388	34572	
1413	0	32282	32528	34530	
1414	0	32368	32631	34528	
1415	0	32478	32669	34532	
1416	0	32722	32620	34540	
1417	0	32830	32839	34567	
1418	0	32552	32782	34620	
1419	0	32652	32926	34703	
1420	0	32876	32900	34768	
1421	0	32976	32836	34817	
1422	0	33098	32832	34905	
1423	0	33236	32888	35002	
1424	0	33113	32984	35100	
1425	0	32972	33031	35206	
1426	0	32908	33166	35301	
1427	0	33144	32916	35388	
1428	0	33188	32895	35477	
1429	0	33184	32948	35552	
1430	0	33090	32916	35677	
1431	0	32501	33004	35770	
1432	0	32224	32860	35848	
1433	0	31388	32885	35947	
1434	0	32525	32998	36020	
1435	0	32145	32436	36081	
1436	0	32216	32597	36166	
1437	0	31852	32564	36228	
1438	0	32396	32777	36306	
1439	0	33054	32878	36386	
1440	0	33372	32828	36455	
1441	0	33992	32880	36529	
1442	0	33708	32999	36615	
1443	0	33516	32820	36680	
1444	0	33405	32870	36756	
1445	0	32884	33000	36820	
1446	0	32724	32768	36896	
1447	0	32872	32652	36980	
1448	0	32624	32725	37068	
1449	0	32584	32864	37132	
1450	0	32753	32925	37197	
1451	0	32732	32884	37276	
1452	0	32132	32812	37324	
1453	0	31904	32892	37372	
1454	0	32248	33030	37440	
1455	0	32612	32932	37472	
1456	0	32608	32764	37512	
1457	0	32394	32892	37548	
1458	0	32534	32780	37580	
1459	0	33404	32814	37605	
1460	0	33752	32724	37608	
1461	0	33432	32758	37612	
1462	0	33036	32760	37604	
1463	0	32602	32728	37596	
1464	0	32452	32570	37572	
1465	0	32717	32604	37529	
1466	0	33105	32609	37524	
1467	0	33346	32772	37508	
1468	0	33180	32845	37480	
1469	0	32820	32970	37471	
1470	0	32668	32850	37432	
1471	0	32460	32832	37409	
1472	0	32448	32632	37372	
1473	0	32656	32941	37316	
1474	0	32412	33022	37281	
1475	0	32381	33048	37232	
1476	0	32669	33144	37204	
1477	0	32680	32988	37166	
1478	0	32596	32705	37135	
1479	0	33002	32529	37088	
1480	0	33036	32494	37060	
1481	0	33160	32625	37020	
1482	0	33465	32742	36961	
1483	0	33328	32852	36932	
1484	0	32992	32796	36880	
1485	0	32812	32926	36842	
1486	0	32572	32953	36781	
1487	0	32376	33096	36709	
1488	0	32453	32929	36637	
1489	0	32524	32945	36565	
1490	0	32764	32986	36495	
1491	0	33072	33002	36444	
1492	0	33148	32933	36352	
1493	0	32566	32725	36266	
1494	0	32256	32745	36224	
1495	0	32358	32730	36182	
1496	0	32548	32668	36124	
1497	0	32760	32612	36080	
1498	0	32748	32716	36044	
1499	0	32756	32948	36021	
1500	0	32968	32864	35988	
1501	0	32862	32881	35992	
1502	0	32976	32896	35968	
1503	0	33184	32960	35945	
1504	0	33312	32908	35946	
1505	0	33421	32868	35924	
1506	0	33164	32954	35920	
1507	0	32794	32936	35896	
1508	0	32476	32913	35884	
1509	0	32292	32916	35865	
1510	0	32574	33036	35836	
1511	0	32440	33088	35808	
1512	0	32402	32840	35796	
1513	0	32328	32552	35757	
1514	0	32592	32444	35732	
1515	0	32736	32564	35695	
1516	0	32917	32533	35664	
1517	0	33324	32748	35629	
1518	0	33340	32834	35601	
1519	0	32296	32860	35580	
1520	0	32046	32981	35552	
1521	0	32064	33029	35524	
1522	0	33020	33044	35496	
1523	0	34248	32880	35464	
1524	0	34092	32917	35448	
1525	0	33496	32997	35445	
1526	0	32576	32721	35462	
1527	0	32900	32872	35482	
1528	0	32724	33074	35497	
1529	0	32228	32993	35502	
1530	0	32256	32630	35520	
1531	0	32332	32784	35549	
1532	0	31536	32708	35591	
1533	0	31916	32500	35612	
1534	0	33550	32487	35612	
1535	0	33122	32656	35648	
1536	0	32986	32677	35668	
1537	0	32894	32928	35712	
1538	0	32758	32999	35772	
1539	0	32852	33065	35784	
1540	0	33124	33109	35806	
1541	0	33101	32941	35844	
1542	0	32810	32661	35878	
1543	0	32908	32652	35928	
1544	0	32784	32768	35975	
1545	0	32544	32888	36037	
1546	0	32416	32913	36100	
1547	0	33424	32976	36154	
1548	0	33472	32932	36220	
1549	0	32618	32804	36284	
1550	0	32132	32904	36316	
1551	0	32456	32902	36346	
1552	0	32538	32722	36417	
1553	0	32512	32824	36459	
1554	0	32492	32960	36504	
1555	0	32525	32892	36565	
1556	0	32656	33053	36602	
1557	0	32904	33052	36639	
1558	0	32980	32988	36684	
1559	0	32828	32871	36680	
1560	0	32722	32870	36705	
1561	0	32686	32846	36743	
1562	0	33058	32412	36772	
1563	0	33280	32496	36783	
1564	0	33500	32800	36794	
1565	0	33464	32668	36810	
1566	0	33104	32474	36849	
1567	0	32913	32504	36884	
1568	0	32824	32756	36908	
1569	0	32902	32660	36906	
1570	0	32388	32801	36932	
1571	0	32344	32901	36948	
1572	0	32318	32932	36964	
1573	0	32286	32894	36972	
1574	0	32476	33024	36949	
1575	0	32440	33002	36965	
1576	0	32725	32876	36976	
1577	0	32624	32920	36942	
1578	0	33016	32834	36934	
1579	0	33329	32774	36896	
1580	0	33252	32948	36871	
1581	0	32952	32644	36860	
1582	0	32708	32580	36860	
1583	0	32702	32804	36836	
1584	0	33148	32892	36844	
1585	0	33176	32974	36832	
1586	0	32888	33016	36817	
1587	0	32888	32894	36808	
1588	0	32808	32856	36797	
1589	0	32777	32844	36796	
1590	0	32944	32708	36776	
1591	0	32480	32772	36736	
1592	0	32565	32676	36700	
1593	0	32220	32823	36648	
1594	0	32136	32972	36620	
1595	0	32209	32938	36620	
1596	0	32376	32785	36602	
1597	0	32220	32713	36585	
1598	0	32712	32737	36585	
1599	0	32940	32648	36569	
1600	0	33206	32933	36542	
1601	0	33276	32980	36529	
1602	0	33694	32832	36525	
1603	0	33817	32766	36548	
1604	0	33356	32852	36560	
1605	0	33044	33028	36551	
1606	0	32948	33012	36546	
1607	0	32358	32752	36551	
1608	0	32348	32864	36552	
1609	0	33004	33047	36536	
1610	0	33260	32757	36544	
1611	0	32888	32556	36552	
1612	0	32536	32706	36525	
1613	0	32476	32664	36504	
1614	0	32101	32645	36500	
1615	0	31533	32552	36461	
1616	0	31664	32684	36440	
1617	0	32680	32876	36402	
1618	0	33206	32993	36368	
1619	0	33164	33077	36335	
1620	0	33530	32904	36308	
1621	0	33540	33060	36276	
1622	0	33122	33040	36244	
1623	0	33024	32954	36221	
1624	0	32896	32710	36170	
1625	0	32533	32872	36148	
1626	0	32736	32940	36108	
1627	0	32996	33000	36084	
1628	0	32016	32768	36052	
1629	0	32572	32950	36060	
1630	0	33082	33061	36056	
1631	0	32820	32612	36049	
1632	0	32540	32561	36072	
1633	0	32636	32660	36072	
1634	0	32632	32757	36064	
1635	0	32597	32700	36081	
1636	0	32556	32733	36099	
1637	0	32785	32656	36118	
1638	0	32950	32569	36124	
1639	0	32993	32596	36167	
1640	0	33016	32860	36196	
1641	0	33100	33127	36202	
1642	0	33032	33096	36257	
1643	0	32576	33101	36290	
1644	0	32280	33188	36308	
1645	0	32812	32925	36354	
1646	0	33296	32885	36408	
1647	0	33088	32820	36456	
1648	0	32800	32893	36512	
1649	0	33492	32838	36564	
1650	0	32896	32812	36604	
1651	0	32436	32845	36636	
1652	0	32240	32668	36652	
1653	0	31896	32596	36664	
1654	0	32232	32596	36680	
1655	0	32780	32645	36704	
1656	0	32696	32696	36743	
1657	0	32731	32931	36764	
1658	0	32802	33009	36740	
1659	0	32856	32872	36780	
1660	0	32908	32961	36795	
1661	0	32968	33004	36784	
1662	0	33124	32820	36766	
1663	0	33304	32908	36782	
1664	0	33221	32927	36808	
1665	0	33072	32780	36810	
1666	0	32956	32950	36832	
1667	0	32757	32920	36839	
1668	0	32612	32837	36832	
1669	0	32612	32888	36834	
1670	0	32540	32988	36860	
1671	0	32512	32932	36892	
1672	0	32496	32844	36884	
1673	0	32256	32784	36871	
1674	0	32220	32797	36871	
1675	0	32472	32838	36871	
1676	0	32780	32753	36852	
1677	0	32964	32576	36808	
1678	0	33116	32780	36774	
1679	0	33128	33012	36727	
1680	0	33168	32973	36702	
1681	0	33140	32776	36689	
1682	0	33148	32658	36672	
1683	0	33056	32799	36648	
1684	0	32724	32904	36643	
1685	0	32716	32864	36650	
1686	0	32788	32588	36640	
1687	0	33053	32804	36624	
1688	0	32960	32890	36644	
1689	0	32992	32740	36628	
1690	0	32644	32812	36660	
1691	0	32320	32928	36623	
1692	0	32036	32832	36612	
1693	0	31986	32845	36636	
1694	0	32373	32952	36612	
1695	0	32680	32885	36576	
1696	0	32804	32997	36552	
1697	0	33413	32849	36532	
1698	0	33132	32841	36500	
1699	0	32681	32842	36466	
1700	0	32449	32873	36439	
1701	0	33356	33031	36385	
1702	0	33568	32877	36337	
1703	0	33324	32932	36312	
1704	0	32508	32964	36288	
1705	0	32592	32820	36290	
1706	0	32808	32656	36226	
1707	0	33112	32705	36205	
1708	0	32792	32638	36189	
1709	0	32600	32740	36161	
1710	0	32548	33172	36156	
1711	0	32548	32813	36117	
1712	0	32704	32823	36119	
1713	0	32884	32765	36092	
1714	0	32149	32796	36040	
1715	0	31752	32825	36040	
1716	0	32016	32868	36020	
1717	0	32548	32928	35996	
1718	0	33256	32780	35962	
1719	0	33504	32813	35920	
1720	0	34176	32876	35876	
1721	0	34232	32807	35830	
1722	0	33380	32863	35800	
1723	0	32532	32772	35773	
1724	0	31680	32748	35733	
1725	0	31996	32980	35700	
1726	0	32892	32996	35664	
1727	0	33196	32821	35656	
1728	0	32944	32756	35645	
1729	0	32236	32644	35616	
1730	0	32692	32854	35578	
1731	0	32597	32772	35554	
1732	0	32552	32610	35548	
1733	0	32532	32714	35532	
1734	0	32677	32863	35532	
1735	0	32792	32997	35542	
1736	0	32916	32878	35552	
1737	0	32700	33024	35576	
1738	0	32732	32820	35606	
1739	0	32749	32764	35620	
1740	0	32874	32841	35626	
1741	0	33020	32788	35656	
1742	0	33196	32727	35692	
1743	0	33236	32864	35745	
1744	0	32968	32744	35781	
1745	0	32804	32858	35853	
1746	0	32784	32847	35904	
1747	0	32892	32960	35938	
1748	0	32700	32850	35975	
1749	0	32676	32770	36014	
1750	0	32708	32973	36060	
1751	0	32552	32916	36104	
1752	0	32404	32728	36157	
1753	0	32352	32996	36192	
1754	0	32474	33112	36226	
1755	0	32536	32580	36272	
1756	0	32628	32644	36340	
1757	0	32808	32652	36396	
1758	0	32846	32814	36431	
1759	0	32913	32636	36484	
1760	0	33092	32744	36545	
1761	0	32808	32865	36592	
1762	0	32796	32830	36620	
1763	0	33036	32762	36648	
1764	0	33096	32879	36713	
1765	0	33098	32853	36789	
1766	0	33456	32788	36840	
1767	0	33544	32900	36884	
1768	0	33124	33159	36944	
1769	0	32508	32874	36990	
1770	0	32548	32812	37036	
1771	0	32352	32881	37088	
1772	0	32228	32708	37137	
1773	0	32268	33000	37132	
1774	0	32340	32788	37136	
1775	0	32320	32952	37160	
1776	0	32269	32884	37161	
1777	0	32524	32756	37178	
1778	0	32952	32768	37196	
1779	0	33092	32744	37216	
1780	0	33458	32728	37236	
1781	0	33380	32637	37252	
1782	0	33136	32412	37280	
1783	0	32916	32634	37311	
1784	0	32836	32752	37332	
1785	0	32929	32849	37344	
1786	0	32854	32974	37360	
1787	0	32708	33031	37401	
1788	0	32520	32926	37409	
1789	0	32336	32972	37437	
1790	0	32484	32896	37436	
1791	0	32480	33009	37458	
1792	0	32736	32904	37465	
1793	0	33368	32900	37436	
1794	0	33277	32892	37413	
1795	0	32933	32664	37372	
1796	0	32976	32647	37338	
1797	0	32888	32903	37312	
1798	0	32300	33100	37244	
1799	0	31924	33004	37208	
1800	0	32664	32972	37152	
1801	0	32912	32896	37087	
1802	0	32756	32720	37020	
1803	0	33132	32632	36964	
1804	0	33325	32432	36906	
1805	0	33132	32572	36857	
1806	0	33097	32768	36788	
1807	0	32868	32876	36728	
1808	0	32636	32896	36685	
1809	0	32596	33000	36636	
1810	0	32708	33137	36610	
1811	0	32648	32676	36526	
1812	0	32788	32612	36454	
1813	0	32584	32750	36416	
1814	0	32632	32768	36352	
1815	0	33036	32828	36304	
1816	0	33036	32748	36241	
1817	0	32328	32873	36192	
1818	0	31920	32892	36152	
1819	0	32164	32908	36118	
1820	0	32933	33122	36080	
1821	0	33188	33142	36053	
1822	0	32885	32788	36014	
1823	0	32836	32933	35981	
1824	0	33100	33072	35927	
1825	0	33371	33060	35888	
1826	0	33428	32858	35860	
1827	0	33154	32679	35834	
1828	0	33016	32564	35817	
1829	0	32804	32646	35784	
1830	0	32620	32700	35752	
1831	0	31960	32728	35732	
1832	0	31860	32868	35676	
1833	0	32384	32892	35641	
1834	0	32540	32368	35596	
1835	0	32384	32597	35565	
1836	0	32450	32856	35546	
1837	0	32856	32912	35538	
1838	0	33144	32896	35517	
1839	0	33273	32896	35512	
1840	0	33772	33088	35509	
1841	0	33610	33266	35505	
1842	0	32796	32928	35514	
1843	0	32764	32738	35556	
1844	0	32988	32798	35584	
1845	0	32880	32904	35600	
1846	0	32892	32808	35648	
1847	0	32916	32919	35680	
1848	0	32740	33074	35720	
1849	0	32608	32848	35759	
1850	0	32512	32840	35808	
1851	0	32512	32788	35857	
1852	0	32376	32748	35930	
1853	0	32240	32648	35981	
1854	0	32134	32770	36032	
1855	0	32380	32756	36087	
1856	0	32668	32864	36126	
1857	0	32788	32964	36165	
1858	0	33148	33084	36176	
1859	0	33116	32924	36230	
1860	0	32844	32831	36241	
1861	0	32902	32772	36261	
1862	0	33108	32688	36304	
1863	0	33200	32852	36322	
1864	0	33220	32786	36359	
1865	0	33084	32685	36380	
1866	0	33214	32864	36420	
1867	0	33136	32660	36446	
1868	0	32813	32775	36478	
1869	0	32732	32913	36510	
1870	0	32620	32888	36540	
1871	0	32600	32885	36607	
1872	0	32232	32842	36632	
1873	0	32056	32964	36653	
1874	0	32336	32953	36668	
1875	0	32500	32809	36701	
1876	0	32576	32864	36733	
1877	0	32733	32863	36773	
1878	0	32958	32926	36782	
1879	0	33012	32712	36820	
1880	0	32868	32740	36836	
1881	0	32992	32840	36882	
1882	0	33148	32743	36925	
1883	0	32964	32708	36938	
1884	0	32912	32860	36948	
1885	0	32688	32677	36953	
1886	0	33045	33060	36964	
1887	0	33076	32910	36967	
1888	0	33384	32600	36982	
1889	0	33256	32816	36968	
1890	0	32568	32830	36958	
1891	0	32441	33021	36917	
1892	0	32536	33104	36895	
1893	0	32760	32724	36871	
1894	0	32076	32753	36836	
1895	0	31386	32929	36808	
1896	0	31752	32780	36753	
1897	0	32324	32828	36712	
1898	0	33336	32836	36660	
1899	0	33228	32766	36615	
1900	0	33260	32890	36533	
1901	0	33374	33084	36476	
1902	0	33356	32932	36405	
1903	0	33136	32712	36348	
1904	0	33060	32665	36292	
1905	0	32976	32789	36264	
1906	0	32872	32783	36247	
1907	0	32812	32669	36208	
1908	0	32797	32608	36193	
1909	0	32700	32680	36164	
1910	0	32644	32896	36140	
1911	0	32848	33119	36100	
1912	0	32764	32839	36081	
1913	0	32532	32784	36044	
1914	0	32452	32913	36016	
1915	0	32512	32868	35990	
1916	0	32392	32724	35981	
1917	0	32164	32919	35943	
1918	0	32194	32887	35916	
1919	0	32661	32943	35918	
1920	0	33052	32878	35897	
1921	0	33612	32716	35860	
1922	0	33880	32836	35844	
1923	0	33780	32846	35838	
1924	0	33204	32855	35852	
1925	0	32824	32884	35860	
1926	0	32656	32797	35863	
1927	0	32544	32696	35892	
1928	0	32984	32789	35900	
1929	0	33221	32820	35924	
1930	0	32652	32908	35928	
1931	0	32324	32892	35976	
1932	0	32332	32708	36012	
1933	0	32408	32830	36044	
1934	0	32320	32820	36096	
1935	0	32468	32640	36120	
1936	0	32784	32676	36166	
1937	0	32553	32681	36228	
1938	0	32684	32783	36256	
1939	0	32824	32924	36278	
1940	0	32992	32906	36338	
1941	0	33124	32993	36384	
1942	0	33189	32795	36397	
1943	0	33092	32806	36417	
1944	0	32936	32808	36413	
1945	0	32932	32805	36436	
1946	0	32708	32842	36441	
1947	0	32692	32936	36448	
1948	0	32682	32895	36457	
1949	0	32596	32805	36472	
1950	0	32576	33061	36492	
1951	0	32504	33015	36472	
1952	0	32540	32980	36494	
1953	0	32560	32658	36476	
1954	0	32824	32693	36472	
1955	0	33028	32960	36484	
1956	0	32808	32865	36496	
1957	0	32552	32360	36522	
1958	0	32688	32676	36532	
1959	0	33068	32638	36552	
1960	0	33102	32796	36585	
1961	0	33109	32962	36613	
1962	0	33128	32852	36647	
1963	0	32964	32764	36652	
1964	0	32884	32841	36662	
1965	0	32832	32904	36686	
1966	0	32822	33020	36692	
1967	0	32730	33063	36693	
1968	0	32512	32852	36717	
1969	0	32452	32808	36728	
1970	0	32516	32997	36764	
1971	0	32638	32813	36781	
1972	0	32852	32624	36792	
1973	0	32928	32628	36780	
1974	0	32621	32794	36796	
1975	0	32612	32966	36796	
1976	0	32900	32612	36784	
1977	0	32800	32861	36776	
1978	0	32364	32900	36780	
1979	0	32572	32704	36784	
1980	0	32992	32924	36780	
1981	0	33000	32892	36781	
1982	0	32986	32775	36794	
1983	0	33040	32681	36788	
1984	0	32968	32740	36804	
1985	0	33296	32876	36780	
1986	0	33253	33037	36776	
1987	0	32832	32932	36788	
1988	0	32152	32671	36772	
1989	0	32080	32824	36752	
1990	0	32272	32794	36749	
1991	0	32449	32835	36748	
1992	0	32588	32738	36724	
1993	0	32590	32673	36713	
1994	0	32972	32868	36684	
1995	0	33336	32885	36656	
1996	0	33074	32892	36636	
1997	0	32852	32860	36636	
1998	0	32668	32809	36585	
1999	0	33004	32668	36560	
2000	0	32613	32869	36540	
2001	0	32290	32934	36526	
2002	0	32364	32852	36516	
2003	0	32844	32841	36492	
2004	0	33196	32914	36469	
2005	0	33842	32770	36462	
2006	0	33984	32940	36452	
2007	0	33264	32906	36440	
2008	0	32916	32831	36446	
2009	0	32657	32748	36426	
2010	0	32452	32760	36404	
2011	0	32376	32926	36404	
2012	0	32384	32770	36416	
2013	0	32373	32748	36417	
2014	0	32496	32748	36412	
2015	0	32508	32789	36390	
2016	0	32524	32740	36388	
2017	0	32572	32874	36396	
2018	0	32634	32905	36400	
2019	0	32694	32828	36404	
2020	0	32880	33012	36414	
2021	0	32961	32864	36422	
2022	0	33046	32512	36428	
2023	0	33064	32657	36433	
2024	0	32936	32936	36460	
2025	0	33125	32794	36468	
2026	0	33156	32876	36509	
2027	0	32864	32961	36517	
2028	0	32692	33058	36534	
2029	0	32808	32978	36575	
2030	0	32678	32964	36592	
2031	0	32532	32983	36564	
2032	0	32521	32818	36576	
2033	0	32444	32572	36556	
2034	0	32652	32742	36532	
2035	0	32464	32727	36528	
2036	0	32648	32716	36526	
2037	0	32725	32869	36492	
2038	0	32940	32901	36488	
2039	0	32960	32793	36473	
2040	0	33010	32886	36448	
2041	0	32976	33198	36454	
2042	0	33064	33025	36432	
2043	0	33104	32952	36405	
2044	0	33112	32788	36380	
2045	0	32955	32801	36384	
2046	0	33080	32798	36357	
2047	0	32846	32772	36356	
2048	0	32704	32703	36352	
2049	0	32496	32858	36337	
2050	0	32460	32597	36332	
2051	0	32624	32864	36344	
2052	0	32500	32844	36337	
2053	0	32436	32902	36321	
2054	0	32532	32640	36328	
2055	0	32621	32766	36308	
2056	0	33002	32856	36332	
2057	0	32932	32856	36344	
2058	0	32828	32828	36328	
2059	0	32948	32810	36316	
2060	0	32832	32968	36305	
2061	0	32208	32769	36300	
2062	0	32016	32780	36284	
2063	0	32976	32752	36256	
2064	0	33864	32744	36250	
2065	0	33496	32748	36231	
2066	0	32986	32657	36216	
2067	0	32744	32772	36193	
2068	0	32840	32916	36172	
2069	0	32868	32994	36172	
2070	0	32686	33054	36148	
2071	0	32480	32996	36170	
2072	0	33202	32840	36164	
2073	0	32841	32798	36152	
2074	0	32097	32856	36132	
2075	0	31629	33276	36136	
2076	0	32388	32568	36162	
2077	0	32822	32476	36188	
2078	0	32732	32588	36188	
2079	0	33023	32624	36217	
2080	0	32961	32960	36231	
2081	0	32996	32976	36280	
2082	0	33140	32757	36292	
2083	0	33412	32840	36316	
2084	0	33124	33004	36344	
2085	0	33017	32956	36383	
2086	0	32972	33008	36428	
2087	0	32980	32894	36444	
2088	0	32864	32788	36480	
2089	0	32592	32786	36502	
2090	0	32556	32900	36504	
2091	0	32296	32922	36568	
2092	0	32200	32716	36588	
2093	0	32612	32709	36638	
2094	0	32824	32738	36636	
2095	0	32762	32820	36660	
2096	0	32712	32960	36685	
2097	0	32448	32730	36716	
2098	0	32432	32636	36716	
2099	0	32878	32720	36704	
2100	0	33008	32719	36716	
2101	0	32704	32988	36758	
2102	0	32865	32808	36743	
2103	0	32961	32788	36720	
2104	0	33000	32936	36704	
2105	0	33300	32828	36716	
2106	0	33524	32781	36743	
2107	0	33332	32836	36764	
2108	0	32865	32871	36794	
2109	0	32678	32796	36780	
2110	0	32544	32924	36772	
2111	0	32360	33057	36764	
2112	0	32404	32840	36804	
2113	0	32431	32862	36787	
2114	0	32396	32804	36774	
2115	0	32484	32886	36754	
2116	0	32650	32828	36737	
2117	0	32720	32886	36716	
2118	0	32704	32871	36717	
2119	0	32892	32920	36696	
2120	0	33032	33052	36656	
2121	0	33009	32837	36631	
2122	0	32872	32652	36609	
2123	0	32716	32695	36592	
2124	0	32856	32758	36556	
2125	0	33072	32528	36532	
2126	0	33490	32597	36508	
2127	0	33740	32940	36484	
2128	0	33296	32974	36481	
2129	0	32636	33057	36480	
2130	0	32480	32941	36470	
2131	0	32260	32824	36444	
2132	0	32272	32749	36432	
2133	0	32436	32736	36402	
2134	0	32544	32694	36385	
2135	0	32612	33083	36365	
2136	0	32657	32969	36364	
2137	0	32720	32780	36375	
2138	0	32561	32724	36359	
2139	0	32844	32756	36336	
2140	0	32722	32714	36320	
2141	0	32761	32824	36302	
2142	0	33040	33021	36286	
2143	0	33114	32872	36282	
2144	0	33224	32996	36244	
2145	0	33052	32864	36249	
2146	0	32900	33026	36236	
2147	0	32941	33014	36213	
2148	0	32768	32548	36231	
2149	0	32680	32660	36246	
2150	0	32645	32992	36240	
2151	0	32564	32928	36236	
2152	0	32416	32752	36238	
2153	0	32577	32835	36224	
2154	0	32800	32903	36228	
2155	0	32808	32859	36200	
2156	0	32745	32856	36230	
2157	0	32865	32740	36248	
2158	0	32732	32768	36246	
2159	0	32436	32740	36244	
2160	0	32736	32988	36262	
2161	0	33124	33036	36294	
2162	0	33098	32860	36304	
2163	0	33076	32844	36316	
2164	0	33068	32944	36332	
2165	0	33154	32783	36376	
2166	0	33001	32669	36384	
2167	0	32888	32519	36420	
2168	0	32863	32652	36436	
2169	0	32800	32655	36476	
2170	0	32676	32710	36484	
2171	0	32481	32814	36517	
2172	0	32332	32787	36542	
2173	0	32152	32752	36541	
2174	0	32276	33048	36554	
2175	0	32538	32776	36570	
2176	0	32504	32512	36559	
2177	0	32778	32740	36560	
2178	0	33452	32933	36557	
2179	0	33104	32976	36574	
2180	0	32984	33000	36544	
2181	0	33132	33151	36566	
2182	0	33088	32797	36596	
2183	0	33000	32752	36630	
2184	0	33144	32924	36636	
2185	0	32800	32959	36633	
2186	0	32712	32892	36624	
2187	0	32836	32708	36632	
2188	0	32804	32805	36664	
2189	0	32608	32832	36681	
2190	0	32568	32756	36688	
2191	0	32740	33031	36676	
2192	0	32780	33044	36676	
2193	0	32792	32751	36664	
2194	0	32547	32736	36679	
2195	0	32318	32707	36679	
2196	0	32385	32689	36684	
2197	0	32476	32464	36646	
2198	0	32380	32636	36656	
2199	0	33010	32935	36636	
2200	0	33652	33016	36615	
2201	0	33077	33140	36575	
2202	0	32660	32933	36567	
2203	0	32788	32930	36568	
2204	0	32754	32863	36528	
2205	0	32978	32768	36529	
2206	0	33104	32920	36494	
2207	0	33134	33177	36487	
2208	0	32704	32740	36484	
2209	0	32454	32604	36458	
2210	0	32572	32968	36436	
2211	0	32573	32840	36428	
2212	0	32516	32640	36420	
2213	0	33056	32741	36392	
2214	0	32924	32661	36372	
2215	0	32608	32740	36344	
2216	0	32732	32860	36306	
2217	0	32676	32884	36300	
2218	0	32660	33037	36288	
2219	0	32720	32746	36268	
2220	0	32900	33132	36232	
2221	0	32960	32905	36232	
2222	0	32912	32870	36212	
2223	0	32917	32664	36208	
2224	0	32990	32711	36180	
2225	0	33005	32637	36188	
2226	0	32924	32684	36186	
2227	0	32909	32796	36193	
2228	0	32858	32982	36204	
2229	0	32692	33065	36197	
2230	0	32576	32919	36197	
2231	0	32380	32985	36192	
2232	0	32388	33064	36205	
2233	0	32405	32936	36224	
2234	0	32673	32741	36224	
2235	0	32876	32689	36232	
2236	0	32780	32720	36231	
2237	0	32429	32660	36240	
2238	0	32484	32724	36261	
2239	0	33016	32716	36276	
2240	0	33282	32990	36298	
2241	0	33064	32953	36308	
2242	0	32988	32760	36320	
2243	0	32892	32720	36327	
2244	0	32996	32896	36328	
2245	0	33052	32820	36372	
2246	0	33052	32740	36385	
2247	0	32984	32839	36376	
2248	0	32852	33036	36389	
2249	0	32708	32842	36408	
2250	0	32572	32966	36430	
2251	0	32600	32712	36420	
2252	0	32336	32536	36409	
2253	0	32298	32634	36420	
2254	0	32434	32842	36413	
2255	0	32616	32808	36392	
2256	0	32576	32752	36404	
2257	0	32921	32749	36396	
2258	0	33200	32800	36358	
2259	0	32818	32884	36356	
2260	0	32876	32921	36348	
2261	0	32884	32878	36352	
2262	0	32852	32774	36328	
2263	0	32980	32869	36320	
2264	0	32888	32895	36320	
2265	0	33075	33109	36340	
2266	0	33262	32984	36324	
2267	0	33216	32932	36352	
2268	0	32996	32775	36332	
2269	0	32818	32833	36344	
2270	0	32726	32916	36366	
2271	0	32648	33106	36365	
2272	0	32432	32656	36384	
2273	0	32232	32613	36381	
2274	0	32457	32772	36399	
2275	0	32408	33000	36398	
2276	0	32400	32932	36411	
2277	0	32472	32596	36423	
2278	0	32452	32560	36418	
2279	0	32802	32641	36456	
2280	0	33208	32774	36477	
2281	0	33416	32774	36482	
2282	0	33232	32778	36494	
2283	0	33138	32783	36505	
2284	0	33064	32677	36516	
2285	0	33125	32781	36517	
2286	0	32905	32906	36569	
2287	0	32822	32838	36610	
2288	0	32828	32916	36629	
2289	0	32688	32920	36640	
2290	0	32652	32974	36648	
2291	0	32448	32976	36673	
2292	0	32452	32800	36688	
2293	0	32418	32865	36681	
2294	0	32372	32877	36694	
2295	0	32512	32836	36673	
2296	0	32468	32996	36681	
2297	0	32732	32808	36672	
2298	0	33012	32954	36677	
2299	0	33125	32687	36684	
2300	0	32952	32912	36693	
2301	0	32653	32964	36672	
2302	0	32984	32928	36672	
2303	0	33180	32789	36678	
2304	0	33428	32618	36673	
2305	0	33508	32688	36672	
2306	0	33196	32728	36664	
2307	0	32768	32732	36646	
2308	0	32680	32756	36664	
2309	0	32532	32743	36648	
2310	0	32516	32966	36660	
2311	0	32382	32928	36660	
2312	0	32452	32852	36648	
2313	0	32573	33008	36621	
2314	0	32561	32620	36612	
2315	0	32512	32678	36605	
2316	0	32486	32748	36580	
2317	0	32384	32756	36532	
2318	0	32582	32936	36534	
2319	0	32756	32892	36510	
2320	0	32916	32892	36502	
2321	0	33316	32944	36468	
2322	0	33424	32840	36449	
2323	0	33244	32753	36404	
2324	0	33168	32844	36376	
2325	0	33320	32919	36340	
2326	0	33608	32986	36344	
2327	0	33060	32733	36358	
2328	0	32502	32829	36392	
2329	0	31956	32784	36396	
2330	0	32156	33013	36391	
2331	0	32500	32853	36397	
2332	0	32580	32792	36397	
2333	0	32528	32885	36372	
2334	0	32585	32732	36356	
2335	0	32504	32865	36337	
2336	0	32380	32900	36316	
2337	0	32576	32713	36277	
2338	0	32700	32749	36253	
2339	0	32886	32532	36230	
2340	0	33088	32892	36244	
2341	0	33072	32676	36209	
2342	0	33013	32780	36204	
2343	0	33012	32782	36192	
2344	0	33096	32896	36204	
2345	0	32993	33004	36206	
2346	0	33177	32810	36196	
2347	0	32972	32833	36225	
2348	0	32900	32828	36244	
2349	0	32744	32920	36286	
2350	0	32621	32809	36336	
2351	0	32592	33048	36351	
2352	0	32428	32897	36368	
2353	0	32484	32850	36358	
2354	0	32570	32772	36366	
2355	0	32553	32728	36377	
2356	0	32620	32856	36344	
2357	0	32674	32783	36344	
2358	0	32836	32804	36377	
2359	0	32764	32742	36376	
2360	0	32686	32712	36392	
2361	0	32848	32819	36396	
2362	0	32848	32676	36413	
2363	0	33148	32712	36424	
2364	0	33672	32834	36412	
2365	0	33580	32849	36416	
2366	0	33156	32836	36436	
2367	0	32958	32882	36452	
2368	0	32764	32940	36457	
2369	0	32580	32992	36500	
2370	0	32476	33038	36522	
2371	0	32372	33031	36543	
2372	0	32296	32878	36561	
2373	0	32392	32768	36556	
2374	0	32524	32736	36580	
2375	0	32680	32796	36606	
2376	0	32442	32803	36620	
2377	0	32620	32773	36640	
2378	0	32822	32728	36644	
2379	0	32812	32916	36653	
2380	0	33044	32882	36645	
2381	0	33096	33053	36641	
2382	0	33112	32772	36626	
2383	0	33114	32678	36648	
2384	0	33044	32708	36660	
2385	0	33044	32824	36670	
2386	0	32876	32813	36660	
2387	0	32796	32804	36652	
2388	0	32780	32957	36668	
2389	0	32748	32884	36688	
2390	0	32700	32870	36680	
2391	0	32560	32924	36664	
2392	0	32504	32962	36664	
2393	0	32600	32932	36652	
2394	0	32492	32856	36668	
2395	0	32469	32775	36666	
2396	0	32532	32668	36648	
2397	0	32656	32773	36641	
2398	0	32696	32924	36614	
2399	0	32984	32730	36592	
2400	0	33114	32772	36556	
2401	0	33232	32872	36548	
2402	0	32852	32854	36544	
2403	0	33108	32908	36519	
2404	0	33180	32828	36490	
2405	0	33157	32908	36480	
2406	0	32932	33172	36460	
2407	0	32826	32879	36452	
2408	0	33136	32605	36440	
2409	0	32924	32685	36452	
2410	0	32384	32869	36429	
2411	0	31855	32800	36440	
2412	0	32458	32688	36412	
2413	0	31892	32832	36396	
2414	0	31424	33000	36392	
2415	0	31940	33136	36353	
2416	0	33016	33049	36350	
2417	0	33644	33055	36356	
2418	0	33720	32136	36340	
2419	0	33630	32622	36329	
2420	0	33424	32877	36316	
2421	0	33096	32747	36324	
2422	0	33040	32648	36316	
2423	0	33036	32756	36290	
2424	0	33200	32829	36284	
2425	0	33124	32768	36260	
2426	0	32865	32797	36265	
2427	0	32408	32880	36287	
2428	0	32824	32960	36273	
2429	0	32574	33088	36304	
2430	0	32248	32864	36316	
2431	0	32300	32968	36321	
2432	0	32312	33004	36332	
2433	0	32308	33080	36336	
2434	0	32316	32957	36352	
2435	0	32324	32878	36359	
2436	0	32553	32617	36369	
2437	0	32804	32744	36384	
2438	0	33064	32792	36384	
2439	0	33153	32769	36384	
2440	0	33492	32972	36388	
2441	0	33344	33028	36389	
2442	0	32965	32868	36399	
2443	0	33020	32696	36416	
2444	0	32992	32647	36418	
2445	0	32988	32581	36416	
2446	0	32888	32706	36445	
2447	0	32792	32844	36468	
2448	0	32785	32846	36468	
2449	0	32706	32868	36484	
2450	0	32604	32924	36495	
2451	0	32368	32916	36532	
2452	0	32316	32908	36543	
2453	0	32580	32834	36562	
2454	0	32672	32844	36581	
2455	0	32604	32977	36591	
2456	0	32584	32820	36596	
2457	0	32785	32789	36606	
2458	0	32856	32743	36620	
2459	0	32868	32741	36646	
2460	0	32972	32696	36678	
2461	0	33276	32916	36688	
2462	0	33168	32864	36686	
2463	0	32953	32614	36676	
2464	0	32957	32730	36680	
2465	0	33032	32892	36725	
2466	0	32886	32692	36737	
2467	0	32848	32793	36744	
2468	0	32840	32893	36728	
2469	0	32694	32816	36736	
2470	0	32576	32884	36720	
2471	0	32572	32964	36720	
2472	0	32420	32826	36708	
2473	0	32472	32780	36685	
2474	0	32632	32916	36660	
2475	0	32488	32888	36654	
2476	0	32485	32858	36672	
2477	0	32568	32916	36640	
2478	0	32732	32820	36640	
2479	0	32871	32772	36624	
2480	0	32914	32884	36631	
2481	0	32796	32809	36604	
2482	0	33002	32825	36584	
2483	0	32927	32922	36578	
2484	0	33028	32900	36581	
2485	0	33180	32800	36576	
2486	0	33444	32764	36573	
2487	0	33156	32940	36558	
2488	0	32740	32752	36575	
2489	0	32604	32746	36596	
2490	0	32756	32924	36585	
2491	0	32712	32864	36584	
2492	0	32437	32740	36596	
2493	0	32344	32828	36584	
2494	0	32536	32736	36585	
2495	0	32492	32740	36580	
2496	0	32489	32894	36568	
2497	0	32556	32800	36524	
2498	0	32736	32821	36497	
2499	0	32980	33008	36489	
2500	0	33088	33129	36480	
2501	0	32997	32891	36444	
2502	0	32976	32700	36413	
2503	0	33177	32767	36384	
2504	0	33040	32838	36381	
2505	0	32960	32726	36350	
2506	0	32936	32844	36309	
2507	0	32773	32852	36292	
2508	0	32728	32780	36260	
2509	0	32592	32910	36231	
2510	0	32564	33000	36188	
2511	0	32532	33008	36168	
2512	0	32532	32892	36129	
2513	0	32664	32893	36092	
2514	0	32660	32842	36088	
2515	0	32668	32984	36076	
2516	0	32768	32706	36064	
2517	0	32720	32577	36040	
2518	0	32868	32844	36052	
2519	0	32696	32759	36048	
2520	0	32748	32940	36044	
2521	0	32764	33048	36040	
2522	0	32788	32863	36057	
2523	0	33193	32621	36060	
2524	0	33321	32700	36045	
2525	0	33300	32866	36068	
2526	0	32839	32916	36084	
2527	0	32861	32862	36080	
2528	0	32712	32692	36098	
2529	0	32609	32752	36133	
2530	0	32741	32873	36152	
2531	0	32708	32758	36172	
2532	0	32481	32924	36216	
2533	0	32472	32945	36226	
2534	0	32512	32668	36261	
2535	0	32500	32764	36278	
2536	0	32477	32702	36313	
2537	0	32744	32884	36342	
2538	0	33116	32940	36372	
2539	0	32904	32865	36392	
2540	0	32764	32932	36405	
2541	0	32924	33132	36452	
2542	0	33016	32880	36477	
2543	0	33289	32850	36512	
2544	0	33144	32816	36521	
2545	0	32800	32628	36552	
2546	0	32856	32682	36593	
2547	0	32384	32796	36640	
2548	0	32176	32750	36678	
2549	0	32336	32752	36694	
2550	0	32664	33081	36711	
2551	0	33094	33122	36740	
2552	0	33642	32845	36743	
2553	0	33504	33183	36772	
2554	0	32836	32575	36784	
2555	0	32518	32612	36813	
2556	0	32364	32808	36823	
2557	0	32460	32768	36832	
2558	0	32512	32798	36828	
2559	0	32604	32533	36832	
2560	0	32872	32740	36836	
2561	0	32940	32940	36860	
2562	0	32970	32844	36864	
2563	0	32917	32740	36870	
2564	0	32986	32704	36836	
2565	0	32996	32796	36839	
2566	0	32872	32956	36832	
2567	0	32866	32866	36846	
2568	0	32910	32887	36824	
2569	0	32616	32802	36844	
2570	0	32668	33015	36852	
2571	0	32618	33006	36824	
2572	0	32432	32820	36796	
2573	0	32352	32764	36772	
2574	0	32480	32716	36753	
2575	0	32600	32860	36736	
2576	0	32676	32679	36684	
2577	0	32772	32772	36644	
2578	0	32890	32797	36636	
2579	0	33005	32844	36583	
2580	0	32980	32932	36549	
2581	0	33000	32966	36497	
2582	0	33104	32879	36446	
2583	0	33104	32874	36420	
2584	0	32952	32775	36397	
2585	0	32932	32708	36353	
2586	0	32900	32814	36328	
2587	0	32972	32980	36312	
2588	0	32788	33116	36320	
2589	0	32753	33068	36276	
2590	0	32616	32908	36248	
2591	0	32492	32864	36241	
2592	0	32496	32725	36228	
2593	0	32480	32638	36220	
2594	0	32440	32399	36208	
2595	0	32600	32647	36200	
2596	0	32516	32708	36196	
2597	0	32624	32729	36185	
2598	0	32854	32920	36193	
2599	0	32912	32880	36173	
2600	0	32954	32889	36161	
2601	0	33064	32960	36156	
2602	0	33068	32913	36157	
2603	0	33033	32928	36168	
2604	0	33068	32996	36172	
2605	0	33005	32846	36189	
2606	0	32948	32895	36199	
2607	0	32896	32924	36214	
2608	0	32872	32897	36229	
2609	0	32732	32931	36228	
2610	0	32644	32972	36254	
2611	0	32678	32857	36292	
2612	0	32529	32728	36332	
2613	0	32548	32809	36343	
2614	0	32485	32760	36352	
2615	0	32456	32814	36359	
2616	0	32552	32958	36377	
2617	0	32500	32944	36416	
2618	0	32520	32800	36420	
2619	0	32504	32743	36438	
2620	0	33016	32897	36460	
2621	0	33300	32784	36474	
2622	0	33496	32759	36492	
2623	0	33252	32732	36544	
2624	0	33028	32760	36555	
2625	0	32965	32840	36580	
2626	0	33108	32808	36608	
2627	0	32890	32774	36644	
2628	0	32860	32916	36660	
2629	0	32765	32868	36685	
2630	0	32566	32812	36712	
2631	0	32600	32920	36732	
2632	0	32456	32676	36733	
2633	0	32460	32708	36748	
2634	0	32412	32852	36748	
2635	0	32580	32918	36716	
2636	0	32712	33014	36711	
2637	0	32612	32636	36700	
2638	0	32764	32868	36700	
2639	0	32908	32804	36724	
2640	0	32998	32952	36702	
2641	0	33128	33036	36692	
2642	0	33200	32751	36688	
2643	0	33159	32743	36681	
2644	0	33256	32902	36673	
2645	0	33000	32880	36656	
2646	0	32833	32645	36677	
2647	0	32354	32720	36674	
2648	0	32160	32781	36664	
2649	0	32532	32696	36682	
2650	0	32946	33026	36688	
2651	0	32804	32924	36666	
2652	0	32640	32912	36661	
2653	0	32516	32846	36644	
2654	0	32520	32766	36644	
2655	0	32596	32764	36634	
2656	0	32676	32828	36637	
2657	0	32725	32940	36628	
2658	0	32752	32968	36631	
2659	0	32892	32845	36620	
2660	0	32762	32792	36608	
2661	0	32805	32796	36600	
2662	0	33276	32712	36586	
2663	0	33072	32748	36572	
2664	0	33036	32700	36548	
2665	0	33476	32782	36554	
2666	0	33544	32900	36552	
2667	0	32925	33040	36532	
2668	0	32168	32912	36546	
2669	0	32552	32956	36552	
2670	0	33037	32821	36545	
2671	0	32497	32850	36560	
2672	0	32204	32876	36572	
2673	0	32468	32752	36568	
2674	0	32608	32688	36561	
2675	0	32604	32734	36544	
2676	0	32548	32904	36557	
2677	0	32524	32892	36556	
2678	0	32484	32806	36552	
2679	0	32608	32944	36552	
2680	0	32940	33092	36546	
2681	0	32804	33016	36521	
2682	0	32624	32774	36492	
2683	0	32988	32672	36484	
2684	0	33506	32662	36472	
2685	0	33706	32701	36439	
2686	0	33624	32696	36428	
2687	0	33396	32794	36437	
2688	0	32924	32946	36436	
2689	0	32588	32973	36436	
2690	0	32392	33012	36432	
2691	0	32288	32845	36409	
2692	0	32348	32696	36411	
2693	0	32492	32756	36424	
2694	0	32494	32680	36412	
2695	0	32540	32624	36416	
2696	0	32516	32844	36392	
2697	0	32716	32956	36391	
2698	0	32796	32840	36373	
2699	0	32764	32586	36340	
2700	0	32928	32724	36332	
2701	0	33080	32924	36293	
2702	0	33056	32956	36276	
2703	0	33000	32814	36245	
2704	0	33138	32864	36229	
2705	0	33145	32920	36236	
2706	0	33130	33025	36212	
2707	0	32944	32916	36225	
2708	0	32720	32855	36232	
2709	0	32548	32792	36230	
2710	0	32580	32972	36204	
2711	0	32573	32915	36188	
2712	0	32480	32906	36172	
2713	0	32528	32782	36190	
2714	0	32481	32769	36172	
2715	0	32555	32887	36167	
2716	0	32580	32711	36138	
2717	0	32484	32760	36109	
2718	0	32796	32802	36074	
2719	0	32860	32821	36068	
2720	0	32932	32870	36052	
2721	0	33004	32938	36021	
2722	0	33052	32902	36004	
2723	0	33124	32844	35961	
2724	0	33136	32769	35936	
2725	0	33078	32728	35886	
2726	0	33068	32669	35860	
2727	0	32945	32860	35852	
2728	0	32708	32972	35828	
2729	0	32608	32689	35823	
2730	0	32680	32828	35825	
2731	0	32543	33032	35824	
2732	0	32360	33117	35834	
2733	0	32792	32872	35805	
2734	0	32637	32676	35785	
2735	0	32375	32709	35773	
2736	0	32660	32688	35766	
2737	0	32724	32775	35761	
2738	0	32832	32772	35764	
2739	0	32792	32887	35788	
2740	0	32964	33036	35804	
2741	0	33112	32842	35821	
2742	0	33028	32864	35852	
2743	0	32960	32880	35868	
2744	0	32964	32902	35920	
2745	0	33036	32864	35961	
2746	0	32929	32764	35981	
2747	0	32896	32836	36020	
2748	0	32836	32797	36068	
2749	0	32724	32792	36100	
2750	0	32604	32804	36126	
2751	0	32640	32871	36168	
2752	0	32401	33024	36212	
2753	0	32442	32834	36270	
2754	0	32324	32788	36305	
2755	0	32277	32892	36368	
2756	0	32524	32728	36404	
2757	0	32736	32848	36414	
2758	0	32945	32696	36472	
2759	0	33320	32780	36500	
2760	0	33168	32852	36536	
2761	0	33047	33218	36568	
2762	0	33020	32955	36596	
2763	0	32937	32842	36604	
2764	0	33008	32812	36645	
2765	0	32916	32936	36688	
2766	0	32754	32676	36702	
2767	0	32956	32673	36733	
2768	0	32881	32775	36764	
2769	0	32630	32804	36810	
2770	0	32572	32832	36852	
2771	0	32536	32966	36900	
2772	0	32684	32886	36944	
2773	0	32720	32832	36973	
2774	0	32580	32808	36982	
2775	0	32576	32876	36982	
2776	0	32576	32712	37012	
2777	0	32645	32677	37028	
2778	0	32760	32916	37040	
2779	0	32682	32880	37049	
2780	0	32928	32964	37095	
2781	0	33024	32656	37100	
2782	0	33005	32672	37102	
2783	0	32940	32858	37092	
2784	0	33004	32836	37097	
2785	0	32981	32722	37096	
2786	0	32940	32780	37096	
2787	0	32876	32882	37114	
2788	0	33132	32831	37097	
2789	0	33048	32896	37076	
2790	0	32633	32932	37056	
2791	0	32549	33013	37061	
2792	0	32593	32912	37071	
2793	0	32376	32739	37052	
2794	0	32420	32664	37050	
2795	0	32439	32704	37028	
2796	0	32508	32561	37001	
2797	0	32708	32600	36996	
2798	0	32693	32780	36972	
2799	0	32748	32876	36937	
2800	0	32848	32935	36904	
2801	0	32948	32993	36912	
2802	0	33072	32775	36895	
2803	0	33176	32847	36860	
2804	0	33120	32915	36813	
2805	0	33272	32894	36772	
2806	0	33116	32857	36756	
2807	0	32988	32897	36736	
2808	0	32638	32804	36708	
2809	0	32600	32822	36688	
2810	0	32952	32868	36656	
2811	0	32685	32944	36639	
2812	0	32086	32980	36610	
2813	0	32068	32966	36568	
2814	0	32824	32775	36566	
2815	0	32616	32753	36524	
2816	0	32444	32648	36479	
2817	0	32442	32704	36457	
2818	0	32905	32798	36412	
2819	0	33336	32652	36359	
2820	0	33113	32793	36324	
2821	0	33060	32944	36280	
2822	0	32970	32953	36266	
2823	0	32956	32708	36224	
2824	0	33056	32736	36196	
2825	0	33064	32913	36168	
2826	0	32852	32824	36144	
2827	0	32793	32903	36126	
2828	0	32880	32999	36102	
2829	0	32786	32900	36069	
2830	0	32740	32861	36040	
2831	0	32624	32860	36008	
2832	0	32548	32836	35972	
2833	0	32600	32749	35964	
2834	0	32468	32684	35925	
2835	0	32485	32860	35909	
2836	0	32548	32741	35912	
2837	0	32592	32642	35884	
2838	0	32708	32989	35859	
2839	0	32885	32870	35837	
2840	0	32921	32853	35840	
2841	0	33060	32988	35809	
2842	0	33108	32856	35812	
2843	0	33056	32849	35805	
2844	0	33108	32753	35804	
2845	0	33028	32719	35816	
2846	0	33008	32758	35828	
2847	0	32933	32750	35872	
2848	0	32882	32848	35868	
2849	0	32679	32973	35889	
2850	0	32616	32993	35900	
2851	0	32508	32868	35940	
2852	0	32496	32968	35964	
2853	0	32480	32796	36007	
2854	0	32580	32814	36028	
2855	0	32528	32716	36056	
2856	0	32637	32692	36080	
2857	0	32733	32747	36086	
2858	0	32740	32732	36127	
2859	0	32688	32972	36152	
2860	0	32888	32849	36169	
2861	0	33168	32888	36192	
2862	0	33096	32942	36256	
2863	0	33120	32872	36286	
2864	0	33020	32960	36320	
2865	0	33016	32856	36357	
2866	0	33088	32836	36384	
2867	0	32876	32801	36416	
2868	0	32828	32711	36429	
2869	0	32788	32784	36471	
2870	0	32616	32784	36497	
2871	0	32544	32876	36529	
2872	0	32524	32813	36552	
2873	0	32576	32876	36578	
2874	0	32412	32871	36596	
2875	0	32480	32833	36636	
2876	0	32596	32775	36624	
2877	0	32604	32785	36622	
2878	0	32732	32756	36629	
2879	0	32908	32908	36653	
2880	0	32972	32749	36652	
2881	0	33008	32760	36676	
2882	0	33040	32847	36692	
2883	0	33220	32804	36685	
2884	0	33165	32720	36716	
2885	0	33006	32856	36732	
2886	0	32932	32889	36744	
2887	0	32716	32886	36753	
2888	0	32864	32982	36756	
2889	0	32784	32972	36766	
2890	0	32749	32808	36784	
2891	0	32568	32930	36779	
2892	0	32504	32782	36780	
2893	0	32450	32740	36777	
2894	0	32420	32789	36760	
2895	0	32556	32740	36740	
2896	0	32656	32720	36740	
2897	0	32660	32708	36716	
2898	0	32476	32674	36688	
2899	0	32660	32668	36672	
2900	0	32840	32898	36676	
2901	0	33068	33024	36652	
2902	0	33324	33014	36644	
2903	0	33441	32879	36629	
2904	0	33188	32874	36601	
2905	0	33100	32853	36575	
2906	0	32932	33000	36542	
2907	0	32588	33013	36536	
2908	0	32904	32846	36520	
2909	0	33001	32712	36532	
2910	0	32816	32708	36524	
2911	0	32629	32666	36516	
2912	0	32268	32724	36481	
2913	0	32356	32644	36463	
2914	0	32528	32748	36423	
2915	0	32576	32745	36396	
2916	0	32476	32840	36380	
2917	0	32696	32966	36370	
2918	0	32804	32893	36344	
2919	0	32926	32996	36336	
2920	0	33052	32744	36327	
2921	0	32888	32882	36332	
2922	0	32280	32997	36310	
2923	0	32464	32880	36354	
2924	0	32904	33088	36348	
2925	0	33273	32964	36364	
2926	0	33346	32710	36380	
2927	0	34120	32888	36397	
2928	0	34112	32804	36404	
2929	0	32852	32820	36428	
2930	0	32570	32842	36421	
2931	0	32384	32992	36408	
2932	0	32136	33018	36424	
2933	0	31488	32814	36420	
2934	0	31742	32697	36414	
2935	0	31794	32642	36388	
2936	0	32200	32726	36357	
2937	0	32920	32748	36358	
2938	0	32996	32503	36344	
2939	0	33240	32481	36351	
2940	0	33428	32580	36333	
2941	0	33492	32796	36337	
2942	0	33372	32828	36340	
2943	0	33274	32976	36352	
2944	0	33018	32832	36349	
2945	0	32876	32813	36336	
2946	0	32796	32941	36359	
2947	0	32792	33029	36388	
2948	0	32704	32952	36384	
2949	0	32712	32892	36406	
2950	0	32682	32904	36432	
2951	0	32568	32968	36476	
2952	0	32549	32866	36484	
2953	0	32373	32702	36500	
2954	0	32532	32848	36524	
2955	0	32576	33104	36564	
2956	0	32548	32613	36589	
2957	0	32614	32677	36628	
2958	0	32686	32772	36660	
2959	0	32740	33023	36687	
2960	0	32698	32877	36680	
2961	0	32980	32834	36669	
2962	0	33132	32732	36673	
2963	0	33284	32616	36652	
2964	0	33464	32668	36652	
2965	0	33280	32616	36632	
2966	0	32952	32765	36624	
2967	0	32806	32856	36608	
2968	0	32761	32985	36580	
2969	0	32765	32914	36570	
2970	0	32664	32932	36570	
2971	0	32512	33185	36537	
2972	0	32409	32948	36518	
2973	0	32505	32768	36518	
2974	0	32500	32998	36480	
2975	0	32476	32903	36433	
2976	0	32508	32833	36412	
2977	0	32630	32828	36384	
2978	0	32728	32604	36380	
2979	0	32788	32756	36364	
2980	0	32788	32682	36358	
2981	0	33070	32832	36368	
2982	0	33128	32864	36349	
2983	0	33066	32840	36336	
2984	0	33080	32896	36324	
2985	0	33048	32988	36321	
2986	0	32824	32960	36320	
2987	0	32806	32902	36341	
2988	0	32992	32812	36322	
2989	0	32784	32728	36353	
2990	0	32592	32800	36359	
2991	0	32604	32884	36367	
2992	0	32512	32932	36374	
2993	0	32480	32792	36359	
2994	0	32540	32720	36368	
2995	0	32708	32812	36350	
2996	0	32648	32804	36378	
2997	0	32654	32766	36348	
2998	0	32760	32871	36324	
2999	0	32748	32878	36308	
3000	0	32796	32905	36308	
3001	0	32992	33024	36308	
3002	0	33032	33060	36316	
3003	0	32992	32940	36296	
3004	0	33252	32876	36284	
3005	0	33180	32909	36276	
3006	0	33084	32628	36256	
3007	0	32968	32638	36229	
3008	0	32928	32768	36204	
3009	0	32686	32790	36204	
3010	0	32584	32714	36186	
3011	0	32504	32458	36185	
3012	0	32553	32744	36164	
3013	0	32497	32773	36166	
3014	0	32497	32816	36160	
3015	0	32532	32934	36134	
3016	0	32580	32980	36117	
3017	0	32634	32864	36103	
3018	0	32708	32789	36076	
3019	0	32752	32680	36072	
3020	0	33024	32807	36068	
3021	0	33220	33028	36068	
3022	0	33064	32941	36072	
3023	0	33038	32762	36076	
3024	0	33084	32848	36082	
3025	0	32872	32985	36068	
3026	0	32776	32764	36092	
3027	0	32704	32851	36124	
3028	0	32814	32952	36144	
3029	0	32932	32850	36181	
3030	0	33048	32868	36212	
3031	0	32540	32962	36272	
3032	0	32506	32878	36308	
3033	0	32464	32804	36332	
3034	0	32508	32756	36345	
3035	0	32528	32748	36359	
3036	0	32561	32632	36380	
3037	0	32684	32820	36404	
3038	0	32784	32772	36420	
3039	0	32764	32801	36460	
3040	0	32890	32796	36469	
3041	0	33064	32985	36485	
3042	0	33036	32782	36492	
3043	0	33036	32712	36496	
3044	0	32992	32792	36520	
3045	0	32996	32821	36548	
3046	0	32928	32886	36568	
3047	0	33056	32865	36586	
3048	0	33132	32949	36589	
3049	0	33004	32932	36621	
3050	0	32672	32936	36665	
3051	0	32556	33051	36672	
3052	0	32232	32878	36702	
3053	0	32160	32618	36716	
3054	0	32372	32606	36716	
3055	0	32644	32732	36712	
3056	0	32668	32724	36736	
3057	0	32652	32760	36748	
3058	0	32706	32838	36773	
3059	0	32812	32648	36793	
3060	0	32812	32794	36816	
3061	0	33028	32932	36808	
3062	0	33036	32984	36781	
3063	0	33004	32872	36764	
3064	0	32936	32612	36776	
3065	0	33120	32884	36776	
3066	0	33060	32710	36782	
3067	0	32973	32772	36789	
3068	0	33021	32852	36790	
3069	0	32752	32837	36806	
3070	0	32705	32764	36796	
3071	0	32624	32775	36794	
3072	0	32572	32940	36780	
3073	0	32380	32962	36784	
3074	0	32308	32820	36768	
3075	0	32417	32678	36764	
3076	0	32552	32689	36748	
3077	0	32824	32825	36727	
3078	0	32988	32840	36716	
3079	0	33009	32820	36705	
3080	0	32846	32950	36676	
3081	0	32973	32957	36660	
3082	0	32965	32752	36640	
3083	0	33041	32624	36636	
3084	0	33100	32701	36613	
3085	0	32984	32774	36612	
3086	0	32685	32806	36591	
3087	0	32504	32852	36588	
3088	0	32772	32914	36604	
3089	0	32844	32908	36592	
3090	0	32750	32910	36580	
3091	0	33160	32940	36576	
3092	0	33100	32956	36584	
3093	0	32584	32944	36552	
3094	0	32428	32820	36557	
3095	0	32385	32738	36512	
3096	0	32524	32674	36490	
3097	0	32684	32834	36502	
3098	0	32768	32777	36480	
3099	0	32688	32860	36445	
3100	0	32908	32721	36411	
3101	0	33056	32712	36359	
3102	0	33274	32804	36345	
3103	0	33124	32748	36334	
3104	0	32797	32828	36313	
3105	0	32720	32858	36296	
3106	0	32576	32892	36260	
3107	0	32582	32868	36252	
3108	0	32655	32828	36230	
3109	0	32925	32785	36228	
3110	0	33092	32796	36238	
3111	0	32892	33056	36212	
3112	0	32644	33076	36200	
3113	0	32668	32893	36174	
3114	0	32596	33074	36132	
3115	0	32480	33100	36144	
3116	0	32284	32843	36152	
3117	0	32040	32862	36144	
3118	0	32588	32826	36129	
3119	0	33053	32824	36117	
3120	0	33064	32708	36126	
3121	0	33172	32844	36116	
3122	0	33176	32816	36106	
3123	0	33064	32858	36112	
3124	0	33040	32753	36068	
3125	0	33004	32647	36064	
3126	0	33052	32661	36060	
3127	0	32972	32669	36057	
3128	0	32920	32756	36050	
3129	0	32852	32898	36050	
3130	0	32688	32828	36037	
3131	0	32592	32944	36036	
3132	0	32460	32916	36041	
3133	0	32396	32872	36050	
3134	0	32448	32852	36064	
3135	0	32590	32856	36064	
3136	0	32640	32802	36081	
3137	0	32720	32716	36100	
3138	0	32780	32780	36132	
3139	0	32928	33124	36172	
3140	0	32908	32598	36181	
3141	0	33012	32796	36204	
3142	0	33129	32900	36231	
3143	0	33016	32789	36272	
3144	0	32916	32921	36317	
3145	0	32924	32781	36372	
3146	0	32848	32601	36421	
3147	0	32836	32841	36452	
3148	0	32765	32932	36489	
3149	0	32768	32880	36521	
3150	0	32740	32914	36549	
3151	0	32545	32944	36586	
3152	0	32676	32958	36628	
3153	0	32648	32880	36628	
3154	0	32532	32808	36637	
3155	0	32536	32786	36660	
3156	0	32628	32888	36696	
3157	0	32644	32832	36722	
3158	0	32740	32812	36740	
3159	0	32792	32645	36751	
3160	0	32784	32816	36752	
3161	0	32640	33172	36744	
3162	0	32898	32916	36749	
3163	0	32980	32884	36756	
3164	0	33212	32728	36772	
3165	0	33341	32721	36800	
3166	0	33301	32832	36809	
3167	0	32938	32700	36812	
3168	0	32760	32736	36840	
3169	0	32642	32836	36846	
3170	0	32744	32841	36880	
3171	0	32660	32868	36898	
3172	0	32628	32698	36904	
3173	0	32460	32708	36900	
3174	0	32486	32707	36890	
3175	0	32519	32690	36888	
3176	0	32554	32804	36881	
3177	0	32620	32966	36868	
3178	0	32709	32904	36861	
3179	0	32752	32866	36848	
3180	0	32672	32952	36841	
3181	0	32726	32997	36829	
3182	0	32712	33111	36816	
3183	0	33232	32945	36781	
3184	0	33284	32656	36748	
3185	0	33168	32745	36734	
3186	0	33076	32908	36729	
3187	0	32972	32604	36712	
3188	0	32953	32673	36704	
3189	0	32738	32890	36688	
3190	0	32726	32948	36697	
3191	0	32724	33088	36703	
3192	0	32637	32884	36708	
3193	0	32396	32568	36696	
3194	0	32513	32581	36690	
3195	0	32464	32684	36668	
3196	0	32526	32780	36672	
3197	0	32712	32742	36656	
3198	0	32808	32873	36648	
3199	0	32814	32828	36612	
3200	0	32964	32805	36609	
3201	0	33056	32992	36564	
3202	0	33052	33063	36556	
3203	0	32940	32894	36532	
3204	0	32788	32832	36516	
3205	0	32928	32910	36493	
3206	0	32949	32984	36487	
3207	0	32956	33012	36463	
3208	0	32952	32977	36454	
3209	0	32912	33029	36432	
3210	0	32677	32937	36420	
3211	0	32752	32953	36376	
3212	0	32554	32815	36366	
3213	0	32556	32881	36335	
3214	0	32376	32766	36308	
3215	0	32356	32768	36320	
3216	0	32372	32847	36316	
3217	0	32424	32740	36310	
3218	0	32564	32892	36300	
3219	0	32760	32863	36312	
3220	0	33208	32876	36336	
3221	0	33620	32800	36351	
3222	0	33432	32845	36348	
3223	0	33064	32559	36324	
3224	0	32876	32657	36348	
3225	0	32908	32775	36354	
3226	0	32880	32625	36356	
3227	0	32725	32676	36344	
3228	0	32464	32816	36353	
3229	0	32528	32726	36352	
3230	0	32560	32748	36326	
3231	0	32796	33014	36308	
3232	0	32722	32902	36316	
3233	0	33028	32804	36295	
3234	0	32957	32807	36293	
3235	0	32536	32800	36274	
3236	0	32464	32810	36248	
3237	0	32412	32832	36220	
3238	0	32568	32940	36221	
3239	0	32753	32831	36196	
3240	0	32740	32782	36196	
3241	0	32953	32951	36204	
3242	0	32984	33031	36191	
3243	0	32898	32828	36196	
3244	0	33060	32837	36184	
3245	0	33188	32940	36172	
3246	0	33060	32836	36160	
3247	0	32972	32886	36156	
3248	0	32916	32823	36194	
3249	0	32716	32785	36180	
3250	0	32648	32704	36220	
3251	0	32696	32884	36220	
3252	0	32662	33012	36236	
3253	0	32544	32864	36246	
3254	0	32600	32828	36256	
3255	0	32440	32908	36236	
3256	0	32268	32876	36230	
3257	0	32464	32816	36224	
3258	0	32604	32614	36232	
3259	0	32848	32756	36240	
3260	0	32966	32628	36236	
3261	0	33010	32873	36209	
3262	0	33104	32836	36208	
3263	0	33048	32480	36233	
3264	0	33042	32717	36245	
3265	0	32932	32970	36252	
3266	0	33028	32868	36261	
3267	0	33000	32981	36264	
3268	0	32876	33009	36268	
3269	0	32768	33036	36270	
3270	0	32728	32970	36272	
3271	0	32736	32736	36292	
3272	0	32588	32724	36312	
3273	0	32592	32720	36337	
3274	0	32484	32775	36332	
3275	0	32512	32644	36337	
3276	0	32528	32846	36314	
3277	0	32508	32792	36332	
3278	0	32668	32852	36341	
3279	0	32760	32773	36338	
3280	0	32908	32872	36358	
3281	0	33058	32924	36365	
3282	0	33116	32972	36353	
3283	0	33137	32601	36340	
3284	0	33116	32780	36340	
3285	0	32944	32888	36352	
3286	0	32956	32904	36353	
3287	0	32922	32924	36349	
3288	0	32973	32852	36334	
3289	0	32596	33120	36376	
3290	0	32620	32652	36385	
3291	0	32772	32820	36401	
3292	0	32768	32804	36416	
3293	0	32464	32676	36428	
3294	0	32488	32791	36432	
3295	0	32440	32908	36448	
3296	0	32324	32832	36464	
3297	0	32300	32897	36468	
3298	0	32436	32937	36463	
3299	0	32708	32858	36516	
3300	0	32972	32824	36509	
3301	0	33506	33156	36529	
3302	0	33562	32932	36534	
3303	0	33156	32766	36537	
3304	0	32932	32885	36564	
3305	0	33041	32748	36564	
3306	0	33020	32713	36552	
3307	0	33046	32688	36548	
3308	0	32872	32668	36552	
3309	0	32752	32752	36572	
3310	0	32664	32800	36584	
3311	0	32457	32804	36556	
3312	0	32480	32799	36557	
3313	0	32372	32920	36549	
3314	0	32585	32829	36548	
3315	0	32528	32730	36536	
3316	0	32376	32796	36500	
3317	0	32581	32796	36479	
3318	0	32652	32784	36449	
3319	0	32805	32958	36444	
3320	0	32900	32988	36438	
3321	0	33144	32808	36452	
3322	0	33064	32948	36448	
3323	0	33084	32798	36436	
3324	0	33045	32743	36444	
3325	0	33076	32714	36444	
3326	0	33064	32774	36452	
3327	0	32904	32846	36456	
3328	0	32848	32868	36488	
3329	0	32716	32868	36492	
3330	0	32668	32802	36526	
3331	0	32612	33009	36536	
3332	0	32512	32976	36569	
3333	0	32444	32876	36580	
3334	0	32431	32796	36580	
3335	0	32572	32751	36566	
3336	0	32492	32876	36570	
3337	0	32709	32909	36569	
3338	0	32656	32740	36549	
3339	0	32744	32726	36541	
3340	0	33001	32824	36534	
3341	0	33000	33092	36525	
3342	0	33180	32938	36516	
3343	0	33192	32846	36504	
3344	0	33200	33092	36487	
3345	0	33056	32876	36478	
3346	0	32984	32772	36462	
3347	0	32872	32828	36468	
3348	0	32744	32796	36461	
3349	0	32848	32692	36456	
3350	0	32632	32720	36441	
3351	0	32564	32838	36432	
3352	0	32594	32836	36469	
3353	0	32468	32849	36452	
3354	0	32476	32732	36452	
3355	0	32521	32828	36454	
3356	0	32628	32756	36448	
3357	0	32665	32738	36437	
3358	0	32676	32788	36409	
3359	0	32757	32728	36426	
3360	0	32828	32844	36410	
3361	0	32912	33146	36410	
3362	0	33000	32921	36408	
3363	0	33057	32948	36388	
3364	0	32970	32948	36396	
3365	0	32850	32821	36409	
3366	0	33012	32741	36416	
3367	0	33104	32780	36445	
3368	0	33224	32872	36460	
3369	0	33276	32781	36476	
3370	0	32705	32825	36501	
3371	0	32556	33008	36532	
3372	0	32332	32940	36532	
3373	0	32588	32768	36516	
3374	0	32576	32956	36496	
3375	0	32488	32818	36500	
3376	0	32492	32668	36485	
3377	0	32604	32688	36453	
3378	0	32574	32616	36439	
3379	0	32656	32632	36444	
3380	0	32805	32624	36428	
3381	0	32925	32906	36444	
3382	0	33072	32926	36444	
3383	0	33004	32984	36452	
3384	0	33084	32916	36448	
3385	0	33068	32830	36444	
3386	0	33048	32861	36492	
3387	0	32860	32996	36492	
3388	0	32892	32950	36472	
3389	0	32834	32820	36473	
3390	0	32652	32965	36492	
3391	0	32632	32866	36538	
3392	0	32636	32840	36564	
3393	0	32472	32836	36553	
3394	0	32468	32804	36542	
3395	0	32556	32740	36513	
3396	0	32544	32829	36512	
3397	0	32540	32808	36535	
3398	0	32645	32820	36529	
3399	0	32840	32800	36548	
3400	0	32916	32796	36555	
3401	0	32967	32824	36537	
3402	0	33044	32692	36568	
3403	0	33068	32732	36581	
3404	0	33140	32837	36564	
3405	0	33168	32852	36573	
3406	0	33084	32948	36576	
3407	0	32832	32902	36561	
3408	0	32780	32912	36588	
3409	0	32828	32932	36586	
3410	0	32636	32791	36620	
3411	0	32580	32751	36615	
3412	0	32728	32881	36610	
3413	0	32672	32949	36592	
3414	0	32530	32621	36584	
3415	0	32513	32670	36583	
3416	0	32644	32920	36588	
3417	0	32714	32965	36565	
3418	0	32696	32860	36560	
3419	0	32581	33050	36580	
3420	0	32238	32860	36556	
3421	0	32688	32841	36524	
3422	0	33052	32877	36537	
3423	0	33188	32775	36518	
3424	0	33296	32736	36512	
3425	0	33512	33004	36486	
3426	0	33300	32722	36486	
3427	0	32920	32622	36480	
3428	0	32693	32633	36485	
3429	0	32540	32917	36468	
3430	0	32598	32978	36444	
3431	0	32684	32756	36417	
3432	0	32704	32784	36396	
3433	0	32612	32792	36400	
3434	0	32664	32748	36378	
3435	0	32522	32849	36332	
3436	0	32480	32775	36320	
3437	0	32493	32845	36294	
3438	0	32532	32724	36276	
3439	0	32424	32933	36254	
3440	0	32614	32974	36228	
3441	0	32890	33128	36205	
3442	0	33049	33020	36194	
3443	0	33412	32812	36180	
3444	0	33540	32890	36180	
3445	0	33428	32757	36191	
3446	0	33040	32669	36172	
3447	0	32960	32620	36184	
3448	0	32932	32820	36185	
3449	0	32752	32896	36205	
3450	0	32584	32740	36204	
3451	0	32488	32887	36236	
3452	0	32421	32886	36244	
3453	0	32404	32844	36257	
3454	0	32448	32852	36252	
3455	0	32518	32828	36244	
3456	0	32560	32861	36252	
3457	0	32720	32992	36252	
3458	0	32716	32932	36237	
3459	0	32852	32937	36249	
3460	0	32913	32910	36252	
3461	0	33008	32962	36252	
3462	0	33158	32954	36262	
3463	0	33004	32572	36272	
3464	0	32868	32644	36264	
3465	0	32994	32828	36279	
3466	0	33140	32742	36284	
3467	0	32784	32800	36308	
3468	0	32768	32725	36325	
3469	0	32868	32934	36358	
3470	0	32452	32794	36373	
3471	0	32388	33095	36406	
3472	0	32504	32950	36429	
3473	0	32578	32792	36428	
3474	0	32564	32710	36448	
3475	0	32560	32720	36479	
3476	0	32622	32668	36474	
3477	0	32588	32608	36464	
3478	0	32640	32708	36484	
3479	0	32808	32867	36501	
3480	0	32924	32982	36500	
3481	0	33096	33192	36512	
3482	0	33216	32930	36516	
3483	0	33178	32942	36524	
3484	0	33178	32900	36533	
3485	0	32996	32741	36536	
3486	0	32996	32748	36548	
3487	0	33000	32792	36553	
3488	0	32861	32807	36575	
3489	0	32804	32800	36588	
3490	0	32680	32847	36644	
3491	0	32564	33020	36704	
3492	0	32348	32858	36818	
3493	0	32200	32732	36960	
3494	0	32313	32735	37004	
3495	0	32498	32853	36988	
3496	0	32856	32832	36904	
3497	0	33030	32577	36788	
3498	0	32745	32628	36676	
3499	0	32794	32788	36572	
3500	0	32916	32857	36517	
3501	0	33068	32906	36468	
3502	0	33040	32772	36429	
3503	0	32976	32772	36420	
3504	0	32932	32804	36400	
3505	0	32964	32935	36412	
3506	0	32856	32882	36455	
3507	0	32920	32884	36480	
3508	0	32992	32976	36496	
3509	0	32860	32832	36489	
3510	0	32692	32752	36509	
3511	0	32600	32904	36537	
3512	0	32472	32784	36596	
3513	0	32324	32612	36586	
3514	0	32440	32574	36593	
3515	0	32596	32704	36588	
3516	0	32528	32924	36581	
3517	0	32548	32869	36582	
3518	0	32672	32864	36589	
3519	0	32796	33006	36566	
3520	0	32865	32933	36548	
3521	0	33152	32956	36535	
3522	0	33284	32752	36525	
3523	0	33180	32770	36513	
3524	0	33068	32725	36512	
3525	0	33068	32748	36528	
3526	0	32974	32921	36526	
3527	0	32836	33057	36519	
3528	0	32860	32953	36521	
3529	0	32730	32932	36516	
3530	0	32688	32916	36497	
3531	0	32608	32844	36484	
3532	0	32577	33036	36487	
3533	0	32381	32697	36489	
3534	0	32408	32778	36495	
3535	0	32584	32772	36481	
3536	0	32645	32615	36464	
3537	0	32856	32654	36456	
3538	0	32784	32768	36465	
3539	0	32868	32784	36452	
3540	0	32676	32764	36448	
3541	0	32860	32870	36448	
3542	0	32956	33039	36424	
3543	0	33032	32849	36391	
3544	0	33044	32797	36382	
3545	0	32986	33045	36368	
3546	0	32877	32916	36384	
3547	0	32788	32759	36372	
3548	0	32905	32584	36364	
3549	0	32920	32662	36358	
3550	0	32774	32689	36359	
3551	0	32836	32763	36340	
3552	0	32604	32968	36308	
3553	0	32352	32920	36307	
3554	0	32240	32756	36304	
3555	0	32332	32832	36281	
3556	0	32368	32728	36270	
3557	0	32689	32788	36284	
3558	0	32996	32752	36289	
3559	0	33212	32996	36304	
3560	0	33244	32964	36304	
3561	0	33329	32904	36322	
3562	0	33132	32948	36336	
3563	0	32869	32959	36359	
3564	0	32848	32933	36368	
3565	0	32968	32648	36392	
3566	0	32908	32804	36412	
3567	0	32940	32949	36428	
3568	0	32853	32869	36436	
3569	0	32792	32744	36416	
3570	0	32636	32647	36424	
3571	0	32552	32976	36412	
3572	0	32452	32904	36418	
3573	0	32530	32909	36408	
3574	0	32388	32866	36420	
3575	0	32504	32841	36392	
3576	0	32536	32708	36392	
3577	0	32662	32854	36383	
3578	0	32629	32828	36372	
3579	0	32756	32784	36356	
3580	0	32862	32840	36344	
3581	0	33060	32860	36342	
3582	0	33152	32865	36324	
3583	0	33080	32656	36327	
3584	0	32980	32724	36326	
3585	0	32940	32820	36308	
3586	0	33010	32849	36320	
3587	0	32940	32876	36312	
3588	0	33024	32988	36320	
3589	0	32944	32897	36346	
3590	0	32836	32893	36359	
3591	0	32780	32881	36397	
3592	0	32454	32901	36420	
3593	0	32360	32765	36412	
3594	0	32490	32470	36416	
3595	0	32536	32590	36420	
3596	0	32641	32840	36436	
3597	0	32630	32798	36424	
3598	0	32780	32748	36412	
3599	0	32864	32884	36426	
3600	0	32964	32749	36438	
3601	0	32976	32860	36440	
3602	0	32906	32959	36431	
3603	0	32856	32924	36430	
3604	0	32804	32868	36432	
3605	0	32721	32872	36420	
3606	0	33008	32817	36413	
3607	0	33064	32829	36396	
3608	0	32664	33014	36400	
3609	0	32458	33001	36418	
3610	0	32544	32968	36416	
3611	0	32740	32869	36400	
3612	0	32938	33050	36416	
3613	0	33056	32833	36412	
3614	0	33064	32700	36453	
3615	0	32721	32652	36444	
3616	0	32404	32812	36444	
3617	0	32312	32700	36432	
3618	0	32462	32639	36445	
3619	0	32800	32690	36452	
3620	0	33193	32640	36453	
3621	0	33320	32765	36452	
3622	0	33106	32844	36481	
3623	0	32941	32741	36492	
3624	0	32956	32680	36503	
3625	0	33016	32760	36516	
3626	0	32936	32994	36538	
3627	0	32876	32920	36552	
3628	0	32820	32849	36584	
3629	0	32728	32918	36604	
3630	0	32576	32972	36608	
3631	0	32736	33100	36624	
3632	0	32736	32964	36644	
3633	0	32608	32833	36654	
3634	0	32573	32879	36676	
3635	0	32212	32996	36676	
3636	0	32417	32836	36687	
3637	0	32568	32845	36678	
3638	0	32696	32749	36696	
3639	0	32848	32814	36710	
3640	0	32900	32866	36720	
3641	0	33012	32840	36724	
3642	0	32949	32844	36736	
3643	0	33101	32825	36740	
3644	0	33052	32928	36758	
3645	0	33024	32632	36772	
3646	0	33049	32674	36765	
3647	0	32948	32716	36764	
3648	0	32940	32684	36772	
3649	0	32780	32817	36781	
3650	0	32632	32904	36800	
3651	0	32509	33000	36812	
3652	0	32496	33034	36825	
3653	0	32606	32756	36848	
3654	0	32620	32943	36836	
3655	0	32505	32731	36830	
3656	0	32417	32714	36840	
3657	0	32553	32692	36836	
3658	0	32684	32776	36820	
3659	0	32876	32828	36799	
3660	0	32940	32728	36812	
3661	0	32992	32872	36780	
3662	0	32896	32936	36772	
3663	0	32980	32802	36773	
3664	0	33088	32737	36772	
3665	0	33068	33062	36760	
3666	0	33129	32932	36769	
3667	0	33148	32696	36733	
3668	0	33037	32886	36708	
3669	0	33024	32874	36704	
3670	0	32552	32766	36697	
3671	0	32609	32962	36692	
3672	0	32652	33016	36700	
3673	0	32496	32941	36700	
3674	0	32485	32906	36660	
3675	0	32504	32732	36640	
3676	0	32516	32596	36620	
3677	0	32476	32784	36580	
3678	0	32560	32734	36558	
3679	0	32730	32913	36520	
3680	0	32860	32657	36496	
3681	0	32996	32745	36474	
3682	0	32972	32774	36428	
3683	0	33072	32840	36436	
3684	0	33068	32838	36412	
3685	0	33126	32765	36375	
3686	0	32964	32924	36341	
3687	0	32758	32788	36350	
3688	0	32724	32986	36357	
3689	0	32888	32918	36350	
3690	0	32844	32816	36341	
3691	0	32997	32764	36324	
3692	0	32932	32858	36312	
3693	0	32500	32948	36306	
3694	0	32485	33020	36260	
3695	0	32556	32962	36224	
3696	0	32576	33024	36216	
3697	0	32588	32743	36204	
3698	0	32608	32420	36197	
3699	0	32598	32776	36197	
3700	0	32766	32792	36164	
3701	0	32744	32661	36172	
3702	0	32740	33044	36160	
3703	0	32816	32783	36132	
3704	0	33212	32740	36116	
3705	0	33148	32648	36108	
3706	0	32972	32524	36092	
3707	0	33104	32712	36114	
3708	0	33028	33060	36120	
3709	0	32808	33022	36120	
3710	0	32633	32900	36132	
3711	0	32612	33056	36112	
3712	0	32540	33077	36116	
3713	0	32544	32718	36148	
3714	0	32625	32661	36198	
3715	0	32628	32700	36220	
3716	0	32534	32696	36223	
3717	0	32640	32634	36229	
3718	0	32680	32685	36246	
3719	0	32780	32973	36252	
3720	0	32936	32989	36244	
3721	0	32954	32930	36289	
3722	0	33032	32887	36300	
3723	0	32912	32950	36292	
3724	0	32944	32833	36308	
3725	0	33048	32900	36334	
3726	0	32993	32940	36344	
3727	0	33064	33037	36350	
3728	0	32944	33080	36396	
3729	0	32984	32898	36430	
3730	0	32718	32857	36460	
3731	0	32624	32984	36492	
3732	0	32344	32812	36516	
3733	0	32401	32696	36564	
3734	0	32725	32584	36570	
3735	0	32740	32548	36588	
3736	0	32598	32636	36630	
3737	0	32576	32630	36629	
3738	0	32676	32741	36644	
3739	0	32748	32871	36666	
3740	0	32832	32788	36681	
3741	0	32960	32869	36676	
3742	0	32944	32926	36673	
3743	0	32980	32944	36664	
3744	0	33002	32860	36672	
3745	0	33048	32830	36666	
3746	0	32940	32905	36674	
3747	0	32948	32760	36672	
3748	0	32804	32775	36660	
3749	0	32792	32972	36664	
3750	0	32820	32818	36672	
3751	0	32752	32916	36673	
3752	0	32632	33188	36671	
3753	0	32428	32964	36680	
3754	0	32344	32858	36680	
3755	0	32394	32829	36691	
3756	0	32640	32841	36672	
3757	0	33108	32997	36656	
3758	0	32952	32843	36673	
3759	0	32756	32809	36670	
3760	0	32908	32856	36664	
3761	0	32960	32844	36636	
3762	0	32956	32721	36612	
3763	0	32924	32996	36609	
3764	0	32928	32577	36610	
3765	0	32900	32612	36580	
3766	0	32964	32744	36557	
3767	0	32964	32873	36548	
3768	0	32856	32864	36540	
3769	0	32792	32833	36528	
3770	0	32672	32864	36513	
3771	0	32676	32820	36501	
3772	0	32616	32992	36456	
3773	0	32454	32850	36450	
3774	0	32225	32760	36424	
3775	0	32168	32854	36428	
3776	0	32433	32870	36393	
3777	0	32724	32893	36388	
3778	0	32784	32848	36385	
3779	0	33128	32944	36380	
3780	0	33288	33036	36359	
3781	0	33144	33036	36342	
3782	0	33096	33001	36328	
3783	0	33064	32772	36320	
3784	0	33028	32657	36303	
3785	0	32992	32588	36282	
3786	0	32920	32828	36267	
3787	0	32900	32548	36238	
3788	0	32846	32442	36251	
3789	0	32881	32772	36240	
3790	0	32685	32679	36240	
3791	0	32688	32811	36228	
3792	0	32612	32856	36224	
3793	0	32386	32848	36198	
3794	0	32476	32909	36196	
3795	0	32590	32970	36193	
3796	0	32534	32784	36184	
3797	0	32522	32926	36192	
3798	0	32648	33260	36180	
3799	0	32808	32968	36178	
3800	0	32878	32770	36172	
3801	0	32894	33031	36193	
3802	0	33073	32940	36228	
3803	0	33064	32897	36245	
3804	0	32932	32784	36264	
3805	0	33004	32944	36288	
3806	0	33252	32804	36292	
3807	0	33024	32657	36298	
3808	0	32896	32524	36333	
3809	0	32988	32530	36336	
3810	0	32734	32669	36355	
3811	0	32398	33049	36356	
3812	0	32350	33133	36373	
3813	0	32180	33012	36392	
3814	0	32240	32686	36408	
3815	0	32728	32603	36448	
3816	0	33052	32768	36437	
3817	0	32960	32616	36426	
3818	0	32665	32715	36452	
3819	0	32708	32864	36452	
3820	0	32836	32884	36484	
3821	0	32912	32989	36481	
3822	0	32929	32870	36484	
3823	0	32960	32909	36504	
3824	0	33076	32923	36520	
3825	0	33088	32920	36521	
3826	0	33152	32853	36542	
3827	0	32892	32802	36556	
3828	0	32860	32909	36556	
3829	0	32796	32976	36597	
3830	0	32540	32876	36609	
3831	0	32692	32744	36637	
3832	0	32620	32900	36645	
3833	0	32484	32862	36660	
3834	0	32501	32820	36658	
3835	0	32488	32775	36678	
3836	0	32536	32778	36684	
3837	0	32664	32685	36673	
3838	0	32672	32826	36669	
3839	0	32740	32772	36685	
3840	0	32792	32802	36688	
3841	0	32932	32932	36692	
3842	0	32980	32714	36705	
3843	0	33024	32776	36728	
3844	0	33120	32736	36724	
3845	0	33068	32924	36730	
3846	0	33052	32959	36736	
3847	0	33058	32888	36734	
3848	0	33088	32942	36728	
3849	0	32904	32684	36769	
3850	0	32616	33000	36768	
3851	0	32577	33159	36780	
3852	0	32560	32668	36792	
3853	0	32332	32634	36792	
3854	0	32424	32743	36780	
3855	0	32441	33052	36793	
3856	0	32584	32628	36756	
3857	0	32604	32737	36764	
3858	0	32736	32892	36750	
3859	0	32812	32775	36740	
3860	0	32808	32712	36704	
3861	0	33020	33020	36684	
3862	0	33005	32924	36696	
3863	0	33012	32838	36684	
3864	0	33006	32981	36660	
3865	0	33058	33028	36664	
3866	0	32978	33024	36640	
3867	0	32964	32775	36633	
3868	0	32964	32700	36630	
3869	0	32894	32870	36623	
3870	0	32764	32663	36632	
3871	0	32554	32844	36621	
3872	0	32476	32764	36610	
3873	0	32252	32606	36601	
3874	0	32202	32732	36582	
3875	0	32635	32860	36551	
3876	0	32737	32824	36540	
3877	0	32944	32936	36516	
3878	0	33166	32853	36501	
3879	0	33116	32956	36440	
3880	0	32802	32892	36416	
3881	0	32852	33020	36392	
3882	0	33120	32940	36384	
3883	0	32924	32889	36380	
3884	0	32896	32757	36335	
3885	0	33080	32736	36328	
3886	0	32980	32808	36304	
3887	0	32892	32842	36300	
3888	0	32788	32784	36292	
3889	0	32833	32952	36260	
3890	0	32704	33065	36234	
3891	0	32708	33167	36237	
3892	0	32532	33316	36208	
3893	0	32444	32980	36201	
3894	0	32556	32615	36201	
3895	0	32596	32471	36204	
3896	0	32506	32486	36180	
3897	0	32440	32376	36188	
3898	0	32508	32517	36196	
3899	0	32800	32688	36185	
3900	0	32844	32514	36164	
3901	0	32996	32608	36169	
3902	0	33020	32857	36170	
3903	0	32944	32864	36199	
3904	0	32976	32979	36218	
3905	0	33184	32953	36232	
3906	0	33088	32797	36252	
3907	0	32984	33156	36252	
3908	0	32860	33047	36284	
3909	0	32780	32812	36304	
3910	0	32680	32785	36324	
3911	0	32644	33089	36349	
3912	0	32580	32992	36380	
3913	0	32476	32928	36392	
3914	0	32436	32796	36390	
3915	0	32518	32668	36396	
3916	0	32538	32669	36420	
3917	0	32557	32821	36445	
3918	0	32688	32984	36441	
3919	0	32840	32936	36444	
3920	0	32604	32836	36452	
3921	0	32620	32884	36471	
3922	0	32904	32833	36469	
3923	0	33165	32817	36472	
3924	0	33474	32897	36493	
3925	0	33576	32796	36518	
3926	0	33493	32833	36541	
3927	0	33088	32718	36560	
3928	0	32996	32808	36584	
3929	0	32824	32680	36605	
3930	0	32724	32752	36620	
3931	0	32648	32895	36645	
3932	0	32496	32944	36669	
3933	0	32320	32872	36661	
3934	0	31664	32884	36666	
3935	0	31948	32924	36660	
3936	0	32428	32807	36678	
3937	0	32696	32840	36688	
3938	0	32614	32780	36690	
3939	0	32828	32957	36680	
3940	0	33060	32724	36687	
3941	0	33356	32805	36700	
3942	0	33224	32916	36686	
3943	0	33140	32845	36672	
3944	0	33184	32842	36664	
3945	0	33100	32724	36631	
3946	0	33092	32666	36636	
3947	0	32956	32813	36620	
3948	0	32816	32680	36607	
3949	0	32792	32560	36589	
3950	0	32768	32753	36582	
3951	0	32620	32732	36580	
3952	0	32544	33073	36570	
3953	0	32416	32990	36552	
3954	0	32456	32890	36540	
3955	0	32554	32804	36513	
3956	0	32584	32911	36496	
3957	0	32610	32924	36469	
3958	0	32666	32764	36444	
3959	0	32768	32732	36454	
3960	0	32865	32848	36424	
3961	0	32885	33000	36410	
3962	0	32948	32994	36388	
3963	0	33060	32756	36366	
3964	0	33012	32765	36352	
3965	0	33072	32894	36364	
3966	0	32984	32874	36348	
3967	0	32962	33028	36326	
3968	0	32956	32698	36344	
3969	0	32872	32817	36332	
3970	0	32572	32761	36312	
3971	0	32444	32768	36320	
3972	0	32536	32904	36304	
3973	0	32513	32955	36288	
3974	0	32684	32842	36241	
3975	0	32670	32896	36205	
3976	0	32600	32727	36192	
3977	0	32576	32813	36153	
3978	0	32500	32783	36146	
3979	0	32568	32736	36120	
3980	0	32776	32734	36078	
3981	0	33000	32860	36040	
3982	0	33002	32896	36048	
3983	0	33076	32654	36034	
3984	0	33282	33125	36013	
3985	0	33144	32687	35993	
3986	0	32864	32708	35941	
3987	0	32832	32825	35961	
3988	0	32832	32877	35980	
3989	0	32924	33024	35990	
3990	0	32692	32988	35988	
3991	0	32616	32948	35996	
3992	0	32660	32802	36012	
3993	0	32586	32954	36020	
3994	0	32504	32772	36053	
3995	0	32576	32725	36062	
3996	0	32558	32792	36088	
3997	0	32596	32887	36128	
3998	0	32784	32724	36138	
3999	0	32848	32890	36180	
4000	0	32884	32769	36196	
4001	0	32909	32841	36230	
4002	0	32960	32836	36248	
4003	0	33046	32733	36273	
4004	0	32972	32804	36292	
4005	0	33002	32868	36317	
4006	0	32992	32709	36332	
4007	0	32888	32788	36376	
4008	0	32773	32836	36402	
4009	0	32614	32836	36436	
4010	0	32572	32952	36448	
4011	0	32620	32902	36486	
4012	0	32785	32970	36508	
4013	0	32837	32900	36529	
4014	0	32852	32744	36527	
4015	0	32596	32712	36528	
4016	0	32454	32869	36570	
4017	0	32610	32950	36568	
4018	0	32612	32765	36589	
4019	0	32761	33044	36584	
4020	0	32748	33272	36590	
4021	0	32782	33182	36600	
4022	0	32896	32870	36628	
4023	0	33016	32583	36650	
4024	0	33040	32316	36657	
4025	0	33196	32311	36680	
4026	0	33086	32487	36700	
4027	0	32933	32588	36720	
4028	0	32976	32728	36740	
4029	0	32889	32684	36768	
4030	0	32754	32728	36781	
4031	0	32561	32724	36816	
4032	0	32588	33022	36844	
4033	0	32452	33162	36857	
4034	0	32529	32954	36881	
4035	0	32540	32805	36882	
4036	0	32592	32886	36876	
4037	0	32617	32972	36860	
4038	0	32712	32870	36852	
4039	0	32752	32950	36836	
4040	0	32940	32964	36816	
4041	0	33022	32958	36788	
4042	0	32980	32826	36767	
4043	0	32920	32804	36769	
4044	0	32944	32775	36736	
4045	0	33020	32862	36720	
4046	0	33040	32838	36724	
4047	0	33016	32691	36692	
4048	0	32956	32930	36676	
4049	0	32993	32960	36678	
4050	0	32804	32804	36668	
4051	0	32704	32957	36656	
4052	0	32544	33041	36644	
4053	0	32300	33193	36628	
4054	0	32297	33109	36609	
4055	0	32458	32924	36590	
4056	0	32500	32856	36588	
4057	0	32598	32590	36565	
4058	0	32662	32514	36540	
4059	0	32940	32686	36540	
4060	0	33048	32561	36540	
4061	0	32734	32982	36508	
4062	0	32728	32645	36479	
4063	0	32784	32660	36472	
4064	0	32945	32688	36433	
4065	0	33108	32630	36404	
4066	0	33481	32622	36397	
4067	0	33496	32644	36368	
4068	0	33074	32820	36357	
4069	0	32830	32948	36360	
4070	0	32716	32908	36358	
4071	0	32577	32972	36359	
4072	0	32448	32908	36322	
4073	0	32352	32932	36332	
4074	0	32372	32894	36348	
4075	0	32421	32853	36352	
4076	0	32460	32903	36348	
4077	0	32740	32840	36359	
4078	0	33134	32919	36352	
4079	0	33002	32961	36355	
4080	0	32832	32978	36359	
4081	0	32789	32784	36324	
4082	0	32820	32816	36325	
4083	0	32940	32844	36320	
4084	0	33033	32880	36300	
4085	0	33104	32810	36292	
4086	0	33012	32812	36308	
4087	0	32800	32809	36321	
4088	0	32972	32828	36323	
4089	0	32900	32864	36330	
4090	0	32836	32856	36324	
4091	0	32704	32960	36344	
4092	0	32546	32833	36343	
4093	0	32312	32797	36336	
4094	0	32409	32717	36340	
4095	0	32524	32624	36344	
4096	0	32576	32740	36333	
4097	0	32542	32876	36342	
4098	0	32613	32718	36332	
4099	0	32772	32612	36336	
4100	0	32902	32749	36334	
4101	0	32928	32936	36343	
4102	0	33116	32932	36350	
4103	0	33116	32896	36345	
4104	0	33016	32813	36372	
4105	0	33004	32724	36390	
4106	0	32984	32804	36393	
4107	0	32960	32861	36411	
4108	0	32792	32865	36418	
4109	0	32748	32830	36448	
4110	0	32702	32991	36484	
4111	0	32588	32956	36509	
4112	0	32668	32932	36541	
4113	0	32676	32769	36549	
4114	0	32648	32772	36561	
4115	0	32640	32732	36562	
4116	0	32656	32800	36576	
4117	0	32568	32772	36590	
4118	0	32449	32868	36624	
4119	0	32716	32952	36632	
4120	0	32880	32969	36638	
4121	0	32949	33119	36613	
4122	0	33036	33065	36632	
4123	0	33084	32738	36641	
4124	0	33068	32770	36644	
4125	0	33016	32642	36652	
4126	0	32956	32693	36660	
4127	0	32876	32636	36654	
4128	0	32872	32695	36652	
4129	0	32956	32716	36644	
4130	0	32812	32767	36646	
4131	0	32805	32938	36640	
4132	0	32556	32976	36644	
4133	0	32430	32929	36648	
4134	0	32416	32846	36612	
4135	0	32484	32814	36589	
4136	0	32540	32836	36592	
4137	0	32609	32832	36600	
4138	0	32565	32852	36572	
4139	0	32673	32775	36557	
4140	0	32856	32932	36540	
4141	0	32956	33065	36520	
4142	0	33026	32970	36508	
4143	0	32962	32917	36480	
4144	0	33014	32708	36484	
4145	0	32984	32638	36493	
4146	0	33096	32768	36477	
4147	0	32974	32809	36436	
4148	0	33044	32772	36417	
4149	0	32880	32784	36401	
4150	0	32788	32692	36381	
4151	0	32753	32852	36372	
4152	0	32552	32749	36351	
4153	0	32245	32820	36333	
4154	0	32480	32948	36300	
4155	0	32697	32852	36271	
4156	0	32533	32948	36260	
4157	0	32559	32852	36247	
4158	0	32644	32865	36212	
4159	0	32740	32894	36180	
4160	0	32816	32809	36175	
4161	0	33024	32808	36180	
4162	0	32956	32845	36175	
4163	0	32988	32677	36174	
4164	0	33110	32745	36156	
4165	0	33104	32809	36175	
4166	0	33058	32906	36168	
4167	0	32940	32996	36189	
4168	0	32712	32900	36172	
4169	0	32608	32861	36156	
4170	0	32508	32840	36166	
4171	0	32617	32996	36164	
4172	0	32776	32836	36164	
4173	0	32913	32934	36164	
4174	0	33000	32856	36164	
4175	0	32608	32832	36152	
4176	0	32404	32876	36149	
4177	0	32410	32904	36156	
4178	0	32544	32960	36164	
4179	0	32738	33044	36184	
4180	0	32828	32668	36196	
4181	0	33016	32678	36196	
4182	0	32996	32744	36167	
4183	0	33068	32600	36165	
4184	0	33076	32646	36180	
4185	0	32944	32797	36192	
4186	0	32968	32904	36203	
4187	0	32976	32820	36220	
4188	0	32924	32686	36212	
4189	0	32872	32654	36228	
4190	0	32652	32752	36264	
4191	0	32637	32996	36298	
4192	0	32453	33005	36305	
4193	0	32416	32981	36352	
4194	0	32656	32866	36372	
4195	0	32588	32932	36388	
4196	0	32552	32928	36393	
4197	0	32680	32778	36414	
4198	0	32640	32792	36440	
4199	0	32760	32736	36480	
4200	0	32892	32688	36473	
4201	0	32976	32732	36503	
4202	0	32972	32800	36508	
4203	0	33112	32680	36520	
4204	0	33156	32768	36564	
4205	0	33106	32758	36588	
4206	0	32912	32844	36612	
4207	0	32912	32913	36617	
4208	0	32761	32944	36621	
4209	0	32724	32980	36647	
4210	0	32704	32872	36687	
4211	0	32618	32868	36708	
4212	0	32548	33036	36712	
4213	0	32504	32948	36728	
4214	0	32676	32948	36721	
4215	0	32545	32788	36732	
4216	0	32572	32775	36745	
4217	0	32636	32716	36744	
4218	0	32592	32708	36756	
4219	0	32764	32834	36749	
4220	0	32770	32734	36751	
4221	0	32905	32768	36772	
4222	0	33024	32868	36790	
4223	0	33146	32849	36805	
4224	0	33097	32933	36820	
4225	0	33164	32856	36808	
4226	0	33032	32730	36816	
4227	0	32928	32666	36825	
4228	0	32848	32935	36830	
4229	0	32820	32872	36832	
4230	0	32714	32786	36832	
4231	0	32636	32932	36832	
4232	0	32484	33069	36821	
4233	0	32516	32928	36818	
4234	0	32200	32852	36821	
4235	0	32276	32835	36768	
4236	0	32360	32808	36748	
4237	0	32740	32775	36723	
4238	0	33016	32748	36692	
4239	0	33304	32813	36669	
4240	0	33225	32820	36672	
4241	0	32980	32828	36644	
4242	0	32837	32969	36640	
4243	0	32904	32940	36625	
4244	0	32920	32920	36588	
4245	0	32933	32752	36593	
4246	0	32888	32820	36584	
4247	0	32912	32720	36600	
4248	0	32894	32868	36584	
4249	0	32905	32970	36560	
4250	0	32758	32996	36556	
4251	0	32612	32869	36572	
4252	0	32572	32808	36561	
4253	0	32476	32837	36564	
4254	0	32412	32831	36564	
4255	0	32620	32748	36549	
4256	0	32540	32831	36540	
4257	0	32626	32866	36503	
4258	0	32604	32896	36488	
4259	0	32768	32838	36481	
4260	0	32916	32512	36448	
4261	0	33016	32645	36432	
4262	0	33060	32974	36409	
4263	0	32936	32888	36382	
4264	0	33052	32832	36365	
4265	0	33056	32770	36332	
4266	0	32896	32786	36324	
4267	0	32956	32940	36309	
4268	0	32864	33028	36288	
4269	0	32960	33029	36272	
4270	0	32798	32996	36260	
4271	0	32748	32912	36264	
4272	0	32644	32712	36272	
4273	0	32560	32557	36268	
4274	0	32468	32460	36271	
4275	0	32536	32614	36276	
4276	0	32536	32678	36294	
4277	0	32722	32700	36316	
4278	0	32612	32847	36314	
4279	0	32692	32884	36334	
4280	0	32736	32876	36340	
4281	0	32912	32812	36348	
4282	0	32962	32942	36364	
4283	0	33128	32900	36381	
4284	0	33058	32938	36384	
4285	0	33058	32852	36386	
4286	0	33054	32896	36376	
4287	0	32881	32856	36426	
4288	0	32792	32888	36436	
4289	0	32741	32940	36468	
4290	0	32769	33018	36492	
4291	0	32689	33328	36508	
4292	0	32600	32852	36540	
4293	0	32516	32704	36573	
4294	0	32532	32685	36564	
4295	0	32440	32761	36569	
4296	0	32520	32664	36593	
4297	0	32580	32648	36581	
4298	0	32644	32788	36584	
4299	0	32706	32680	36596	
4300	0	32814	32857	36600	
4301	0	32936	32937	36610	
4302	0	33016	33164	36607	
4303	0	32928	33096	36600	
4304	0	33032	32749	36588	
4305	0	33208	32488	36596	
4306	0	33168	32892	36609	
4307	0	33032	32821	36609	
4308	0	32714	32756	36602	
4309	0	32480	32738	36620	
4310	0	32616	32804	36629	
4311	0	32692	32780	36636	
4312	0	32804	32912	36644	
4313	0	32986	32933	36656	
4314	0	32826	32817	36670	
4315	0	32452	32861	36684	
4316	0	32344	32868	36692	
4317	0	32450	32792	36713	
4318	0	32528	32814	36692	
4319	0	32696	32832	36689	
4320	0	32944	32772	36669	
4321	0	33028	32758	36676	
4322	0	33024	32764	36660	
4323	0	33012	32902	36652	
4324	0	33016	32816	36638	
4325	0	33040	32760	36648	
4326	0	33056	32789	36639	
4327	0	32892	32697	36633	
4328	0	32992	32757	36620	
4329	0	32826	32924	36624	
4330	0	32768	33016	36622	
4331	0	32677	32924	36629	
4332	0	32536	32888	36650	
4333	0	32480	32888	36653	
4334	0	32400	32762	36636	
4335	0	32336	32796	36600	
4336	0	32460	32797	36588	
4337	0	32536	32756	36576	
4338	0	32752	32733	36567	
4339	0	32884	32845	36533	
4340	0	32928	32895	36516	
4341	0	33248	32924	36504	
4342	0	33252	32893	36489	
4343	0	33096	32777	36468	
4344	0	32656	32760	36471	
4345	0	32328	32760	36456	
4346	0	32752	32764	36444	
4347	0	33132	32964	36446	
4348	0	32942	32828	36417	
4349	0	32892	32852	36420	
4350	0	32808	32902	36444	
4351	0	32652	32849	36456	
4352	0	32685	33010	36436	
4353	0	32620	32988	36458	
4354	0	32540	32818	36437	
4355	0	32562	32700	36426	
4356	0	32717	32841	36404	
4357	0	32704	32824	36416	
4358	0	32752	32901	36408	
4359	0	32796	32854	36380	
4360	0	32784	32828	36338	
4361	0	32888	32780	36341	
4362	0	32972	32812	36344	
4363	0	33120	32860	36348	
4364	0	33078	32780	36334	
4365	0	33124	32796	36306	
4366	0	32969	32854	36289	
4367	0	32892	32828	36288	
4368	0	32848	32887	36260	
4369	0	32801	32785	36262	
4370	0	32696	32748	36273	
4371	0	32652	32830	36277	
4372	0	32604	33133	36270	
4373	0	32464	32977	36294	
4374	0	32600	32660	36292	
4375	0	32544	32580	36300	
4376	0	32524	32519	36308	
4377	0	32520	32612	36288	
4378	0	32660	32692	36281	
4379	0	32824	32744	36288	
4380	0	32772	32807	36292	
4381	0	32882	32852	36320	
4382	0	33040	32949	36300	
4383	0	32984	32950	36335	
4384	0	33000	32877	36335	
4385	0	33026	32868	36365	
4386	0	33016	32916	36361	
4387	0	32868	32800	36380	
4388	0	32720	32864	36408	
4389	0	32818	32893	36440	
4390	0	32704	32936	36477	
4391	0	32628	32930	36492	
4392	0	32712	33028	36524	
4393	0	32958	32852	36524	
4394	0	32772	32780	36548	
4395	0	32572	32762	36570	
4396	0	32628	32848	36584	
4397	0	32564	32994	36610	
4398	0	32561	32788	36615	
4399	0	32674	32865	36629	
4400	0	32879	33055	36632	
4401	0	32890	32738	36644	
4402	0	32976	32828	36628	
4403	0	32972	32816	36644	
4404	0	32964	32608	36639	
4405	0	32881	32655	36644	
4406	0	33092	32716	36648	
4407	0	32916	32782	36664	
4408	0	32922	32790	36653	
4409	0	32824	32694	36664	
4410	0	32852	32732	36686	
4411	0	32640	32886	36700	
4412	0	32568	33048	36708	
4413	0	32456	33037	36704	
4414	0	32486	32897	36698	
4415	0	32492	32775	36700	
4416	0	32561	32898	36692	
4417	0	32648	32889	36684	
4418	0	32616	32903	36648	
4419	0	32714	32812	36664	
4420	0	32829	32700	36641	
4421	0	32928	32596	36616	
4422	0	32876	32775	36616	
4423	0	32948	32850	36608	
4424	0	33036	32786	36588	
4425	0	33100	32830	36576	
4426	0	33108	32903	36584	
4427	0	33133	32897	36596	
4428	0	32928	32832	36605	
4429	0	32882	32748	36620	
4430	0	32684	32680	36622	
4431	0	32702	32796	36629	
4432	0	32628	32868	36647	
4433	0	32437	32854	36637	
4434	0	32548	32864	36610	
4435	0	32592	32791	36604	
4436	0	32504	32728	36605	
4437	0	32517	32863	36620	
4438	0	32632	32860	36608	
4439	0	32592	32780	36600	
4440	0	32791	32836	36583	
4441	0	32928	33018	36554	
4442	0	33036	33016	36532	
4443	0	33124	32766	36484	
4444	0	33144	32668	36464	
4445	0	33136	32804	36440	
4446	0	33060	32730	36413	
4447	0	33036	32712	36422	
4448	0	32840	32868	36428	
4449	0	32768	33032	36428	
4450	0	32708	32912	36440	
4451	0	32636	32900	36444	
4452	0	32764	32822	36440	
4453	0	32644	32886	36448	
4454	0	32436	32862	36462	
4455	0	32532	32892	36480	
4456	0	32405	32701	36492	
4457	0	32369	32850	36496	
4458	0	32288	32868	36516	
4459	0	32624	33024	36528	
4460	0	32888	32985	36518	
4461	0	33132	32869	36529	
4462	0	33444	32720	36503	
4463	0	33288	32516	36520	
4464	0	33048	32492	36521	
4465	0	33124	32629	36525	
4466	0	33116	32712	36506	
4467	0	32960	32644	36500	
4468	0	32732	32868	36487	
4469	0	32816	32853	36517	
4470	0	32609	32897	36512	
4471	0	32596	32893	36520	
4472	0	32730	33134	36544	
4473	0	32514	33094	36532	
4474	0	32492	32869	36540	
4475	0	32486	32720	36540	
4476	0	32556	32852	36524	
4477	0	32584	32952	36527	
4478	0	32589	33052	36536	
4479	0	32757	32775	36528	
4480	0	32904	32718	36532	
4481	0	32956	32885	36527	
4482	0	33080	32752	36545	
4483	0	32988	32789	36532	
4484	0	32901	32673	36524	
4485	0	33026	32868	36529	
4486	0	33016	32793	36540	
4487	0	32961	32828	36535	
4488	0	32941	32788	36520	
4489	0	32876	32770	36552	
4490	0	32620	32912	36582	
4491	0	32604	33072	36596	
4492	0	32552	32850	36606	
4493	0	32568	32703	36620	
4494	0	32628	32673	36644	
4495	0	32668	32688	36652	
4496	0	32497	32772	36676	
4497	0	32624	32841	36660	
4498	0	32764	32781	36678	
4499	0	32756	32780	36660	
4500	0	32740	32846	36660	
4501	0	32876	32904	36664	
4502	0	32888	32896	36641	
4503	0	32885	32909	36628	
4504	0	33012	32804	36641	
4505	0	33000	32826	36653	
4506	0	33076	32860	36671	
4507	0	33026	32856	36649	
4508	0	32936	32949	36654	
4509	0	33052	32953	36658	
4510	0	32800	32940	36677	
4511	0	32604	32996	36661	
4512	0	32684	32889	36666	
4513	0	32692	32868	36644	
4514	0	32552	32908	36632	
4515	0	32480	32809	36598	
4516	0	32544	32828	36588	
4517	0	32524	33069	36569	
4518	0	32613	32852	36577	
4519	0	32620	32692	36534	
4520	0	32748	32773	36486	
4521	0	32904	32760	36481	
4522	0	33092	32780	36465	
4523	0	32976	32852	36448	
4524	0	32856	32834	36460	
4525	0	32756	32636	36437	
4526	0	32884	32743	36416	
4527	0	33036	32751	36412	
4528	0	33272	32764	36412	
4529	0	33416	32888	36414	
4530	0	33020	32815	36422	
4531	0	32752	32708	36439	
4532	0	32542	32988	36455	
4533	0	32544	33028	36472	
4534	0	32369	32813	36485	
4535	0	32392	32809	36477	
4536	0	32482	32869	36468	
4537	0	32636	32896	36452	
4538	0	32596	32777	36460	
4539	0	32820	32780	36446	
4540	0	32888	32872	36448	
4541	0	32708	32852	36425	
4542	0	32960	32765	36436	
4543	0	33064	33015	36440	
4544	0	32952	32678	36448	
4545	0	32904	32716	36432	
4546	0	32924	32752	36440	
4547	0	32996	32851	36428	
4548	0	32924	32852	36465	
4549	0	32868	32966	36462	
4550	0	32724	32901	36462	
4551	0	32616	32912	36471	
4552	0	32596	32960	36487	
4553	0	32458	32765	36508	
4554	0	32536	32760	36497	
4555	0	32560	32848	36516	
4556	0	32596	32908	36538	
4557	0	32558	32732	36528	
4558	0	32686	32772	36556	
4559	0	32772	32970	36546	
4560	0	32868	32852	36542	
4561	0	32940	33008	36563	
4562	0	32940	33058	36552	
4563	0	33048	32936	36540	
4564	0	33066	32897	36505	
4565	0	33008	32861	36503	
4566	0	32912	32762	36508	
4567	0	33021	32688	36504	
4568	0	32944	32876	36519	
4569	0	32956	32902	36519	
4570	0	32720	32775	36518	
4571	0	32728	32833	36512	
4572	0	32688	32737	36502	
4573	0	32417	32633	36506	
4574	0	32396	32600	36516	
4575	0	32444	32380	36498	
4576	0	32532	32644	36505	
4577	0	32628	32802	36492	
4578	0	32820	32775	36487	
4579	0	32784	33018	36476	
4580	0	32836	32893	36486	
4581	0	32896	32737	36500	
4582	0	33024	32902	36492	
4583	0	32996	32922	36484	
4584	0	33061	32913	36484	
4585	0	33044	32964	36501	
4586	0	33000	32792	36500	
4587	0	32952	32836	36484	
4588	0	32926	33010	36487	
4589	0	32856	32936	36488	
4590	0	32648	32848	36480	
4591	0	32692	32917	36508	
4592	0	32588	33036	36492	
4593	0	32548	32772	36508	
4594	0	32676	32644	36525	
4595	0	32588	32734	36529	
4596	0	32516	32657	36512	
4597	0	32561	32624	36504	
4598	0	32548	32716	36492	
4599	0	32684	32840	36498	
4600	0	32644	32745	36504	
4601	0	32748	32788	36496	
4602	0	32904	33211	36500	
4603	0	33040	32756	36492	
4604	0	33074	32712	36488	
4605	0	33044	32862	36472	
4606	0	33414	32912	36487	
4607	0	33344	32860	36473	
4608	0	33052	32980	36481	
4609	0	32920	33152	36452	
4610	0	32748	32797	36440	
4611	0	32656	32720	36430	
4612	0	32562	32816	36432	
4613	0	32424	33009	36446	
4614	0	32389	32880	36436	
4615	0	32344	32852	36424	
4616	0	32396	32734	36424	
4617	0	32468	32710	36412	
4618	0	32701	32820	36412	
4619	0	32736	32767	36420	
4620	0	32809	32816	36396	
4621	0	32836	32850	36417	
4622	0	32989	32981	36393	
4623	0	33096	33220	36404	
4624	0	33168	32850	36420	
4625	0	33173	32558	36424	
4626	0	33132	32549	36449	
4627	0	32944	32679	36464	
4628	0	32928	33022	36512	
4629	0	32824	32920	36549	
4630	0	32716	32926	36560	
4631	0	32604	32784	36548	
4632	0	32552	32898	36543	
