# OpenSignals Text File Format
# {"00:07:80:3B:46:61": {"sensor": ["EDA"], "device name": "00:07:80:3B:46:61", "column": ["nSeq", "DI", "PORT3_CHN1"], "sync interval": 2, "time": "13:28:43.110", "comments": "", "device connection": "BTH00:07:80:3B:46:61", "channels": [3], "date": "2017-1-23", "mode": 0, "digital IO": [0, 1], "firmware version": 772, "device": "channeller", "position": 0, "sampling rate": 100, "label": ["PORT3_CHN1"], "resolution": [16], "special": [{"SpO2": [80, 40, 5, 4, 5, 5]}]}}
# EndOfHeader
0	0	46888	
1	0	46958	
2	0	46872	
3	0	46960	
4	0	46866	
5	0	46925	
6	0	46820	
7	0	46886	
8	0	46776	
9	0	46872	
10	0	46770	
11	0	46864	
12	0	46752	
13	0	46832	
14	0	46726	
15	0	46792	
16	0	46696	
17	0	46776	
18	0	46681	
19	0	46732	
20	0	46672	
21	0	46720	
22	0	46624	
23	0	46692	
24	0	46596	
25	0	46675	
26	0	46553	
27	0	46672	
28	0	46524	
29	0	46596	
30	0	46512	
31	0	46584	
32	0	46484	
33	0	46550	
34	0	46456	
35	0	46546	
36	0	46412	
37	0	46523	
38	0	46402	
39	0	46470	
40	0	46386	
41	0	46442	
42	0	46332	
43	0	46432	
44	0	46324	
45	0	46402	
46	0	46288	
47	0	46387	
48	0	46279	
49	0	46332	
50	0	46224	
51	0	46326	
52	0	46214	
53	0	46308	
54	0	46186	
55	0	46264	
56	0	46176	
57	0	46239	
58	0	46133	
59	0	46201	
60	0	46108	
61	0	46194	
62	0	46084	
63	0	46151	
64	0	46060	
65	0	46108	
66	0	46002	
67	0	46087	
68	0	45988	
69	0	46056	
70	0	45952	
71	0	46036	
72	0	45928	
73	0	46004	
74	0	45888	
75	0	45964	
76	0	45873	
77	0	45958	
78	0	45824	
79	0	45906	
80	0	45807	
81	0	45872	
82	0	45758	
83	0	45840	
84	0	45767	
85	0	45820	
86	0	45710	
87	0	45792	
88	0	45676	
89	0	45762	
90	0	45655	
91	0	45748	
92	0	45639	
93	0	45696	
94	0	45600	
95	0	45696	
96	0	45556	
97	0	45637	
98	0	45536	
99	0	45602	
100	0	45514	
101	0	45592	
102	0	45472	
103	0	45542	
104	0	45462	
105	0	45528	
106	0	45432	
107	0	45496	
108	0	45376	
109	0	45462	
110	0	45362	
111	0	45430	
112	0	45325	
113	0	45412	
114	0	45319	
115	0	45360	
116	0	45291	
117	0	45369	
118	0	45225	
119	0	45309	
120	0	45204	
121	0	45280	
122	0	45188	
123	0	45254	
124	0	45161	
125	0	45240	
126	0	45144	
127	0	45184	
128	0	45112	
129	0	45160	
130	0	45063	
131	0	45136	
132	0	45050	
133	0	45112	
134	0	45040	
135	0	45063	
136	0	44970	
137	0	45080	
138	0	44970	
139	0	45014	
140	0	44918	
141	0	44998	
142	0	44896	
143	0	44969	
144	0	44884	
145	0	44968	
146	0	44843	
147	0	44923	
148	0	44808	
149	0	44892	
150	0	44782	
151	0	44872	
152	0	44756	
153	0	44850	
154	0	44733	
155	0	44826	
156	0	44713	
157	0	44780	
158	0	44678	
159	0	44770	
160	0	44672	
161	0	44722	
162	0	44628	
163	0	44712	
164	0	44594	
165	0	44676	
166	0	44551	
167	0	44660	
168	0	44544	
169	0	44635	
170	0	44516	
171	0	44614	
172	0	44500	
173	0	44568	
174	0	44464	
175	0	44551	
176	0	44428	
177	0	44526	
178	0	44432	
179	0	44512	
180	0	44400	
181	0	44467	
182	0	44365	
183	0	44450	
184	0	44339	
185	0	44412	
186	0	44330	
187	0	44408	
188	0	44290	
189	0	44383	
190	0	44250	
191	0	44345	
192	0	44256	
193	0	44349	
194	0	44212	
195	0	44319	
196	0	44212	
197	0	44258	
198	0	44178	
199	0	44254	
200	0	44164	
201	0	44208	
202	0	44122	
203	0	44204	
204	0	44118	
205	0	44167	
206	0	44088	
207	0	44153	
208	0	44057	
209	0	44116	
210	0	44029	
211	0	44133	
212	0	44000	
213	0	44099	
214	0	43976	
215	0	44065	
216	0	43980	
217	0	44034	
218	0	43950	
219	0	44016	
220	0	43911	
221	0	44008	
222	0	43896	
223	0	43975	
224	0	43900	
225	0	43960	
226	0	43849	
227	0	43936	
228	0	43820	
229	0	43898	
230	0	43804	
231	0	43900	
232	0	43773	
233	0	43865	
234	0	43776	
235	0	43862	
236	0	43748	
237	0	43832	
238	0	43748	
239	0	43820	
240	0	43704	
241	0	43798	
242	0	43692	
243	0	43758	
244	0	43684	
245	0	43766	
246	0	43654	
247	0	43724	
248	0	43616	
249	0	43708	
250	0	43626	
251	0	43680	
252	0	43602	
253	0	43664	
254	0	43560	
255	0	43648	
256	0	43546	
257	0	43616	
258	0	43527	
259	0	43600	
260	0	43499	
261	0	43572	
262	0	43506	
263	0	43560	
264	0	43462	
265	0	43547	
266	0	43420	
267	0	43518	
268	0	43418	
269	0	43522	
270	0	43399	
271	0	43506	
272	0	43384	
273	0	43466	
274	0	43348	
275	0	43448	
276	0	43348	
277	0	43416	
278	0	43352	
279	0	43424	
280	0	43312	
281	0	43387	
282	0	43276	
283	0	43382	
284	0	43288	
285	0	43360	
286	0	43244	
287	0	43344	
288	0	43227	
289	0	43320	
290	0	43212	
291	0	43307	
292	0	43192	
293	0	43270	
294	0	43184	
295	0	43280	
296	0	43171	
297	0	43248	
298	0	43168	
299	0	43218	
300	0	43149	
301	0	43230	
302	0	43108	
303	0	43206	
304	0	43104	
305	0	43176	
306	0	43074	
307	0	43176	
308	0	43049	
309	0	43160	
310	0	43076	
311	0	43134	
312	0	43060	
313	0	43112	
314	0	43034	
315	0	43116	
316	0	43015	
317	0	43081	
318	0	43004	
319	0	43080	
320	0	42976	
321	0	43072	
322	0	42970	
323	0	43052	
324	0	42946	
325	0	43015	
326	0	42928	
327	0	43014	
328	0	42904	
329	0	43015	
330	0	42887	
331	0	43000	
332	0	42890	
333	0	42985	
334	0	42858	
335	0	42960	
336	0	42852	
337	0	42926	
338	0	42834	
339	0	42921	
340	0	42822	
341	0	42918	
342	0	42828	
343	0	42898	
344	0	42792	
345	0	42876	
346	0	42777	
347	0	42864	
348	0	42788	
349	0	42832	
350	0	42765	
351	0	42827	
352	0	42724	
353	0	42803	
354	0	42702	
355	0	42792	
356	0	42693	
357	0	42772	
358	0	42695	
359	0	42758	
360	0	42676	
361	0	42744	
362	0	42667	
363	0	42755	
364	0	42633	
365	0	42744	
366	0	42624	
367	0	42729	
368	0	42608	
369	0	42676	
370	0	42596	
371	0	42664	
372	0	42590	
373	0	42663	
374	0	42560	
375	0	42656	
376	0	42550	
377	0	42616	
378	0	42536	
379	0	42631	
380	0	42543	
381	0	42598	
382	0	42503	
383	0	42605	
384	0	42482	
385	0	42584	
386	0	42480	
387	0	42550	
388	0	42469	
389	0	42554	
390	0	42451	
391	0	42536	
392	0	42446	
393	0	42503	
394	0	42447	
395	0	42503	
396	0	42400	
397	0	42486	
398	0	42404	
399	0	42473	
400	0	42384	
401	0	42476	
402	0	42370	
403	0	42440	
404	0	42352	
405	0	42438	
406	0	42328	
407	0	42432	
408	0	42316	
409	0	42424	
410	0	42304	
411	0	42396	
412	0	42298	
413	0	42360	
414	0	42272	
415	0	42360	
416	0	42265	
417	0	42356	
418	0	42264	
419	0	42324	
420	0	42248	
421	0	42316	
422	0	42226	
423	0	42322	
424	0	42230	
425	0	42297	
426	0	42204	
427	0	42304	
428	0	42180	
429	0	42273	
430	0	42192	
431	0	42248	
432	0	42146	
433	0	42256	
434	0	42150	
435	0	42223	
436	0	42116	
437	0	42223	
438	0	42127	
439	0	42196	
440	0	42096	
441	0	42183	
442	0	42085	
443	0	42183	
444	0	42068	
445	0	42172	
446	0	42064	
447	0	42144	
448	0	42062	
449	0	42136	
450	0	42044	
451	0	42116	
452	0	42036	
453	0	42111	
454	0	41991	
455	0	42083	
456	0	41991	
457	0	42074	
458	0	42011	
459	0	42066	
460	0	41986	
461	0	42058	
462	0	41948	
463	0	42062	
464	0	41952	
465	0	42032	
466	0	41945	
467	0	42024	
468	0	41900	
469	0	42002	
470	0	41890	
471	0	41990	
472	0	41890	
473	0	41968	
474	0	41872	
475	0	41977	
476	0	41848	
477	0	41955	
478	0	41859	
479	0	41927	
480	0	41851	
481	0	41898	
482	0	41828	
483	0	41911	
484	0	41818	
485	0	41912	
486	0	41799	
487	0	41897	
488	0	41792	
489	0	41870	
490	0	41782	
491	0	41842	
492	0	41762	
493	0	41834	
494	0	41746	
495	0	41826	
496	0	41753	
497	0	41820	
498	0	41711	
499	0	41778	
500	0	41696	
501	0	41770	
502	0	41691	
503	0	41760	
504	0	41650	
505	0	41763	
506	0	41671	
507	0	41738	
508	0	41634	
509	0	41720	
510	0	41648	
511	0	41720	
512	0	41604	
513	0	41714	
514	0	41600	
515	0	41700	
516	0	41572	
517	0	41696	
518	0	41568	
519	0	41674	
520	0	41555	
521	0	41656	
522	0	41544	
523	0	41656	
524	0	41560	
525	0	41640	
526	0	41536	
527	0	41596	
528	0	41538	
529	0	41600	
530	0	41524	
531	0	41572	
532	0	41479	
533	0	41562	
534	0	41492	
535	0	41564	
536	0	41463	
537	0	41544	
538	0	41454	
539	0	41540	
540	0	41434	
541	0	41530	
542	0	41424	
543	0	41518	
544	0	41428	
545	0	41510	
546	0	41412	
547	0	41478	
548	0	41394	
549	0	41479	
550	0	41370	
551	0	41474	
552	0	41376	
553	0	41440	
554	0	41351	
555	0	41448	
556	0	41346	
557	0	41454	
558	0	41340	
559	0	41435	
560	0	41335	
561	0	41396	
562	0	41322	
563	0	41392	
564	0	41296	
565	0	41376	
566	0	41287	
567	0	41374	
568	0	41292	
569	0	41379	
570	0	41262	
571	0	41336	
572	0	41238	
573	0	41336	
574	0	41244	
575	0	41340	
576	0	41228	
577	0	41318	
578	0	41212	
579	0	41297	
580	0	41211	
581	0	41297	
582	0	41209	
583	0	41266	
584	0	41197	
585	0	41287	
586	0	41159	
587	0	41257	
588	0	41171	
589	0	41245	
590	0	41150	
591	0	41210	
592	0	41141	
593	0	41224	
594	0	41104	
595	0	41184	
596	0	41100	
597	0	41192	
598	0	41083	
599	0	41181	
600	0	41087	
601	0	41175	
602	0	41060	
603	0	41146	
604	0	41052	
605	0	41159	
606	0	41042	
607	0	41126	
608	0	41015	
609	0	41095	
610	0	41020	
611	0	41122	
612	0	40997	
613	0	41070	
614	0	41005	
615	0	41083	
616	0	40967	
617	0	41068	
618	0	40955	
619	0	41036	
620	0	40944	
621	0	41023	
622	0	40932	
623	0	41034	
624	0	40912	
625	0	41014	
626	0	40892	
627	0	40994	
628	0	40900	
629	0	40996	
630	0	40918	
631	0	40986	
632	0	40887	
633	0	40958	
634	0	40864	
635	0	40955	
636	0	40860	
637	0	40932	
638	0	40837	
639	0	40937	
640	0	40832	
641	0	40942	
642	0	40814	
643	0	40888	
644	0	40820	
645	0	40916	
646	0	40796	
647	0	40898	
648	0	40793	
649	0	40855	
650	0	40786	
651	0	40852	
652	0	40754	
653	0	40832	
654	0	40737	
655	0	40850	
656	0	40748	
657	0	40839	
658	0	40704	
659	0	40824	
660	0	40700	
661	0	40818	
662	0	40700	
663	0	40785	
664	0	40702	
665	0	40784	
666	0	40690	
667	0	40754	
668	0	40650	
669	0	40752	
670	0	40640	
671	0	40764	
672	0	40654	
673	0	40724	
674	0	40636	
675	0	40722	
676	0	40624	
677	0	40702	
678	0	40592	
679	0	40712	
680	0	40592	
681	0	40666	
682	0	40570	
683	0	40681	
684	0	40592	
685	0	40669	
686	0	40555	
687	0	40657	
688	0	40563	
689	0	40640	
690	0	40568	
691	0	40632	
692	0	40520	
693	0	40594	
694	0	40535	
695	0	40604	
696	0	40514	
697	0	40604	
698	0	40504	
699	0	40592	
700	0	40488	
701	0	40555	
702	0	40477	
703	0	40548	
704	0	40482	
705	0	40560	
706	0	40476	
707	0	40519	
708	0	40455	
709	0	40515	
710	0	40436	
711	0	40527	
712	0	40408	
713	0	40501	
714	0	40396	
715	0	40484	
716	0	40416	
717	0	40464	
718	0	40399	
719	0	40455	
720	0	40367	
721	0	40480	
722	0	40378	
723	0	40444	
724	0	40368	
725	0	40444	
726	0	40375	
727	0	40420	
728	0	40339	
729	0	40416	
730	0	40338	
731	0	40393	
732	0	40327	
733	0	40418	
734	0	40324	
735	0	40384	
736	0	40307	
737	0	40381	
738	0	40315	
739	0	40381	
740	0	40269	
741	0	40370	
742	0	40263	
743	0	40365	
744	0	40250	
745	0	40337	
746	0	40246	
747	0	40336	
748	0	40229	
749	0	40341	
750	0	40239	
751	0	40308	
752	0	40233	
753	0	40296	
754	0	40201	
755	0	40299	
756	0	40212	
757	0	40274	
758	0	40188	
759	0	40256	
760	0	40178	
761	0	40258	
762	0	40165	
763	0	40272	
764	0	40178	
765	0	40244	
766	0	40137	
767	0	40231	
768	0	40134	
769	0	40240	
770	0	40131	
771	0	40236	
772	0	40118	
773	0	40194	
774	0	40121	
775	0	40201	
776	0	40108	
777	0	40168	
778	0	40082	
779	0	40168	
780	0	40077	
781	0	40156	
782	0	40080	
783	0	40135	
784	0	40050	
785	0	40167	
786	0	40048	
787	0	40109	
788	0	40024	
789	0	40115	
790	0	40036	
791	0	40128	
792	0	40008	
793	0	40112	
794	0	40002	
795	0	40071	
796	0	39996	
797	0	40100	
798	0	39985	
799	0	40080	
800	0	39969	
801	0	40068	
802	0	39966	
803	0	40044	
804	0	39954	
805	0	40032	
806	0	39943	
807	0	40036	
808	0	39933	
809	0	40033	
810	0	39920	
811	0	40022	
812	0	39913	
813	0	39997	
814	0	39896	
815	0	39986	
816	0	39904	
817	0	40005	
818	0	39895	
819	0	39968	
820	0	39880	
821	0	39969	
822	0	39895	
823	0	39943	
824	0	39876	
825	0	39958	
826	0	39869	
827	0	39931	
828	0	39864	
829	0	39941	
830	0	39854	
831	0	39920	
832	0	39830	
833	0	39904	
834	0	39808	
835	0	39919	
836	0	39824	
837	0	39905	
838	0	39814	
839	0	39884	
840	0	39805	
841	0	39896	
842	0	39794	
843	0	39867	
844	0	39786	
845	0	39858	
846	0	39784	
847	0	39856	
848	0	39762	
849	0	39841	
850	0	39760	
851	0	39858	
852	0	39744	
853	0	39840	
854	0	39744	
855	0	39841	
856	0	39741	
857	0	39815	
858	0	39749	
859	0	39812	
860	0	39721	
861	0	39796	
862	0	39713	
863	0	39804	
864	0	39724	
865	0	39790	
866	0	39724	
867	0	39796	
868	0	39697	
869	0	39771	
870	0	39687	
871	0	39754	
872	0	39689	
873	0	39788	
874	0	39687	
875	0	39762	
876	0	39664	
877	0	39743	
878	0	39678	
879	0	39736	
880	0	39634	
881	0	39746	
882	0	39640	
883	0	39708	
884	0	39648	
885	0	39713	
886	0	39623	
887	0	39720	
888	0	39610	
889	0	39706	
890	0	39616	
891	0	39690	
892	0	39599	
893	0	39704	
894	0	39608	
895	0	39666	
896	0	39596	
897	0	39662	
898	0	39589	
899	0	39644	
900	0	39552	
901	0	39668	
902	0	39566	
903	0	39634	
904	0	39566	
905	0	39625	
906	0	39544	
907	0	39614	
908	0	39544	
909	0	39627	
910	0	39546	
911	0	39616	
912	0	39520	
913	0	39607	
914	0	39512	
915	0	39608	
916	0	39488	
917	0	39570	
918	0	39483	
919	0	39568	
920	0	39486	
921	0	39570	
922	0	39476	
923	0	39581	
924	0	39466	
925	0	39566	
926	0	39456	
927	0	39558	
928	0	39470	
929	0	39546	
930	0	39431	
931	0	39520	
932	0	39431	
933	0	39521	
934	0	39431	
935	0	39506	
936	0	39431	
937	0	39517	
938	0	39424	
939	0	39504	
940	0	39410	
941	0	39490	
942	0	39405	
943	0	39472	
944	0	39398	
945	0	39481	
946	0	39388	
947	0	39478	
948	0	39392	
949	0	39464	
950	0	39395	
951	0	39472	
952	0	39370	
953	0	39428	
954	0	39356	
955	0	39452	
956	0	39346	
957	0	39452	
958	0	39342	
959	0	39431	
960	0	39344	
961	0	39431	
962	0	39320	
963	0	39412	
964	0	39348	
965	0	39397	
966	0	39328	
967	0	39400	
968	0	39312	
969	0	39392	
970	0	39298	
971	0	39373	
972	0	39303	
973	0	39364	
974	0	39270	
975	0	39348	
976	0	39264	
977	0	39352	
978	0	39264	
979	0	39356	
980	0	39272	
981	0	39337	
982	0	39248	
983	0	39348	
984	0	39270	
985	0	39340	
986	0	39241	
987	0	39332	
988	0	39234	
989	0	39324	
990	0	39224	
991	0	39298	
992	0	39234	
993	0	39303	
994	0	39228	
995	0	39280	
996	0	39200	
997	0	39280	
998	0	39208	
999	0	39274	
1000	0	39190	
1001	0	39268	
1002	0	39184	
1003	0	39261	
1004	0	39156	
1005	0	39268	
1006	0	39170	
1007	0	39268	
1008	0	39186	
1009	0	39243	
1010	0	39160	
1011	0	39257	
1012	0	39152	
1013	0	39218	
1014	0	39144	
1015	0	39236	
1016	0	39159	
1017	0	39244	
1018	0	39149	
1019	0	39206	
1020	0	39126	
1021	0	39216	
1022	0	39128	
1023	0	39211	
1024	0	39118	
1025	0	39206	
1026	0	39105	
1027	0	39181	
1028	0	39084	
1029	0	39195	
1030	0	39111	
1031	0	39176	
1032	0	39098	
1033	0	39172	
1034	0	39080	
1035	0	39142	
1036	0	39068	
1037	0	39150	
1038	0	39060	
1039	0	39141	
1040	0	39047	
1041	0	39140	
1042	0	39047	
1043	0	39120	
1044	0	39065	
1045	0	39133	
1046	0	39030	
1047	0	39096	
1048	0	39040	
1049	0	39105	
1050	0	39026	
1051	0	39111	
1052	0	39002	
1053	0	39076	
1054	0	39003	
1055	0	39079	
1056	0	39000	
1057	0	39094	
1058	0	39008	
1059	0	39080	
1060	0	38998	
1061	0	39077	
1062	0	38966	
1063	0	39058	
1064	0	38960	
1065	0	39068	
1066	0	38981	
1067	0	39047	
1068	0	38982	
1069	0	39056	
1070	0	38949	
1071	0	39036	
1072	0	38960	
1073	0	39027	
1074	0	38941	
1075	0	38998	
1076	0	38916	
1077	0	38994	
1078	0	38936	
1079	0	38984	
1080	0	38939	
1081	0	38992	
1082	0	38919	
1083	0	38988	
1084	0	38895	
1085	0	38982	
1086	0	38909	
1087	0	38967	
1088	0	38894	
1089	0	38964	
1090	0	38876	
1091	0	38967	
1092	0	38864	
1093	0	38952	
1094	0	38876	
1095	0	38951	
1096	0	38864	
1097	0	38937	
1098	0	38844	
1099	0	38936	
1100	0	38866	
1101	0	38919	
1102	0	38820	
1103	0	38890	
1104	0	38835	
1105	0	38887	
1106	0	38816	
1107	0	38885	
1108	0	38824	
1109	0	38885	
1110	0	38802	
1111	0	38874	
1112	0	38780	
1113	0	38866	
1114	0	38791	
1115	0	38828	
1116	0	38754	
1117	0	38833	
1118	0	38761	
1119	0	38854	
1120	0	38755	
1121	0	38832	
1122	0	38744	
1123	0	38816	
1124	0	38736	
1125	0	38812	
1126	0	38727	
1127	0	38812	
1128	0	38742	
1129	0	38791	
1130	0	38700	
1131	0	38788	
1132	0	38723	
1133	0	38780	
1134	0	38694	
1135	0	38764	
1136	0	38703	
1137	0	38757	
1138	0	38713	
1139	0	38756	
1140	0	38668	
1141	0	38756	
1142	0	38688	
1143	0	38717	
1144	0	38648	
1145	0	38751	
1146	0	38671	
1147	0	38724	
1148	0	38646	
1149	0	38726	
1150	0	38636	
1151	0	38716	
1152	0	38608	
1153	0	38719	
1154	0	38604	
1155	0	38695	
1156	0	38597	
1157	0	38673	
1158	0	38599	
1159	0	38660	
1160	0	38597	
1161	0	38683	
1162	0	38596	
1163	0	38651	
1164	0	38585	
1165	0	38655	
1166	0	38572	
1167	0	38660	
1168	0	38548	
1169	0	38624	
1170	0	38540	
1171	0	38628	
1172	0	38560	
1173	0	38640	
1174	0	38540	
1175	0	38627	
1176	0	38533	
1177	0	38601	
1178	0	38512	
1179	0	38616	
1180	0	38539	
1181	0	38584	
1182	0	38529	
1183	0	38605	
1184	0	38524	
1185	0	38579	
1186	0	38529	
1187	0	38599	
1188	0	38495	
1189	0	38568	
1190	0	38494	
1191	0	38557	
1192	0	38492	
1193	0	38578	
1194	0	38478	
1195	0	38569	
1196	0	38480	
1197	0	38544	
1198	0	38489	
1199	0	38545	
1200	0	38461	
1201	0	38529	
1202	0	38466	
1203	0	38510	
1204	0	38432	
1205	0	38508	
1206	0	38429	
1207	0	38533	
1208	0	38447	
1209	0	38498	
1210	0	38422	
1211	0	38504	
1212	0	38433	
1213	0	38488	
1214	0	38429	
1215	0	38500	
1216	0	38407	
1217	0	38489	
1218	0	38404	
1219	0	38469	
1220	0	38390	
1221	0	38448	
1222	0	38372	
1223	0	38461	
1224	0	38397	
1225	0	38451	
1226	0	38376	
1227	0	38448	
1228	0	38388	
1229	0	38432	
1230	0	38372	
1231	0	38432	
1232	0	38362	
1233	0	38424	
1234	0	38363	
1235	0	38407	
1236	0	38336	
1237	0	38397	
1238	0	38343	
1239	0	38397	
1240	0	38324	
1241	0	38404	
1242	0	38328	
1243	0	38396	
1244	0	38309	
1245	0	38402	
1246	0	38322	
1247	0	38388	
1248	0	38305	
1249	0	38368	
1250	0	38313	
1251	0	38373	
1252	0	38303	
1253	0	38352	
1254	0	38288	
1255	0	38340	
1256	0	38268	
1257	0	38360	
1258	0	38274	
1259	0	38343	
1260	0	38260	
1261	0	38326	
1262	0	38278	
1263	0	38333	
1264	0	38264	
1265	0	38314	
1266	0	38264	
1267	0	38329	
1268	0	38249	
1269	0	38322	
1270	0	38232	
1271	0	38322	
1272	0	38240	
1273	0	38290	
1274	0	38215	
1275	0	38288	
1276	0	38235	
1277	0	38304	
1278	0	38196	
1279	0	38280	
1280	0	38201	
1281	0	38281	
1282	0	38201	
1283	0	38279	
1284	0	38177	
1285	0	38264	
1286	0	38189	
1287	0	38262	
1288	0	38193	
1289	0	38253	
1290	0	38175	
1291	0	38258	
1292	0	38164	
1293	0	38246	
1294	0	38149	
1295	0	38216	
1296	0	38137	
1297	0	38213	
1298	0	38156	
1299	0	38205	
1300	0	38139	
1301	0	38200	
1302	0	38140	
1303	0	38202	
1304	0	38136	
1305	0	38198	
1306	0	38100	
1307	0	38183	
1308	0	38109	
1309	0	38169	
1310	0	38132	
1311	0	38184	
1312	0	38100	
1313	0	38180	
1314	0	38098	
1315	0	38178	
1316	0	38064	
1317	0	38152	
1318	0	38088	
1319	0	38155	
1320	0	38060	
1321	0	38136	
1322	0	38062	
1323	0	38152	
1324	0	38048	
1325	0	38125	
1326	0	38057	
1327	0	38108	
1328	0	38038	
1329	0	38116	
1330	0	38032	
1331	0	38104	
1332	0	38024	
1333	0	38096	
1334	0	38016	
1335	0	38116	
1336	0	38028	
1337	0	38098	
1338	0	38006	
1339	0	38072	
1340	0	38003	
1341	0	38064	
1342	0	38016	
1343	0	38066	
1344	0	38021	
1345	0	38087	
1346	0	37988	
1347	0	38086	
1348	0	37984	
1349	0	38074	
1350	0	37992	
1351	0	38071	
1352	0	37977	
1353	0	38086	
1354	0	37984	
1355	0	38082	
1356	0	37992	
1357	0	38066	
1358	0	37976	
1359	0	38056	
1360	0	37976	
1361	0	38038	
1362	0	37984	
1363	0	38050	
1364	0	37960	
1365	0	38040	
1366	0	37987	
1367	0	38048	
1368	0	37962	
1369	0	38023	
1370	0	37956	
1371	0	38023	
1372	0	37984	
1373	0	38030	
1374	0	37947	
1375	0	38024	
1376	0	37953	
1377	0	38032	
1378	0	37957	
1379	0	38031	
1380	0	37946	
1381	0	38031	
1382	0	37957	
1383	0	38049	
1384	0	37978	
1385	0	38014	
1386	0	37981	
1387	0	38016	
1388	0	37982	
1389	0	38026	
1390	0	37950	
1391	0	38022	
1392	0	37949	
1393	0	38020	
1394	0	37948	
1395	0	38021	
1396	0	37957	
1397	0	38025	
1398	0	37964	
1399	0	38034	
1400	0	37983	
1401	0	38015	
1402	0	37964	
1403	0	38023	
1404	0	37971	
1405	0	38024	
1406	0	37953	
1407	0	38023	
1408	0	37938	
1409	0	38014	
1410	0	37985	
1411	0	38023	
1412	0	37961	
1413	0	38031	
1414	0	37955	
1415	0	38029	
1416	0	37952	
1417	0	38020	
1418	0	37963	
1419	0	38038	
1420	0	37950	
1421	0	38019	
1422	0	37959	
1423	0	38038	
1424	0	37952	
1425	0	38010	
1426	0	37964	
1427	0	38012	
1428	0	37955	
1429	0	38052	
1430	0	37952	
1431	0	38040	
1432	0	37959	
1433	0	38030	
1434	0	37975	
1435	0	38028	
1436	0	37953	
1437	0	38032	
1438	0	37983	
1439	0	38018	
1440	0	37957	
1441	0	38028	
1442	0	37973	
1443	0	38032	
1444	0	37980	
1445	0	38040	
1446	0	37970	
1447	0	38025	
1448	0	37953	
1449	0	38036	
1450	0	37975	
1451	0	38016	
1452	0	37963	
1453	0	38047	
1454	0	37979	
1455	0	38008	
1456	0	37983	
1457	0	38020	
1458	0	37983	
1459	0	38035	
1460	0	37960	
1461	0	38023	
1462	0	37968	
1463	0	38024	
1464	0	37971	
1465	0	38023	
1466	0	37948	
1467	0	38016	
1468	0	37946	
1469	0	38000	
1470	0	37972	
1471	0	38039	
1472	0	37968	
1473	0	38012	
1474	0	37948	
1475	0	38038	
1476	0	37959	
1477	0	38008	
1478	0	37953	
1479	0	38012	
1480	0	37944	
1481	0	38008	
1482	0	37959	
1483	0	37998	
1484	0	37960	
1485	0	38016	
1486	0	37956	
1487	0	38022	
1488	0	37960	
1489	0	38022	
1490	0	37936	
1491	0	37992	
1492	0	37952	
1493	0	37995	
1494	0	37946	
1495	0	38011	
1496	0	37924	
1497	0	38004	
1498	0	37944	
1499	0	37990	
1500	0	37936	
1501	0	37984	
1502	0	37922	
1503	0	37981	
1504	0	37932	
1505	0	37976	
1506	0	37918	
1507	0	37960	
1508	0	37895	
1509	0	37962	
1510	0	37918	
1511	0	37969	
1512	0	37895	
1513	0	37964	
1514	0	37908	
1515	0	37957	
1516	0	37894	
1517	0	37970	
1518	0	37884	
1519	0	37952	
1520	0	37895	
1521	0	37964	
1522	0	37871	
1523	0	37953	
1524	0	37888	
1525	0	37936	
1526	0	37892	
1527	0	37927	
1528	0	37866	
1529	0	37916	
1530	0	37882	
1531	0	37928	
1532	0	37890	
1533	0	37916	
1534	0	37870	
1535	0	37921	
1536	0	37844	
1537	0	37928	
1538	0	37840	
1539	0	37935	
1540	0	37852	
1541	0	37930	
1542	0	37840	
1543	0	37919	
1544	0	37844	
1545	0	37895	
1546	0	37826	
1547	0	37912	
1548	0	37858	
1549	0	37895	
1550	0	37830	
1551	0	37882	
1552	0	37836	
1553	0	37880	
1554	0	37838	
1555	0	37891	
1556	0	37812	
1557	0	37860	
1558	0	37816	
1559	0	37874	
1560	0	37825	
1561	0	37872	
1562	0	37802	
1563	0	37850	
1564	0	37786	
1565	0	37864	
1566	0	37800	
1567	0	37844	
1568	0	37796	
1569	0	37849	
1570	0	37769	
1571	0	37836	
1572	0	37792	
1573	0	37843	
1574	0	37766	
1575	0	37816	
1576	0	37776	
1577	0	37824	
1578	0	37767	
1579	0	37800	
1580	0	37766	
1581	0	37789	
1582	0	37737	
1583	0	37813	
1584	0	37724	
1585	0	37805	
1586	0	37719	
1587	0	37792	
1588	0	37712	
1589	0	37776	
1590	0	37718	
1591	0	37789	
1592	0	37728	
1593	0	37784	
1594	0	37732	
1595	0	37764	
1596	0	37728	
1597	0	37784	
1598	0	37719	
1599	0	37758	
1600	0	37710	
1601	0	37744	
1602	0	37680	
1603	0	37748	
1604	0	37709	
1605	0	37740	
1606	0	37666	
1607	0	37736	
1608	0	37656	
1609	0	37712	
1610	0	37654	
1611	0	37700	
1612	0	37677	
1613	0	37728	
1614	0	37668	
1615	0	37724	
1616	0	37669	
1617	0	37700	
1618	0	37654	
1619	0	37700	
1620	0	37634	
1621	0	37684	
1622	0	37632	
1623	0	37703	
1624	0	37612	
1625	0	37679	
1626	0	37647	
1627	0	37685	
1628	0	37612	
1629	0	37677	
1630	0	37632	
1631	0	37668	
1632	0	37618	
1633	0	37663	
1634	0	37602	
1635	0	37649	
1636	0	37584	
1637	0	37645	
1638	0	37608	
1639	0	37648	
1640	0	37597	
1641	0	37644	
1642	0	37608	
1643	0	37638	
1644	0	37598	
1645	0	37651	
1646	0	37576	
1647	0	37624	
1648	0	37552	
1649	0	37634	
1650	0	37565	
1651	0	37622	
1652	0	37556	
1653	0	37607	
1654	0	37575	
1655	0	37593	
1656	0	37544	
1657	0	37584	
1658	0	37560	
1659	0	37593	
1660	0	37540	
1661	0	37592	
1662	0	37522	
1663	0	37581	
1664	0	37528	
1665	0	37576	
1666	0	37544	
1667	0	37586	
1668	0	37520	
1669	0	37563	
1670	0	37536	
1671	0	37563	
1672	0	37504	
1673	0	37552	
1674	0	37511	
1675	0	37548	
1676	0	37491	
1677	0	37520	
1678	0	37478	
1679	0	37528	
1680	0	37472	
1681	0	37545	
1682	0	37478	
1683	0	37516	
1684	0	37465	
1685	0	37508	
1686	0	37462	
1687	0	37528	
1688	0	37446	
1689	0	37507	
1690	0	37447	
1691	0	37511	
1692	0	37440	
1693	0	37499	
1694	0	37456	
1695	0	37504	
1696	0	37458	
1697	0	37492	
1698	0	37420	
1699	0	37478	
1700	0	37434	
1701	0	37490	
1702	0	37400	
1703	0	37467	
1704	0	37409	
1705	0	37479	
1706	0	37383	
1707	0	37462	
1708	0	37383	
1709	0	37464	
1710	0	37383	
1711	0	37453	
1712	0	37400	
1713	0	37446	
1714	0	37398	
1715	0	37440	
1716	0	37383	
1717	0	37430	
1718	0	37355	
1719	0	37418	
1720	0	37358	
1721	0	37424	
1722	0	37372	
1723	0	37404	
1724	0	37346	
1725	0	37413	
1726	0	37367	
1727	0	37415	
1728	0	37340	
1729	0	37411	
1730	0	37338	
1731	0	37406	
1732	0	37328	
1733	0	37376	
1734	0	37336	
1735	0	37372	
1736	0	37337	
1737	0	37383	
1738	0	37326	
1739	0	37356	
1740	0	37323	
1741	0	37381	
1742	0	37321	
1743	0	37356	
1744	0	37316	
1745	0	37340	
1746	0	37298	
1747	0	37367	
1748	0	37285	
1749	0	37334	
1750	0	37302	
1751	0	37322	
1752	0	37277	
1753	0	37328	
1754	0	37272	
1755	0	37327	
1756	0	37268	
1757	0	37319	
1758	0	37270	
1759	0	37330	
1760	0	37279	
1761	0	37290	
1762	0	37240	
1763	0	37304	
1764	0	37252	
1765	0	37296	
1766	0	37248	
1767	0	37293	
1768	0	37250	
1769	0	37273	
1770	0	37218	
1771	0	37276	
1772	0	37213	
1773	0	37286	
1774	0	37209	
1775	0	37272	
1776	0	37232	
1777	0	37281	
1778	0	37202	
1779	0	37276	
1780	0	37216	
1781	0	37274	
1782	0	37195	
1783	0	37252	
1784	0	37189	
1785	0	37240	
1786	0	37198	
1787	0	37249	
1788	0	37181	
1789	0	37248	
1790	0	37173	
1791	0	37236	
1792	0	37181	
1793	0	37222	
1794	0	37168	
1795	0	37217	
1796	0	37160	
1797	0	37208	
1798	0	37168	
1799	0	37205	
1800	0	37131	
1801	0	37200	
1802	0	37140	
1803	0	37206	
1804	0	37129	
1805	0	37201	
1806	0	37136	
1807	0	37191	
1808	0	37122	
1809	0	37176	
1810	0	37112	
1811	0	37160	
1812	0	37113	
1813	0	37159	
1814	0	37088	
1815	0	37174	
1816	0	37097	
1817	0	37158	
1818	0	37100	
1819	0	37145	
1820	0	37097	
1821	0	37143	
1822	0	37100	
1823	0	37151	
1824	0	37076	
1825	0	37114	
1826	0	37092	
1827	0	37120	
1828	0	37069	
1829	0	37124	
1830	0	37063	
1831	0	37112	
1832	0	37058	
1833	0	37127	
1834	0	37052	
1835	0	37096	
1836	0	37043	
1837	0	37100	
1838	0	37075	
1839	0	37113	
1840	0	37034	
1841	0	37106	
1842	0	37041	
1843	0	37106	
1844	0	37040	
1845	0	37080	
1846	0	37037	
1847	0	37088	
1848	0	37020	
1849	0	37096	
1850	0	37010	
1851	0	37060	
1852	0	37032	
1853	0	37056	
1854	0	37010	
1855	0	37058	
1856	0	36994	
1857	0	37048	
1858	0	37029	
1859	0	37048	
1860	0	37006	
1861	0	37046	
1862	0	36991	
1863	0	37053	
1864	0	37016	
1865	0	37070	
1866	0	36999	
1867	0	37058	
1868	0	37016	
1869	0	37063	
1870	0	36994	
1871	0	37058	
1872	0	36978	
1873	0	37028	
1874	0	36985	
1875	0	37032	
1876	0	36994	
1877	0	37028	
1878	0	36998	
1879	0	37021	
1880	0	36982	
1881	0	37024	
1882	0	37003	
1883	0	37055	
1884	0	36992	
1885	0	37026	
1886	0	36978	
1887	0	37028	
1888	0	36991	
1889	0	37023	
1890	0	36991	
1891	0	37016	
1892	0	36988	
1893	0	37020	
1894	0	36988	
1895	0	37032	
1896	0	36976	
1897	0	37024	
1898	0	36982	
1899	0	37010	
1900	0	36991	
1901	0	37025	
1902	0	36998	
1903	0	37004	
1904	0	36964	
1905	0	37024	
1906	0	37002	
1907	0	37028	
1908	0	36970	
1909	0	37004	
1910	0	36953	
1911	0	37003	
1912	0	36978	
1913	0	37028	
1914	0	36980	
1915	0	37034	
1916	0	36964	
1917	0	37008	
1918	0	36980	
1919	0	36998	
1920	0	36973	
1921	0	37016	
1922	0	36982	
1923	0	37000	
1924	0	36959	
1925	0	37008	
1926	0	36950	
1927	0	36999	
1928	0	36964	
1929	0	37004	
1930	0	36950	
1931	0	36991	
1932	0	36960	
1933	0	37007	
1934	0	36959	
1935	0	37016	
1936	0	36934	
1937	0	36994	
1938	0	36966	
1939	0	36980	
1940	0	36936	
1941	0	36985	
1942	0	36935	
1943	0	36992	
1944	0	36938	
1945	0	36990	
1946	0	36938	
1947	0	36968	
1948	0	36957	
1949	0	37005	
1950	0	36951	
1951	0	36976	
1952	0	36936	
1953	0	36968	
1954	0	36932	
1955	0	36973	
1956	0	36931	
1957	0	36962	
1958	0	36925	
1959	0	36984	
1960	0	36932	
1961	0	36964	
1962	0	36911	
1963	0	36960	
1964	0	36933	
1965	0	36950	
1966	0	36928	
1967	0	36980	
1968	0	36905	
1969	0	36978	
1970	0	36920	
1971	0	36956	
1972	0	36921	
1973	0	36968	
1974	0	36906	
1975	0	36939	
1976	0	36898	
1977	0	36953	
1978	0	36905	
1979	0	36936	
1980	0	36900	
1981	0	36964	
1982	0	36904	
1983	0	36936	
1984	0	36906	
1985	0	36922	
1986	0	36880	
1987	0	36930	
1988	0	36884	
1989	0	36928	
1990	0	36900	
1991	0	36928	
1992	0	36896	
1993	0	36916	
1994	0	36880	
1995	0	36928	
1996	0	36871	
1997	0	36929	
1998	0	36884	
1999	0	36929	
2000	0	36892	
2001	0	36932	
2002	0	36871	
2003	0	36941	
2004	0	36880	
2005	0	36928	
2006	0	36869	
2007	0	36908	
2008	0	36871	
2009	0	36888	
2010	0	36871	
2011	0	36922	
2012	0	36852	
2013	0	36900	
2014	0	36866	
2015	0	36914	
2016	0	36860	
2017	0	36898	
2018	0	36854	
2019	0	36912	
2020	0	36834	
2021	0	36892	
2022	0	36854	
2023	0	36860	
2024	0	36840	
2025	0	36871	
2026	0	36854	
2027	0	36871	
2028	0	36841	
2029	0	36864	
2030	0	36821	
2031	0	36858	
2032	0	36841	
2033	0	36856	
2034	0	36816	
2035	0	36866	
2036	0	36832	
2037	0	36859	
2038	0	36824	
2039	0	36856	
2040	0	36818	
2041	0	36867	
2042	0	36802	
2043	0	36837	
2044	0	36812	
2045	0	36852	
2046	0	36800	
2047	0	36836	
2048	0	36792	
2049	0	36832	
2050	0	36800	
2051	0	36829	
2052	0	36783	
2053	0	36840	
2054	0	36800	
2055	0	36837	
2056	0	36764	
2057	0	36819	
2058	0	36772	
2059	0	36810	
2060	0	36764	
2061	0	36802	
2062	0	36748	
2063	0	36822	
2064	0	36773	
2065	0	36788	
2066	0	36756	
2067	0	36822	
2068	0	36752	
2069	0	36812	
2070	0	36744	
2071	0	36800	
2072	0	36736	
2073	0	36782	
2074	0	36748	
2075	0	36772	
2076	0	36740	
2077	0	36776	
2078	0	36731	
2079	0	36784	
2080	0	36724	
2081	0	36772	
2082	0	36728	
2083	0	36750	
2084	0	36730	
2085	0	36772	
2086	0	36722	
2087	0	36771	
2088	0	36743	
2089	0	36743	
2090	0	36728	
2091	0	36772	
2092	0	36698	
2093	0	36743	
2094	0	36696	
2095	0	36730	
2096	0	36721	
2097	0	36740	
2098	0	36683	
2099	0	36730	
2100	0	36708	
2101	0	36712	
2102	0	36686	
2103	0	36720	
2104	0	36662	
2105	0	36712	
2106	0	36668	
2107	0	36704	
2108	0	36673	
2109	0	36684	
2110	0	36660	
2111	0	36695	
2112	0	36644	
2113	0	36692	
2114	0	36664	
2115	0	36688	
2116	0	36664	
2117	0	36688	
2118	0	36652	
2119	0	36669	
2120	0	36658	
2121	0	36688	
2122	0	36640	
2123	0	36688	
2124	0	36648	
2125	0	36664	
2126	0	36621	
2127	0	36674	
2128	0	36626	
2129	0	36652	
2130	0	36608	
2131	0	36660	
2132	0	36629	
2133	0	36640	
2134	0	36624	
2135	0	36642	
2136	0	36626	
2137	0	36648	
2138	0	36598	
2139	0	36656	
2140	0	36593	
2141	0	36636	
2142	0	36612	
2143	0	36648	
2144	0	36582	
2145	0	36626	
2146	0	36585	
2147	0	36638	
2148	0	36604	
2149	0	36615	
2150	0	36580	
2151	0	36634	
2152	0	36572	
2153	0	36644	
2154	0	36610	
2155	0	36608	
2156	0	36577	
2157	0	36604	
2158	0	36584	
2159	0	36603	
2160	0	36576	
2161	0	36626	
2162	0	36564	
2163	0	36608	
2164	0	36580	
2165	0	36588	
2166	0	36580	
2167	0	36586	
2168	0	36564	
2169	0	36592	
2170	0	36554	
2171	0	36582	
2172	0	36562	
2173	0	36576	
2174	0	36551	
2175	0	36594	
2176	0	36540	
2177	0	36571	
2178	0	36562	
2179	0	36592	
2180	0	36555	
2181	0	36562	
2182	0	36578	
2183	0	36584	
2184	0	36551	
2185	0	36584	
2186	0	36553	
2187	0	36569	
2188	0	36534	
2189	0	36588	
2190	0	36550	
2191	0	36578	
2192	0	36560	
2193	0	36554	
2194	0	36540	
2195	0	36585	
2196	0	36544	
2197	0	36602	
2198	0	36550	
2199	0	36560	
2200	0	36541	
2201	0	36580	
2202	0	36544	
2203	0	36564	
2204	0	36534	
2205	0	36558	
2206	0	36558	
2207	0	36558	
2208	0	36556	
2209	0	36589	
2210	0	36551	
2211	0	36581	
2212	0	36544	
2213	0	36577	
2214	0	36561	
2215	0	36598	
2216	0	36564	
2217	0	36618	
2218	0	36584	
2219	0	36589	
2220	0	36572	
2221	0	36608	
2222	0	36571	
2223	0	36632	
2224	0	36582	
2225	0	36648	
2226	0	36602	
2227	0	36620	
2228	0	36586	
2229	0	36640	
2230	0	36625	
2231	0	36644	
2232	0	36630	
2233	0	36674	
2234	0	36626	
2235	0	36679	
2236	0	36636	
2237	0	36679	
2238	0	36674	
2239	0	36700	
2240	0	36666	
2241	0	36704	
2242	0	36700	
2243	0	36706	
2244	0	36685	
2245	0	36730	
2246	0	36714	
2247	0	36771	
2248	0	36720	
2249	0	36769	
2250	0	36748	
2251	0	36784	
2252	0	36771	
2253	0	36800	
2254	0	36782	
2255	0	36818	
2256	0	36799	
2257	0	36836	
2258	0	36823	
2259	0	36858	
2260	0	36833	
2261	0	36868	
2262	0	36868	
2263	0	36884	
2264	0	36888	
2265	0	36905	
2266	0	36888	
2267	0	36928	
2268	0	36910	
2269	0	36936	
2270	0	36949	
2271	0	36963	
2272	0	36965	
2273	0	36970	
2274	0	36957	
2275	0	36994	
2276	0	36982	
2277	0	37024	
2278	0	37000	
2279	0	37040	
2280	0	37038	
2281	0	37092	
2282	0	37074	
2283	0	37084	
2284	0	37092	
2285	0	37130	
2286	0	37092	
2287	0	37136	
2288	0	37104	
2289	0	37156	
2290	0	37149	
2291	0	37172	
2292	0	37177	
2293	0	37224	
2294	0	37199	
2295	0	37234	
2296	0	37203	
2297	0	37240	
2298	0	37244	
2299	0	37292	
2300	0	37284	
2301	0	37302	
2302	0	37276	
2303	0	37340	
2304	0	37296	
2305	0	37336	
2306	0	37354	
2307	0	37368	
2308	0	37337	
2309	0	37407	
2310	0	37360	
2311	0	37416	
2312	0	37383	
2313	0	37456	
2314	0	37426	
2315	0	37469	
2316	0	37443	
2317	0	37476	
2318	0	37473	
2319	0	37504	
2320	0	37501	
2321	0	37518	
2322	0	37518	
2323	0	37538	
2324	0	37532	
2325	0	37586	
2326	0	37563	
2327	0	37588	
2328	0	37574	
2329	0	37616	
2330	0	37590	
2331	0	37644	
2332	0	37594	
2333	0	37664	
2334	0	37634	
2335	0	37663	
2336	0	37664	
2337	0	37716	
2338	0	37684	
2339	0	37730	
2340	0	37704	
2341	0	37720	
2342	0	37728	
2343	0	37744	
2344	0	37736	
2345	0	37784	
2346	0	37766	
2347	0	37796	
2348	0	37769	
2349	0	37810	
2350	0	37787	
2351	0	37804	
2352	0	37792	
2353	0	37837	
2354	0	37820	
2355	0	37836	
2356	0	37824	
2357	0	37865	
2358	0	37856	
2359	0	37882	
2360	0	37854	
2361	0	37878	
2362	0	37868	
2363	0	37888	
2364	0	37868	
2365	0	37919	
2366	0	37890	
2367	0	37938	
2368	0	37911	
2369	0	37949	
2370	0	37919	
2371	0	37949	
2372	0	37919	
2373	0	37952	
2374	0	37922	
2375	0	37959	
2376	0	37938	
2377	0	37976	
2378	0	37936	
2379	0	37985	
2380	0	37959	
2381	0	37996	
2382	0	37959	
2383	0	37994	
2384	0	37965	
2385	0	38022	
2386	0	37960	
2387	0	37994	
2388	0	37976	
2389	0	38008	
2390	0	37988	
2391	0	38018	
2392	0	37988	
2393	0	38020	
2394	0	37996	
2395	0	38028	
2396	0	37988	
2397	0	38024	
2398	0	38002	
2399	0	38032	
2400	0	38002	
2401	0	38048	
2402	0	38000	
2403	0	38017	
2404	0	38008	
2405	0	38044	
2406	0	37998	
2407	0	38044	
2408	0	38023	
2409	0	38038	
2410	0	38004	
2411	0	38029	
2412	0	38019	
2413	0	38042	
2414	0	37996	
2415	0	38016	
2416	0	38021	
2417	0	38027	
2418	0	38000	
2419	0	38016	
2420	0	38008	
2421	0	38026	
2422	0	37987	
2423	0	38018	
2424	0	38000	
2425	0	38022	
2426	0	37993	
2427	0	38023	
2428	0	38000	
2429	0	38010	
2430	0	37987	
2431	0	38002	
2432	0	37995	
2433	0	38000	
2434	0	37996	
2435	0	37994	
2436	0	37994	
2437	0	38000	
2438	0	37986	
2439	0	38000	
2440	0	37986	
2441	0	37995	
2442	0	37970	
2443	0	37989	
2444	0	37993	
2445	0	37988	
2446	0	37975	
2447	0	37968	
2448	0	37955	
2449	0	37964	
2450	0	37959	
2451	0	37960	
2452	0	37965	
2453	0	37955	
2454	0	37952	
2455	0	37944	
2456	0	37955	
2457	0	37955	
2458	0	37944	
2459	0	37959	
2460	0	37916	
2461	0	37945	
2462	0	37920	
2463	0	37932	
2464	0	37895	
2465	0	37928	
2466	0	37895	
2467	0	37929	
2468	0	37913	
2469	0	37895	
2470	0	37895	
2471	0	37895	
2472	0	37866	
2473	0	37894	
2474	0	37870	
2475	0	37884	
2476	0	37856	
2477	0	37884	
2478	0	37856	
2479	0	37868	
2480	0	37852	
2481	0	37856	
2482	0	37836	
2483	0	37840	
2484	0	37856	
2485	0	37836	
2486	0	37824	
2487	0	37839	
2488	0	37828	
2489	0	37825	
2490	0	37806	
2491	0	37816	
2492	0	37806	
2493	0	37813	
2494	0	37805	
2495	0	37790	
2496	0	37784	
2497	0	37794	
2498	0	37774	
2499	0	37768	
2500	0	37765	
2501	0	37774	
2502	0	37764	
2503	0	37764	
2504	0	37753	
2505	0	37762	
2506	0	37751	
2507	0	37752	
2508	0	37744	
2509	0	37730	
2510	0	37728	
2511	0	37721	
2512	0	37733	
2513	0	37716	
2514	0	37716	
2515	0	37704	
2516	0	37692	
2517	0	37692	
2518	0	37682	
2519	0	37684	
2520	0	37674	
2521	0	37672	
2522	0	37668	
2523	0	37664	
2524	0	37667	
2525	0	37644	
2526	0	37642	
2527	0	37643	
2528	0	37641	
2529	0	37639	
2530	0	37630	
2531	0	37628	
2532	0	37612	
2533	0	37612	
2534	0	37615	
2535	0	37606	
2536	0	37599	
2537	0	37584	
2538	0	37584	
2539	0	37578	
2540	0	37575	
2541	0	37568	
2542	0	37575	
2543	0	37549	
2544	0	37572	
2545	0	37556	
2546	0	37552	
2547	0	37548	
2548	0	37538	
2549	0	37532	
2550	0	37526	
2551	0	37514	
2552	0	37520	
2553	0	37504	
2554	0	37508	
2555	0	37494	
2556	0	37502	
2557	0	37484	
2558	0	37492	
2559	0	37480	
2560	0	37466	
2561	0	37473	
2562	0	37472	
2563	0	37448	
2564	0	37467	
2565	0	37434	
2566	0	37448	
2567	0	37432	
2568	0	37433	
2569	0	37424	
2570	0	37418	
2571	0	37422	
2572	0	37413	
2573	0	37405	
2574	0	37417	
2575	0	37398	
2576	0	37396	
2577	0	37382	
2578	0	37399	
2579	0	37383	
2580	0	37383	
2581	0	37383	
2582	0	37382	
2583	0	37358	
2584	0	37372	
2585	0	37362	
2586	0	37360	
2587	0	37333	
2588	0	37356	
2589	0	37334	
2590	0	37344	
2591	0	37323	
2592	0	37321	
2593	0	37320	
2594	0	37319	
2595	0	37304	
2596	0	37298	
2597	0	37282	
2598	0	37280	
2599	0	37274	
2600	0	37296	
2601	0	37264	
2602	0	37272	
2603	0	37256	
2604	0	37274	
2605	0	37248	
2606	0	37276	
2607	0	37236	
2608	0	37240	
2609	0	37233	
2610	0	37236	
2611	0	37216	
2612	0	37220	
2613	0	37216	
2614	0	37213	
2615	0	37200	
2616	0	37222	
2617	0	37191	
2618	0	37188	
2619	0	37194	
2620	0	37189	
2621	0	37186	
2622	0	37184	
2623	0	37168	
2624	0	37190	
2625	0	37169	
2626	0	37168	
2627	0	37144	
2628	0	37160	
2629	0	37136	
2630	0	37156	
2631	0	37139	
2632	0	37140	
2633	0	37128	
2634	0	37140	
2635	0	37118	
2636	0	37136	
2637	0	37111	
2638	0	37129	
2639	0	37088	
2640	0	37119	
2641	0	37108	
2642	0	37101	
2643	0	37080	
2644	0	37116	
2645	0	37072	
2646	0	37093	
2647	0	37077	
2648	0	37090	
2649	0	37070	
2650	0	37059	
2651	0	37054	
2652	0	37051	
2653	0	37030	
2654	0	37045	
2655	0	37028	
2656	0	37051	
2657	0	37014	
2658	0	37022	
2659	0	37008	
2660	0	37022	
2661	0	36992	
2662	0	37012	
2663	0	37001	
2664	0	37000	
2665	0	36998	
2666	0	37008	
2667	0	36987	
2668	0	37005	
2669	0	36961	
2670	0	36970	
2671	0	36970	
2672	0	36986	
2673	0	36964	
2674	0	36968	
2675	0	36948	
2676	0	36970	
2677	0	36930	
2678	0	36947	
2679	0	36928	
2680	0	36948	
2681	0	36928	
2682	0	36936	
2683	0	36914	
2684	0	36942	
2685	0	36922	
2686	0	36935	
2687	0	36908	
2688	0	36920	
2689	0	36900	
2690	0	36917	
2691	0	36886	
2692	0	36908	
2693	0	36901	
2694	0	36900	
2695	0	36870	
2696	0	36901	
2697	0	36887	
2698	0	36883	
2699	0	36869	
2700	0	36866	
2701	0	36856	
2702	0	36867	
2703	0	36828	
2704	0	36848	
2705	0	36820	
2706	0	36829	
2707	0	36814	
2708	0	36820	
2709	0	36793	
2710	0	36822	
2711	0	36782	
2712	0	36816	
2713	0	36782	
2714	0	36808	
2715	0	36776	
2716	0	36804	
2717	0	36768	
2718	0	36800	
2719	0	36762	
2720	0	36797	
2721	0	36772	
2722	0	36786	
2723	0	36752	
2724	0	36799	
2725	0	36744	
2726	0	36780	
2727	0	36752	
2728	0	36768	
2729	0	36744	
2730	0	36771	
2731	0	36743	
2732	0	36748	
2733	0	36730	
2734	0	36752	
2735	0	36714	
2736	0	36736	
2737	0	36724	
2738	0	36753	
2739	0	36728	
2740	0	36738	
2741	0	36722	
2742	0	36752	
2743	0	36704	
2744	0	36726	
2745	0	36714	
2746	0	36726	
2747	0	36706	
2748	0	36738	
2749	0	36701	
2750	0	36732	
2751	0	36692	
2752	0	36736	
2753	0	36701	
2754	0	36730	
2755	0	36688	
2756	0	36736	
2757	0	36701	
2758	0	36732	
2759	0	36693	
2760	0	36732	
2761	0	36692	
2762	0	36720	
2763	0	36688	
2764	0	36720	
2765	0	36706	
2766	0	36726	
2767	0	36688	
2768	0	36721	
2769	0	36708	
2770	0	36733	
2771	0	36696	
2772	0	36724	
2773	0	36708	
2774	0	36720	
2775	0	36704	
2776	0	36740	
2777	0	36704	
2778	0	36740	
2779	0	36688	
2780	0	36731	
2781	0	36695	
2782	0	36728	
2783	0	36704	
2784	0	36736	
2785	0	36723	
2786	0	36736	
2787	0	36704	
2788	0	36750	
2789	0	36712	
2790	0	36752	
2791	0	36715	
2792	0	36755	
2793	0	36728	
2794	0	36755	
2795	0	36731	
2796	0	36736	
2797	0	36720	
2798	0	36750	
2799	0	36724	
2800	0	36756	
2801	0	36728	
2802	0	36760	
2803	0	36734	
2804	0	36766	
2805	0	36740	
2806	0	36777	
2807	0	36732	
2808	0	36768	
2809	0	36720	
2810	0	36764	
2811	0	36738	
2812	0	36770	
2813	0	36736	
2814	0	36768	
2815	0	36732	
2816	0	36769	
2817	0	36728	
2818	0	36773	
2819	0	36737	
