# OpenSignals Text File Format
# {"internal sensors":{"sensor":["xGeoMagRot","yGeoMagRot","zGeoMagRot","scalarRot"],"device name":"internal sensors","column":["nSeq","xGeoMagRot","yGeoMagRot","zGeoMagRot","scalarRot"],"sync interval":2,"time":"19:01:34","comments":"","keywords":"","device connection":"UNKNOWNinternal sensors","channels":[0,1,2,3],"date":"2020-07-28","mode":0,"digital IO":[],"firmware version":0,"device":"android","position":0,"sampling rate":100,"label":["xGeoMagRot","yGeoMagRot","zGeoMagRot","scalarRot"],"resolution":[1,1,1,1],"special":[{},{},{},{}],"sleeve color":["UNKNOWN","UNKNOWN","UNKNOWN","UNKNOWN"]}}
# EndOfHeader
1465354526097131	0.014745392	-0.1574538	-0.9170994	0.3659501	
1465354566197229	0.014737965	-0.1375941	-0.9210766	0.3639623	
1465354626652551	0.04263442	-0.15081377	-0.9105319	0.38258237	
1465354687046839	0.052112155	-0.15169206	-0.90765744	0.3878554	
1465354747380090	0.058976796	-0.16359141	-0.9021101	0.39491388	
1465354807926965	0.06789513	-0.18110767	-0.8936071	0.4050391	
1465354888371301	0.07274855	-0.20474371	-0.8832691	0.41547966	
1465354948887659	0.07231617	-0.22207907	-0.87633353	0.42129654	
1465355049626184	0.061830163	-0.23792255	-0.87319386	0.42083538	
1465355089878870	0.062111247	-0.22371809	-0.879238	0.41597223	
1465355089878870	0.062111247	-0.22371809	-0.879238	0.41597223	
1465355089878870	0.062111247	-0.22371809	-0.879238	0.41597223	
1465355089878870	0.062111247	-0.22371809	-0.879238	0.41597223	
1465355089878870	0.062111247	-0.22371809	-0.879238	0.41597223	
1465355089878870	0.062111247	-0.22371809	-0.879238	0.41597223	
1465355089878870	0.062111247	-0.22371809	-0.879238	0.41597223	
1465355089878870	0.062111247	-0.22371809	-0.879238	0.41597223	
1465355089878870	0.062111247	-0.22371809	-0.879238	0.41597223	
1465355089878870	0.062111247	-0.22371809	-0.879238	0.41597223	
1465355089878870	0.062111247	-0.22371809	-0.879238	0.41597223	
1465355089878870	0.062111247	-0.22371809	-0.879238	0.41597223	
1465355089878870	0.062111247	-0.22371809	-0.879238	0.41597223	
1465355089878870	0.062111247	-0.22371809	-0.879238	0.41597223	
1465355089878870	0.062111247	-0.22371809	-0.879238	0.41597223	
1465355089878870	0.062111247	-0.22371809	-0.879238	0.41597223	
1465355089878870	0.062111247	-0.22371809	-0.879238	0.41597223	
1465355089878870	0.062111247	-0.22371809	-0.879238	0.41597223	
1465355089878870	0.062111247	-0.22371809	-0.879238	0.41597223	
1465355089878870	0.062111247	-0.22371809	-0.879238	0.41597223	
1465355089878870	0.062111247	-0.22371809	-0.879238	0.41597223	
1465355110050989	0.062057372	-0.22234702	-0.8798294	0.4154647	
1465355151890589	0.060608745	-0.22700895	-0.87837476	0.41623464	
1465355151890589	0.060608745	-0.22700895	-0.87837476	0.41623464	
1465355192021204	0.059417307	-0.22698776	-0.87879884	0.41552228	
1465355192021204	0.059417307	-0.22698776	-0.87879884	0.41552228	
1465355232060266	0.058903784	-0.22290675	-0.8806845	0.41380882	
1465355232060266	0.058903784	-0.22290675	-0.8806845	0.41380882	
1465355252018762	0.057377517	-0.22155602	-0.8817639	0.41244784	
1465355271916223	0.05431348	-0.22273311	-0.88232124	0.41103435	
1465355291813684	0.048341382	-0.2260877	-0.88295496	0.40858054	
1465355311772180	0.040759165	-0.22825207	-0.8845846	0.40466005	
1465355332035852	0.03593961	-0.22896308	-0.8858682	0.4018977	
1465355351872278	0.035328895	-0.22765017	-0.8865956	0.4010929	
1465355371861292	0.032824337	-0.2272803	-0.8875468	0.39940822	
1465355392033411	0.030149557	-0.22479391	-0.88937896	0.39694303	
1465355412144495	0.026899165	-0.22575931	-0.8900163	0.3951963	
1465355432438684	0.028260354	-0.23163722	-0.88724864	0.39791384	
1465355452458215	0.030871304	-0.23918821	-0.8832952	0.40202683	
1465355472569299	0.036086578	-0.2444977	-0.8792886	0.40714887	
1465355492741419	0.040836077	-0.2482815	-0.8759915	0.41149426	
1465355512852503	0.041091435	-0.25308612	-0.8737316	0.41334245	
1465355533421350	0.03936286	-0.25669664	-0.8726823	0.413501	
1465355553166223	0.042024486	-0.2579502	-0.87115043	0.41568327	
1465355573307825	0.045930956	-0.2587185	-0.8693775	0.4184948	
1465355593449426	0.048522536	-0.2513008	-0.8718973	0.41747892	
1465355613560510	0.046976406	-0.24451564	-0.8755137	0.41410285	
1465355634007288	0.04452057	-0.24178341	-0.87757045	0.41161728	
1465355694126917	0.05197383	-0.256436	-0.86822486	0.42157426	
1465355735081506	0.057489827	-0.25716326	-0.8658164	0.42535153	
1465355754582239	0.058556035	-0.25513184	-0.8663847	0.42527223	
1465355754582239	0.058556035	-0.25513184	-0.8663847	0.42527223	
1465355754582239	0.058556035	-0.25513184	-0.8663847	0.42527223	
1465355754582239	0.058556035	-0.25513184	-0.8663847	0.42527223	
1465355774723840	0.0570767	-0.25422955	-0.867358	0.42402783	
1465355794834924	0.0506452	-0.25692	-0.8684491	0.420979	
1465355814976526	0.04064317	-0.26298085	-0.86920524	0.41673905	
1465355835545374	0.030041777	-0.269793	-0.86974853	0.41212463	
1465355855290247	0.022077527	-0.2747278	-0.87018883	0.40842205	
1465355875401331	0.016316686	-0.27765957	-0.8707818	0.40543556	
1465355895542932	0.007936094	-0.2763465	-0.8742599	0.39904794	
1465355915684534	-0.0043187574	-0.2712175	-0.88059765	0.38854882	
1465355936528040	-0.028345821	-0.2702928	-0.88823014	0.3703856	
1465355955967737	-0.0502939	-0.27092138	-0.8939408	0.3534713	
1465355976109339	-0.055158183	-0.2693437	-0.8957998	0.34921944	
1465355996281458	-0.05811168	-0.26744047	-0.89726996	0.34641767	
1465356016392542	-0.065699875	-0.2657951	-0.8997172	0.33991978	
1465356037022424	-0.07470575	-0.26258197	-0.90296674	0.33184466	
1465356056706262	-0.07884534	-0.25959605	-0.9049431	0.32782814	
1465356076817346	-0.07940973	-0.25874406	-0.9053499	0.32724178	
1465356096989465	-0.07736313	-0.25680912	-0.9055893	0.32859105	
1465356117131067	-0.07684503	-0.2517749	-0.9072525	0.32802	
1465356138096643	-0.07878838	-0.24459484	-0.91012007	0.32503417	
1465356157414270	-0.08135799	-0.23830539	-0.912712	0.32178918	
1465356177525354	-0.08305099	-0.23324563	-0.914652	0.31954777	
1465356197697473	-0.08687195	-0.22933078	-0.9165696	0.31584942	
1465356217839075	-0.094241306	-0.22643238	-0.9187316	0.30948228	
1465356237858606	-0.10130949	-0.22249317	-0.9210437	0.30316946	
1465356258091760	-0.10732961	-0.2179817	-0.9232416	0.29763952	
1465356278263880	-0.10695393	-0.21344317	-0.9244225	0.2973985	
1465356298405481	-0.100990124	-0.21052618	-0.9242975	0.30191684	
1465356318516565	-0.09436747	-0.20900632	-0.92363775	0.3070903	
1465356338841272	-0.09161391	-0.20943542	-0.9230215	0.30947533	
1465356358830286	-0.09103729	-0.21184863	-0.9221951	0.31046513	
1465356378880335	-0.08956344	-0.21445909	-0.9211398	0.31222937	
1465356399082971	-0.08893757	-0.21416892	-0.92106104	0.31283912	
1465356419224573	-0.08957362	-0.21286982	-0.9214855	0.31229392	
1465356439366174	-0.0898262	-0.21208923	-0.92168677	0.3121585	
1465356459507776	-0.088643506	-0.21134904	-0.92163175	0.31315938	
1465356479649378	-0.08431997	-0.21141033	-0.92079645	0.3167486	
1465356499821497	-0.0809757	-0.21520798	-0.9190165	0.32021427	
1465356521366907	-0.07912551	-0.23237374	-0.91325444	0.32512754	
1465356541966272	-0.07324846	-0.23929591	-0.9096922	0.33140942	
1465356561528040	-0.06089442	-0.24090196	-0.90637577	0.341674	
1465356581547571	-0.04584718	-0.24062231	-0.9028646	0.35331917	
1465356601536585	-0.03235701	-0.2423652	-0.89872736	0.36400717	
1465356621647669	-0.017702745	-0.24557151	-0.89343673	0.37570214	
1465356641636682	0.0026385859	-0.24567847	-0.8873324	0.39022607	
1465356661625696	0.026791783	-0.2418172	-0.88117725	0.4053805	
1465356681614710	0.04806767	-0.23540089	-0.8766518	0.41684228	
1465356701634241	0.06745029	-0.22760867	-0.8731103	0.42582065	
1465356721501184	0.084647	-0.22142796	-0.86942685	0.4334761	
1465356741642786	0.10017873	-0.21723773	-0.86528623	0.44051304	
1465356761631799	0.11370361	-0.2134484	-0.8615826	0.44630346	
1465356781773401	0.12585361	-0.2084715	-0.85887426	0.45059466	
1465356801915003	0.13561472	-0.2036758	-0.8569769	0.45355853	
1465356822056604	0.14248641	-0.20058794	-0.8554363	0.45573106	
1465356842198206	0.147616	-0.19914806	-0.8538418	0.45771584	
1465356862370325	0.15121754	-0.19968602	-0.8519764	0.45977706	
1465356882511926	0.1558767	-0.2013461	-0.8491285	0.4627559	
1465356902623010	0.16052586	-0.20548871	-0.8450643	0.46676782	
1465356922795130	0.16722287	-0.2111815	-0.8391694	0.47247604	
1465356943333460	0.17926428	-0.21671446	-0.8306835	0.4804831	
1465356963047815	0.19691873	-0.2220009	-0.81918895	0.49078313	
1465356983189417	0.21192084	-0.2259246	-0.80921507	0.499218	
1465357003361536	0.22273193	-0.22822703	-0.80199665	0.5050785	
1465357023472620	0.23445255	-0.22763178	-0.79600596	0.5095	
1465357043888880	0.24835126	-0.22500208	-0.78990227	0.5135661	
1465357063755823	0.2624301	-0.22333264	-0.7829353	0.5179433	
1465357083897424	0.27650338	-0.2250497	-0.77352494	0.5239825	
1465357104069544	0.2916947	-0.22697742	-0.76296645	0.53035617	
1465357124180628	0.30818862	-0.22684902	-0.75263953	0.53581065	
1465357144993616	0.3208529	-0.22471789	-0.74605936	0.53847075	
1465357164494348	0.3297217	-0.220895	-0.74318624	0.538668	
1465357184635950	0.3353381	-0.21359424	-0.74491566	0.5357486	
1465357204777551	0.33482152	-0.20243761	-0.7531882	0.5287921	
1465357224919153	0.32903644	-0.19151859	-0.7640253	0.5208848	
1465357245518518	0.3217058	-0.18438435	-0.77286077	0.51497	
1465357265171839	0.3154107	-0.18012203	-0.7789658	0.51115996	
1465357285313440	0.30844405	-0.1773915	-0.78440356	0.5080409	
1465357305485559	0.30052727	-0.17448522	-0.790321	0.50460976	
1465357325596643	0.2926055	-0.17032835	-0.7968359	0.50042266	
1465357346592737	0.2848591	-0.16569698	-0.8032071	0.496244	
1465357365910364	0.27737656	-0.16171674	-0.80923843	0.49197876	
1465357386021448	0.27122396	-0.15846115	-0.8140198	0.48856872	
1465357406193567	0.26736933	-0.15526664	-0.81762886	0.485684	
1465357426335169	0.26516178	-0.15204346	-0.82035357	0.48331356	
1465357446354700	0.26411125	-0.14921758	-0.82209224	0.4818129	
1465357466587854	0.26312953	-0.14739244	-0.82331276	0.48082677	
1465357486759973	0.26235032	-0.14689519	-0.82376546	0.4806294	
1465357506871057	0.26210552	-0.14793158	-0.82352805	0.48085186	
1465357527012659	0.2626487	-0.14975904	-0.8224145	0.48189443	
1465357547337366	0.26461166	-0.15087341	-0.82101613	0.48285648	
1465357567326380	0.26765403	-0.15056351	-0.8197208	0.4834767	
1465357587437464	0.27132115	-0.14875351	-0.8190675	0.48310006	
1465357607579065	0.2749071	-0.14603086	-0.81852883	0.4828164	
1465357627751184	0.27627507	-0.14466345	-0.81899315	0.4816584	
1465357647892786	0.27620962	-0.1453967	-0.81892735	0.48158702	
1465357668003870	0.27724567	-0.14795592	-0.8172908	0.4829903	
1465357688145471	0.2802366	-0.15059961	-0.814107	0.48581582	
1465357708317590	0.28200328	-0.1519229	-0.8119332	0.48801434	
1465357728428674	0.27948684	-0.15488112	-0.8113061	0.4895726	
1465357749028040	0.27782887	-0.1569759	-0.8100447	0.4919322	
1465357768711878	0.27893266	-0.15584005	-0.8081687	0.49474618	
1465357788883997	0.27707377	-0.15235357	-0.8093553	0.49493685	
1465357808995081	0.27013195	-0.14720908	-0.81484973	0.49130246	
1465357829136682	0.26097757	-0.14184974	-0.8214327	0.4868446	
1465357849583460	0.2536204	-0.13642111	-0.82598406	0.48457846	
1465357869450403	0.24751537	-0.13278483	-0.8285946	0.48428842	
1465357891117883	0.2420567	-0.13146861	-0.82970303	0.48550737	
1465357911137415	0.2371403	-0.13136864	-0.82967633	0.48799998	
1465357931156946	0.23281427	-0.13099104	-0.8289824	0.49135223	
1465357951329065	0.2287012	-0.13005877	-0.8287472	0.49392158	
1465357971165491	0.22487722	-0.1293589	-0.828671	0.49598482	
1465357991154505	0.221629	-0.13007864	-0.82824385	0.49796817	
1465358011143518	0.21948941	-0.13181049	-0.82609123	0.5020196	
1465358031163049	0.21847646	-0.13445799	-0.82328296	0.5063539	
1465358051152063	0.21995197	-0.1372589	-0.8189671	0.5119316	
1465358071171594	0.22388457	-0.14037867	-0.812861	0.51906306	
1465358091130090	0.2283553	-0.14357659	-0.8056525	0.52741224	
1465358111119104	0.23059058	-0.14855146	-0.7987207	0.53554237	
1465358131291223	0.23063214	-0.15539517	-0.7932316	0.5417054	
1465358151860071	0.23128092	-0.1615514	-0.78701067	0.548657	
1465358171543909	0.2316857	-0.16697443	-0.78057164	0.55601186	
1465358191685510	0.2298537	-0.17318147	-0.77499115	0.56264037	
1465358211857630	0.22585845	-0.17948037	-0.76958805	0.56965697	
1465358231968714	0.21951728	-0.18571241	-0.76587445	0.5751169	
1465358252415491	0.21233504	-0.19137175	-0.7635931	0.57897866	
1465358272282434	0.20562221	-0.19658595	-0.7612699	0.5827019	
1465358292393518	0.1988518	-0.19807343	-0.76299524	0.58229125	
1465358312565637	0.19281878	-0.19317505	-0.76913154	0.57787627	
1465358332707239	0.18885732	-0.1830159	-0.7767819	0.5722307	
1465358353489710	0.1847409	-0.17324884	-0.7844682	0.56609654	
1465358372990442	0.18051898	-0.1672685	-0.7885836	0.5635336	
1465358393132044	0.17508423	-0.1649885	-0.7921	0.56098294	
1465358413273645	0.16931196	-0.16403204	-0.7942595	0.55998105	
1465358433415247	0.16466363	-0.16227557	-0.7958432	0.5596304	
1465358454045130	0.16240296	-0.15947269	-0.7967315	0.5598327	
1465358473667932	0.16013637	-0.1569192	-0.79888976	0.5581289	
1465358493840051	0.15650888	-0.15509662	-0.80138355	0.5560885	
1465358513859583	0.15117702	-0.1545836	-0.80443454	0.55329424	
1465358534092737	0.1458777	-0.15466441	-0.8062466	0.5520553	
1465358555119348	0.14235286	-0.15395653	-0.8067457	0.55244404	
1465358574406458	0.13895783	-0.15317197	-0.80765945	0.5521914	
1465358594517542	0.1356323	-0.1535287	-0.8082714	0.5520237	
1465358614659143	0.13238853	-0.15448558	-0.8091056	0.55132174	
1465358634800745	0.12893046	-0.15532841	-0.8098894	0.55075336	
1465358655247522	0.12536743	-0.15514009	-0.8121935	0.5482301	
1465358675083948	0.12298545	-0.15410498	-0.8144011	0.5457812	
1465358695225549	0.12092762	-0.15468402	-0.8153918	0.5445968	
1465358715367151	0.119647756	-0.15661474	-0.8143623	0.5458666	
1465358735508753	0.11819155	-0.15991957	-0.8119694	0.54878247	
1465358755772424	0.1165515	-0.16302258	-0.8104799	0.55041957	
1465358775791956	0.11489804	-0.16532801	-0.8089729	0.5522933	
1465358795872522	0.11267078	-0.1682769	-0.80791026	0.55341595	
1465358816105676	0.11008408	-0.17077845	-0.80708075	0.55437976	
1465358836247278	0.10928115	-0.16931249	-0.8077216	0.55405474	
1465358856358362	0.1079896	-0.16231139	-0.8104918	0.55235523	
1465358876499964	0.103670776	-0.15381868	-0.8148892	0.54913366	
1465358896672083	0.09826922	-0.14697099	-0.8194361	0.5452221	
1465358916783167	0.09506949	-0.14172786	-0.82162523	0.5438814	
1465358936863733	0.09475991	-0.13904105	-0.8206799	0.5460519	
1465358957249475	0.094890036	-0.13935299	-0.8199262	0.54708105	
1465358977207971	0.09520617	-0.14073357	-0.81785524	0.549766	
1465358997349573	0.09682054	-0.14074367	-0.815537	0.55291635	
1465359017552210	0.09962911	-0.13864425	-0.8134783	0.555972	
1465359037663294	0.102655284	-0.13535781	-0.81183213	0.5586311	
1465359057926965	0.104539394	-0.13288742	-0.81078	0.56040007	
1465359077915979	0.10250129	-0.13381168	-0.8103042	0.5612442	
1465359098088098	0.097596176	-0.13825475	-0.8079986	0.56435704	
1465359118229700	0.09294733	-0.14517479	-0.80519855	0.5673979	
1465359138340784	0.090457566	-0.1519964	-0.80083567	0.5721685	
1465359159031702	0.08841781	-0.15792587	-0.7964673	0.5769589	
1465359178654505	0.08429354	-0.16344409	-0.79394525	0.5795098	
1465359198796106	0.07792973	-0.16859238	-0.7919615	0.58163613	
1465359218907190	0.06974029	-0.1741495	-0.79294217	0.57969904	
1465359239079309	0.06427537	-0.179217	-0.79194367	0.580151	
1465359261204553	0.061950922	-0.18399471	-0.79046476	0.5809247	
1465359280949426	0.06113136	-0.18500063	-0.78995156	0.58138996	
1465359300816370	0.059182465	-0.18687993	-0.78924745	0.58194655	
1465359320835901	0.057379384	-0.18942127	-0.7875796	0.5835628	
1465359340946985	0.055060923	-0.18981858	-0.7880529	0.5830178	
1465359361119104	0.052346013	-0.18581407	-0.7915887	0.5797589	
1465359380925012	0.04992521	-0.1773094	-0.7991822	0.5721684	
1465359400914026	0.04830673	-0.16944735	-0.805476	0.565829	
1465359420903040	0.04541365	-0.16535704	-0.8089297	0.562341	
1465359440922571	0.04143687	-0.1640429	-0.81189436	0.558749	
1465359460911585	0.038107805	-0.16250125	-0.81570345	0.5538674	
1465359480900598	0.036626533	-0.15971616	-0.8180644	0.55128926	
1465359500920130	0.035571847	-0.15651578	-0.8195961	0.5499997	
1465359521061731	0.035850946	-0.15286064	-0.82073253	0.5493145	
1465359541172815	0.0355315	-0.15024684	-0.82253355	0.5473591	
1465359561772180	0.03336444	-0.1493563	-0.8245874	0.5446422	
1465359581486536	0.030419843	-0.15026838	-0.82523036	0.54358894	
1465359601628137	0.028659651	-0.15256804	-0.82432956	0.5444101	
1465359621769739	0.028234174	-0.15622942	-0.8239831	0.5439183	
1465359641880823	0.028310826	-0.16027226	-0.8228362	0.54447395	
1465359662327600	0.027691487	-0.16367385	-0.8223353	0.5442506	
1465359682194544	0.026965255	-0.16580667	-0.8215102	0.5448872	
1465359702336145	0.026160581	-0.16773023	-0.8219103	0.54373306	
1465359722447229	0.026607651	-0.16925305	-0.82197165	0.5431464	
1465359742619348	0.026953684	-0.17150222	-0.8220147	0.5423581	
1465359763401819	0.025601802	-0.1752153	-0.82269675	0.5401983	
1465359782902551	0.024812898	-0.1804089	-0.82050276	0.5418599	
1465359803044153	0.024402775	-0.1870672	-0.81802016	0.5433722	
1465359823185755	0.026218865	-0.19437234	-0.8139278	0.5468578	
1465359843327356	0.028190441	-0.20169389	-0.810145	0.549718	
1465359863957239	0.030674696	-0.20763473	-0.8062515	0.5530872	
1465359883610559	0.034332454	-0.20998763	-0.80243546	0.55751574	
1465359903630090	0.03867343	-0.20845658	-0.80206066	0.55834484	
1465359923893762	0.042752504	-0.20578118	-0.80274636	0.5580543	
1465359944004846	0.04618249	-0.20258336	-0.8040548	0.5570665	
1465359964329553	0.05016251	-0.19839434	-0.8044452	0.55766594	
1465359984318567	0.05242704	-0.19323954	-0.8069131	0.5556988	
1465360004460169	0.052353688	-0.18861209	-0.81190354	0.5499975	
1465360024601770	0.05327647	-0.18442503	-0.8155774	0.54587775	
1465360044743372	0.055067163	-0.18043879	-0.8203031	0.5399188	
1465360064884973	0.057649907	-0.17612737	-0.8263402	0.5318059	
1465360084996057	0.0613116	-0.17113534	-0.8322814	0.5236996	
1465360105137659	0.06697946	-0.1666036	-0.83567417	0.519043	
1465360125309778	0.075671524	-0.16437842	-0.8377934	0.51512694	
1465360145420862	0.09156514	-0.1631588	-0.83592975	0.5159617	
1465360165745569	0.10926221	-0.16389002	-0.83318406	0.5167264	
1465360185734583	0.12507662	-0.16633855	-0.82961935	0.51809174	
1465360205876184	0.13918674	-0.17050205	-0.82625157	0.5185214	
1465360225987268	0.15399395	-0.17356496	-0.8211778	0.52137136	
1465360246159387	0.17275588	-0.17358969	-0.814327	0.5262068	
1465360266300989	0.19415483	-0.17041615	-0.8048598	0.53428733	
1465360286412073	0.2114574	-0.16432038	-0.79987496	0.5371076	
1465360306553674	0.21865931	-0.16018051	-0.80027425	0.53487515	
1465360326725794	0.22273268	-0.15637037	-0.8003482	0.53421074	
1465360346836878	0.22926594	-0.15086001	-0.7998796	0.533733	
1465360367405725	0.23575549	-0.14402556	-0.799585	0.5332353	
1465360387120081	0.23803824	-0.1385705	-0.80206394	0.52993345	
1465360407292200	0.23833238	-0.13398077	-0.8058453	0.5252239	
1465360427403284	0.23895478	-0.13081092	-0.8073882	0.52336735	
1465360447575403	0.24207895	-0.12819998	-0.8063807	0.52413046	
1465360467991663	0.24754055	-0.122308575	-0.80348957	0.5274171	
1465360487858606	0.2529418	-0.1128431	-0.80521107	0.52433	
1465360508000208	0.2576695	-0.10072448	-0.8076164	0.5207847	
1465360528111292	0.26078203	-0.08943427	-0.81140137	0.5153854	
1465360548283411	0.2623881	-0.08009651	-0.8157482	0.5092072	
1465360569065881	0.26322675	-0.07264562	-0.8197675	0.50340396	
1465360588536096	0.26334924	-0.06652277	-0.82332003	0.49836335	
1465360608586145	0.2628509	-0.060495574	-0.8263235	0.49440783	
1465360630375696	0.2618978	-0.055151206	-0.8301824	0.48904505	
1465360650486780	0.25960645	-0.050702397	-0.8341916	0.48389888	
1465360670780969	0.25610262	-0.04762301	-0.83839893	0.47878048	
1465360690464807	0.25344744	-0.045377716	-0.8415339	0.47489578	
1465360710453821	0.2528064	-0.043526556	-0.8434495	0.47200352	
1465360730473352	0.2537545	-0.041113213	-0.8432634	0.47204363	
1465360750462366	0.25511837	-0.03954531	-0.8441056	0.4699325	
1465360770603967	0.25703007	-0.03740864	-0.8434935	0.4701647	
1465360790440393	0.2589916	-0.03555377	-0.8425937	0.4708451	
1465360810429407	0.26083922	-0.03504634	-0.8427127	0.46964872	
1465360830418421	0.26279286	-0.034465417	-0.8416124	0.4705748	
1465360850437952	0.26474357	-0.033978913	-0.8396186	0.47307175	
1465360870701624	0.26689082	-0.033316318	-0.8366837	0.47709507	
1465360890599085	0.26964867	-0.03273506	-0.83304447	0.4819283	
1465360910801721	0.27379623	-0.032244783	-0.8297238	0.4853394	
1465360930973840	0.2800865	-0.029279394	-0.82390827	0.49180222	
1465360951084924	0.28777844	-0.024602402	-0.8183622	0.49685174	
1465360971684290	0.2931067	-0.020450886	-0.81495637	0.49951613	
1465360991368128	0.29604888	-0.017579688	-0.8118031	0.5030127	
1465361011509729	0.30022967	-0.012239211	-0.8061643	0.509717	
1465361031681848	0.30734012	-0.005343955	-0.79800916	0.51835793	
1465361051792932	0.31667846	0.0043682624	-0.78627986	0.53052765	
1465361072178674	0.32454374	0.013117963	-0.7765489	0.53988063	
1465361092106653	0.3279922	0.019774567	-0.76959836	0.54749286	
1465361112248255	0.3276526	0.0238332	-0.7661627	0.5523319	
1465361132359339	0.32568333	0.027125163	-0.7636387	0.5568218	
1465361152531458	0.3238662	0.029469267	-0.7628279	0.5588702	
1465361173252893	0.32278872	0.033180192	-0.760777	0.5620719	
1465361192814661	0.32299605	0.036754385	-0.75981194	0.5630351	
1465361212925745	0.32382795	0.041597214	-0.7567248	0.56636804	
1465361233067346	0.32458183	0.044394474	-0.7566111	0.5658758	
1465361253239465	0.32489282	0.047400236	-0.7551364	0.56742126	
1465361273808313	0.32452175	0.04797924	-0.7563055	0.56602615	
1465361293522669	0.32421142	0.048350923	-0.75654227	0.565856	
1465361313664270	0.32476822	0.048114534	-0.7554591	0.5670028	
1465361333805872	0.32607973	0.048148617	-0.7516997	0.57122785	
1465361353947473	0.32639018	0.04732301	-0.74770206	0.5763433	
1465361374882532	0.32493424	0.043892268	-0.74677926	0.5786294	
1465361394200159	0.32211235	0.039783902	-0.74657315	0.5807662	
1465361414341760	0.31916165	0.03645482	-0.7450072	0.58461195	
1465361434513880	0.31682774	0.033549182	-0.74299824	0.58859855	
1465361454624964	0.31618813	0.031940565	-0.73997813	0.5928214	
1465361475132776	0.31554523	0.03136601	-0.73634	0.59770465	
1465361494908167	0.31393903	0.031510226	-0.7336115	0.6018833	
1465361515080286	0.31208673	0.032422654	-0.732148	0.6045742	
1465361535191370	0.31134778	0.03440573	-0.72987247	0.6075895	
1465361555332971	0.3112008	0.037579704	-0.72721666	0.6106535	
1465361575657678	0.30848268	0.041231625	-0.7262446	0.61294955	
1465361595646692	0.30300218	0.04303406	-0.7316435	0.60912687	
1465361615757776	0.29650313	0.045074705	-0.73788065	0.6046373	
1465361635929895	0.29313132	0.048176236	-0.7427094	0.60011315	
1465361656040979	0.29454133	0.052222278	-0.74355346	0.5980355	
1465361676182581	0.29837164	0.05506803	-0.7435266	0.5959112	
1465361696354700	0.3024818	0.057629533	-0.741095	0.5966253	
1465361716496301	0.30624226	0.05942319	-0.7393701	0.5966711	
1465361736637903	0.31038588	0.061336186	-0.7384286	0.59550124	
1465361756779505	0.31441352	0.06320295	-0.73863715	0.5929289	
1465361777317835	0.31805295	0.064658	-0.73975366	0.5894287	
1465361797062708	0.32011002	0.065153114	-0.7410705	0.58659965	
1465361817173792	0.32130468	0.06400191	-0.7444618	0.58175915	
1465361837345911	0.32215837	0.062415715	-0.746934	0.5782801	
1465361857456995	0.32332966	0.06028556	-0.7499302	0.57395846	
1465361877781702	0.32515523	0.05854092	-0.7517973	0.5706556	
1465361897740198	0.32726923	0.057278335	-0.75268835	0.5683963	
1465361917881799	0.32942876	0.05559482	-0.75395536	0.5656299	
1465361938053919	0.33148068	0.05413738	-0.75481576	0.5634207	
1465361958165003	0.33335474	0.051531825	-0.75713974	0.55942696	
1465361978825403	0.33542055	0.05005448	-0.75780654	0.5574198	
1465362000065637	0.34084982	0.05021183	-0.75584406	0.5567764	
1465362020146204	0.3432099	0.050718904	-0.7562648	0.55470544	
1465362040257288	0.34424943	0.050370682	-0.7584803	0.5510561	
1465362060246301	0.34353375	0.050318953	-0.75967145	0.5498653	
1465362080571008	0.3417817	0.05127449	-0.75957054	0.5510071	
1465362100224329	0.34226936	0.054763526	-0.75820315	0.55225044	
1465362120213342	0.34424505	0.06192444	-0.75553405	0.55392146	
1465362140202356	0.34120747	0.06738421	-0.7549183	0.5559993	
1465362160221887	0.3333364	0.06838748	-0.7573522	0.5573398	
1465362180394006	0.32417423	0.06818759	-0.75806606	0.5617806	
1465362200199915	0.31680834	0.06814332	-0.7565428	0.568007	
1465362220188928	0.31166404	0.0687505	-0.7525925	0.5759717	
1465362240208460	0.30809537	0.07016422	-0.7469945	0.5849388	
1465362260319544	0.30552325	0.07142964	-0.74169916	0.5928201	
1465362280613733	0.30372757	0.07267045	-0.73629105	0.60028666	
1465362300602747	0.3022837	0.07408588	-0.73097897	0.60729367	
1465362320713831	0.3003505	0.07402543	-0.7280539	0.6117576	
1465362340885950	0.29813135	0.07333848	-0.7256716	0.6157434	
1465362360997034	0.29587817	0.071840554	-0.7232895	0.6197962	
1465362381687952	0.29433465	0.06955038	-0.7204207	0.62411845	
1465362401280237	0.2936444	0.06694006	-0.7148204	0.63112897	
1465362421452356	0.29375252	0.06460191	-0.7092047	0.6376243	
1465362441593958	0.29642192	0.06502849	-0.70203966	0.6442404	
1465362461705042	0.2967199	0.063002065	-0.6960797	0.65073895	
1465362482151819	0.2922088	0.05616919	-0.69320184	0.6564528	
1465362502018762	0.28676614	0.047007125	-0.6891954	0.6637509	
1465362522160364	0.2832825	0.039174974	-0.68197256	0.6731491	
1465362542301965	0.2805922	0.031566866	-0.6747538	0.6818936	
1465362562321497	0.27751663	0.022436203	-0.6698116	0.6883557	
1465362583226038	0.27357587	0.0138704395	-0.66446674	0.69530416	
1465362602696253	0.26877546	0.0048244507	-0.6602111	0.7013258	
1465362622837854	0.2645302	-0.0035130403	-0.65372646	0.7089803	
1465362643009973	0.26163128	-0.01100556	-0.6481298	0.71509135	
1465362663121057	0.25953832	-0.017445832	-0.6456425	0.7179702	
1465362683781458	0.25653106	-0.020425918	-0.6453039	0.71927565	
1465362703312708	0.2518265	-0.022230139	-0.64772415	0.71870905	
1465362723549836	0.24582274	-0.024727512	-0.65319824	0.7157456	
1465362743721955	0.2400605	-0.027197221	-0.6568363	0.714281	
1465362763833039	0.234968	-0.030139796	-0.6602302	0.7127255	
1465362784157746	0.23006731	-0.033594705	-0.6650419	0.7096898	
1465362804146760	0.22579192	-0.03559529	-0.6703206	0.7059896	
1465362824257844	0.22254837	-0.035111982	-0.67409515	0.70344514	
1465362844338410	0.21914771	-0.034498606	-0.6794739	0.6993564	
1465362864541047	0.21538946	-0.034849573	-0.68322915	0.6968435	
1465362884682648	0.21147303	-0.037095815	-0.6849786	0.6962093	
1465362904854768	0.20777786	-0.041316796	-0.68689984	0.6951905	
1465362924996369	0.20469421	-0.045897685	-0.68822455	0.6945075	
1465362945107453	0.20269965	-0.049790803	-0.68756235	0.6954795	
1465362965279572	0.2012105	-0.052845046	-0.68694955	0.6962916	
1465362985573762	0.1988883	-0.056101117	-0.6868188	0.6968329	
1465363005532258	0.19283809	-0.0591788	-0.6890618	0.69606405	
1465363025673859	0.18600887	-0.061170466	-0.695169	0.6916639	
1465363045845979	0.18247691	-0.062014878	-0.69876575	0.68889964	
1465363065957063	0.18358153	-0.06287313	-0.69984996	0.6874262	
1465363086098664	0.18652338	-0.06465652	-0.69701934	0.6893422	
1465363106270783	0.18925358	-0.06756766	-0.69483346	0.6905245	
1465363126412385	0.19160663	-0.070275985	-0.6928495	0.691598	
1465363146523469	0.19489166	-0.0719495	-0.69075835	0.692599	
1465363166695588	0.19883142	-0.07191674	-0.68934274	0.6928929	
1465363187264436	0.20134969	-0.06962483	-0.6893518	0.6923906	
1465363206948273	0.20042497	-0.065987945	-0.69372517	0.6886369	
1465363227089875	0.19773601	-0.060192186	-0.70010364	0.6834707	
1465363247261994	0.19426586	-0.05536724	-0.7058297	0.67896956	
1465363267373078	0.1913169	-0.05134337	-0.70787686	0.6779912	
1465363287819855	0.18943371	-0.048225556	-0.707782	0.67884743	
1465363307686799	0.18861184	-0.045696378	-0.7068247	0.6802472	
1465363327797883	0.18874489	-0.0410883	-0.7064514	0.6808917	
1465363347970002	0.18843609	-0.034342796	-0.7066227	0.681173	
1465363369698518	0.18602021	-0.028992984	-0.7102104	0.6783488	
1465363390542023	0.18166673	-0.026267912	-0.7135171	0.676166	
1465363409890168	0.17601436	-0.026956119	-0.7173903	0.67353064	
1465363429879182	0.17096785	-0.028897136	-0.71788985	0.67421746	
1465363449868195	0.16714296	-0.032115813	-0.716754	0.6762363	
1465363469887727	0.16482432	-0.036837786	-0.7133292	0.6801745	
1465363489907258	0.16381523	-0.04341671	-0.70729405	0.6863051	
1465363509865754	0.16335955	-0.051179513	-0.70257944	0.6907072	
1465363529885285	0.16444908	-0.05747757	-0.6968918	0.69569725	
1465363549874299	0.1651068	-0.062068798	-0.69274175	0.6992825	
1465363569893830	0.16417105	-0.06608016	-0.6894805	0.7023517	
1465363590035432	0.1619789	-0.07182416	-0.6871119	0.70461434	
1465363609841340	0.1588383	-0.07999923	-0.682864	0.7085671	
1465363629952424	0.15603398	-0.08860045	-0.6775205	0.7132807	
1465363650063508	0.1542589	-0.09602557	-0.67297477	0.7169995	
1465363670235627	0.15317063	-0.101326406	-0.6701074	0.7191855	
1465363690529816	0.15278693	-0.10363196	-0.6688891	0.7200722	
1465363710518830	0.15172324	-0.1062925	-0.66745865	0.7212357	
1465363730629914	0.14931558	-0.10975598	-0.6646763	0.7237844	
1465363750802033	0.14262953	-0.11081264	-0.66711867	0.722724	
1465363770913117	0.13276313	-0.107271686	-0.6764467	0.71644026	
1465363791481965	0.12283462	-0.10146542	-0.688538	0.7074827	
1465363811226838	0.11431186	-0.098371685	-0.69901067	0.69902784	
1465363831337922	0.10727239	-0.09855016	-0.7056904	0.6933842	
1465363851510041	0.1013159	-0.100041255	-0.70896274	0.6907233	
1465363871651643	0.09617293	-0.10159569	-0.7137294	0.68630856	
1465363892067902	0.091153026	-0.10142773	-0.72046745	0.6799487	
1465363911934846	0.08603422	-0.099838175	-0.7289221	0.6717909	
1465363932076447	0.08127563	-0.097988345	-0.73733294	0.66342497	
1465363952218049	0.07825685	-0.096041605	-0.7453124	0.65510404	
1465363972359650	0.077842295	-0.095362216	-0.751148	0.6485548	
1465363993142121	0.078576975	-0.09664099	-0.7547399	0.64409155	
1465364012642854	0.079091184	-0.09881051	-0.7565409	0.6415816	
1465364032753938	0.07683967	-0.099415906	-0.7624748	0.63470024	
1465364052926057	0.0707919	-0.09972812	-0.7698158	0.6264395	
1465364073037141	0.066199094	-0.1020363	-0.7762507	0.6185799	
1465364093697541	0.06556079	-0.1047754	-0.78064626	0.61262983	
1465364113350861	0.06735657	-0.108089305	-0.7816893	0.61052567	
1465364133492463	0.06841283	-0.111838765	-0.78566426	0.6046019	
1465364153603547	0.070887856	-0.11480597	-0.7868789	0.6021762	
1465364173775666	0.074732654	-0.11862647	-0.7865301	0.601426	
1465364194771760	0.08021822	-0.12284805	-0.7851033	0.601736	
1465364214028352	0.08670033	-0.12452679	-0.78344077	0.602658	
1465364234169953	0.091008656	-0.1261948	-0.7823179	0.60313433	
1465364254342072	0.09298708	-0.12853725	-0.78220963	0.60247797	
1465364274453156	0.09401544	-0.13000254	-0.78150046	0.6029241	
1465364294503205	0.0952027	-0.12897198	-0.7815544	0.6028892	
1465364314766877	0.09758855	-0.12510084	-0.78178203	0.6030283	
1465364334908479	0.097863734	-0.117013976	-0.78474426	0.6007552	
1465364355019563	0.09073968	-0.110593654	-0.78862387	0.5980031	
1465364375191682	0.07955601	-0.10755404	-0.79223233	0.5953746	
1465364395485871	0.06905782	-0.10493269	-0.79538405	0.5929455	
1465364415444367	0.06081851	-0.103113204	-0.796701	0.59239876	
1465364435585969	0.055744942	-0.10081464	-0.7964148	0.59367704	
1465364455727570	0.053046044	-0.097823955	-0.7950443	0.59625596	
1465364475899689	0.051756263	-0.09415433	-0.7935671	0.5989219	
1465364496010773	0.050351128	-0.09098453	-0.7928737	0.6004481	
1465364516152375	0.04963823	-0.08847379	-0.7927637	0.6010276	
1465364536324494	0.0481346	-0.08751008	-0.7923732	0.6018054	
1465364556466096	0.045849163	-0.088681415	-0.79231995	0.60188246	
1465364576577180	0.04435493	-0.090649515	-0.79097444	0.6034689	
1465364596901887	0.043614786	-0.09255257	-0.7889362	0.60589725	
1465364616890900	0.04470521	-0.093928635	-0.786205	0.60914737	
1465364637032502	0.046132375	-0.09433285	-0.78332955	0.61267275	
1465364657174104	0.044085905	-0.09685084	-0.7811909	0.61515623	
1465364677193635	0.040923942	-0.099713765	-0.7799555	0.6164834	
1465364697579377	0.04115129	-0.1017363	-0.7760221	0.6210846	
1465364717568391	0.04123056	-0.104634374	-0.7715456	0.62615424	
1465364737740510	0.03504443	-0.10609207	-0.772022	0.6256983	
1465364759438508	0.01404347	-0.103134856	-0.7827628	0.6135538	
1465364779549592	0.0045560203	-0.100210056	-0.78610694	0.60989594	
1465364800332063	-0.0018049157	-0.09612445	-0.78863436	0.6072995	
1465364819527619	-0.008166736	-0.092335805	-0.7911798	0.60451794	
1465364839516633	-0.0151356235	-0.08858202	-0.7947845	0.6002014	
1465364859505646	-0.022180228	-0.083472975	-0.7984887	0.5957819	
1465364879525178	-0.030154504	-0.07679136	-0.8028288	0.5904741	
1465364899514191	-0.037757143	-0.07012678	-0.8072324	0.5848354	
1465364919503205	-0.04414598	-0.06461105	-0.8099568	0.5812457	
1465364939522736	-0.049780466	-0.060191173	-0.8118802	0.57857543	
1465364959481232	-0.05416721	-0.057457186	-0.81417346	0.5752271	
1465364979470246	-0.056884326	-0.055692583	-0.8169733	0.5711542	
1465364999764436	-0.0583016	-0.053688508	-0.8198144	0.567118	
1465365019692414	-0.058420748	-0.051144946	-0.8214173	0.5650176	
1465365039864533	-0.05869958	-0.048469927	-0.82438695	0.56088424	
1465365059975617	-0.060661115	-0.047500763	-0.8263672	0.5578361	
1465365080117219	-0.062888965	-0.04828869	-0.8279233	0.5552082	
1465365100289338	-0.063663684	-0.049423624	-0.83000946	0.5518954	
1465365120430939	-0.06359025	-0.051211298	-0.8318276	0.5489959	
1465365140542023	-0.06409883	-0.05370388	-0.83251816	0.5476502	
1465365160714143	-0.064724065	-0.056798175	-0.8331546	0.5462949	
1465365180825227	-0.064313285	-0.060461447	-0.8328154	0.5464674	
1465365201394074	-0.06311789	-0.06355845	-0.8328036	0.5462734	
1465365221108430	-0.061235666	-0.065919735	-0.83068305	0.54942733	
1465365241280549	-0.060775705	-0.06647887	-0.8309778	0.5489652	
1465365261422150	-0.059835274	-0.06680475	-0.83062565	0.5495615	
1465365281563752	-0.06077276	-0.06887289	-0.8296861	0.5506216	
1465365301949494	-0.059093636	-0.07190291	-0.826794	0.5547518	
1465365321816438	-0.05518951	-0.073736645	-0.82384366	0.5592841	
1465365341958039	-0.052963078	-0.074515104	-0.82036173	0.56449	
1465365362130158	-0.054238938	-0.07668003	-0.818771	0.5663853	
1465365382241242	-0.05568535	-0.07928594	-0.81680596	0.5687187	
1465365403054230	-0.05570067	-0.080506876	-0.8129137	0.574097	
1465365422554963	-0.057138994	-0.08070737	-0.81018335	0.57777536	
1465365442666047	-0.060103346	-0.08082495	-0.80813384	0.58032286	
1465365462838166	-0.06331453	-0.080625996	-0.8060847	0.58285344	
1465365482979768	-0.0655961	-0.0806162	-0.80294985	0.58691543	
1465365503579133	-0.06637853	-0.080779776	-0.79970586	0.5912183	
1465365523232453	-0.06617009	-0.081546254	-0.7956057	0.5966433	
1465365543374055	-0.0654294	-0.0830313	-0.7924415	0.6007173	
1465365563546174	-0.06349628	-0.08498057	-0.7894458	0.60458404	
1465365583657258	-0.060250815	-0.08682118	-0.7861617	0.6089184	
1465365604683869	-0.056736235	-0.08835212	-0.7824797	0.6137592	
1465365623940461	-0.053214356	-0.08971837	-0.7789463	0.6183539	
1465365644112580	-0.04980112	-0.09251083	-0.77669317	0.621055	
1465365664223664	-0.044975158	-0.09635413	-0.7726254	0.6258939	
1465365684395783	-0.039043758	-0.100023426	-0.7681073	0.6312543	
1465365704415314	-0.036416758	-0.10565053	-0.7640637	0.63538843	
1465365764931672	-0.03871452	-0.12756458	-0.74619484	0.6522436	
1465365764931672	-0.03871452	-0.12756458	-0.74619484	0.6522436	
1465365764931672	-0.03871452	-0.12756458	-0.74619484	0.6522436	
1465365785073273	-0.040014673	-0.13451356	-0.74028707	0.65748	
1465365805367463	-0.041841682	-0.13994941	-0.734447	0.6627602	
1465365825386994	-0.04490524	-0.14596103	-0.7292151	0.6670264	
1465365845528596	-0.048890874	-0.15308501	-0.7228354	0.67207414	
1465365865639680	-0.052979633	-0.16086599	-0.71497923	0.6783214	
1465365885781281	-0.056411203	-0.16840406	-0.70666915	0.68489164	
1465365905922883	-0.057964318	-0.1749119	-0.6983569	0.69162387	
1465365926064484	-0.06023215	-0.17954578	-0.69371635	0.69490504	
1465365946206086	-0.06434627	-0.1844372	-0.68979394	0.69715625	
1465365966286652	-0.06822608	-0.1882467	-0.68537337	0.70012265	
1465365986519807	-0.069690496	-0.18770006	-0.6828963	0.7025415	
1465366006783479	-0.07080083	-0.1842494	-0.68244684	0.7037796	
1465366026803010	-0.07379811	-0.18098205	-0.6836902	0.7031124	
1465366046914094	-0.07736386	-0.17911942	-0.6844039	0.7025115	
1465366067055695	-0.0802807	-0.17968388	-0.68282825	0.7035725	
1465366087197297	-0.08248068	-0.18036607	-0.68244267	0.7035176	
1465366107338898	-0.081087455	-0.18008028	-0.67932343	0.70676416	
1465366129006379	-0.08164917	-0.17776304	-0.68000215	0.70663345	
1465366149209016	-0.08247174	-0.17688395	-0.67868817	0.7080204	
1465366169198029	-0.08251463	-0.17559765	-0.6787531	0.7082733	
1465366189187043	-0.081053816	-0.17426683	-0.678413	0.709096	
1465366209664338	-0.07878781	-0.17293972	-0.67750186	0.71054596	
1465366229165070	-0.078042015	-0.17199214	-0.6773925	0.7109624	
1465366249184602	-0.07849572	-0.17189912	-0.6756375	0.7126031	
1465366269143098	-0.07832874	-0.17119485	-0.67495006	0.71344185	
1465366289132111	-0.076160125	-0.16906294	-0.67639214	0.71281904	
1465366309151643	-0.07121606	-0.16747698	-0.67423755	0.7157398	
1465366329140656	-0.06403008	-0.16686194	-0.67145795	0.7191672	
1465366349038117	-0.056052346	-0.16306032	-0.6691225	0.72287244	
1465366369179719	-0.053108364	-0.16110931	-0.6681096	0.7244673	
1465366389351838	-0.05067256	-0.16156593	-0.6650877	0.72731495	
1465366409676545	-0.04452248	-0.1619823	-0.65978175	0.7324394	
1465366429635041	-0.03638581	-0.15740828	-0.65638715	0.7369224	
1465366449776643	-0.03042264	-0.1532592	-0.65407	0.7401206	
1465366469887727	-0.02581989	-0.15050127	-0.6515268	0.7430986	
1465366490059846	-0.018861553	-0.14721754	-0.64776707	0.74724096	
1465366510201447	-0.01025217	-0.1430887	-0.64317906	0.7521577	
1465366530312531	-0.0024667047	-0.1381495	-0.63936406	0.7563876	
1465366550454133	0.0039121066	-0.13212138	-0.63642645	0.75992763	
1465366570626252	0.009053614	-0.12516834	-0.6355743	0.7617718	
1465366590737336	0.012501403	-0.11929148	-0.636982	0.76149005	
1465366611336701	0.015277868	-0.11550293	-0.6368187	0.7621598	
1465366631020539	0.01827871	-0.11245502	-0.63555974	0.7635991	
1465366651192658	0.020932978	-0.10980021	-0.6373442	0.7624291	
1465366671303742	0.024055604	-0.107858874	-0.6353533	0.76427346	
1465366691445344	0.027550777	-0.10638455	-0.63471824	0.76488954	
1465366711861604	0.030717699	-0.10597439	-0.633428	0.76589483	
1465366731728547	0.032141726	-0.10784946	-0.6329473	0.765972	
1465366751870148	0.033883862	-0.11105557	-0.62974805	0.76807284	
1465366772042268	0.03728651	-0.11455221	-0.6267913	0.7698183	
1465366792153352	0.04095468	-0.11839327	-0.62026876	0.77432066	
1465366812966340	0.04293347	-0.12209547	-0.61676323	0.7764358	
1465366832467072	0.043796446	-0.12586269	-0.6129647	0.77879053	
1465366852608674	0.044394553	-0.12977189	-0.61015445	0.7803204	
1465366872719758	0.04498963	-0.13303187	-0.607559	0.78176117	
1465366892891877	0.04589218	-0.13548584	-0.6052239	0.7830974	
1465366913491242	0.046716996	-0.13824439	-0.6037193	0.78372765	
1465366933144563	0.046859197	-0.14130329	-0.60327256	0.7835176	
1465366953286164	0.047757365	-0.14384392	-0.6017025	0.78420806	
1465366973458283	0.049534637	-0.14467527	-0.6017192	0.78393203	
1465366993569367	0.05088189	-0.1432902	-0.6035249	0.782711	
1465367014595979	0.05083824	-0.14012042	-0.6081904	0.77967054	
1465367033852570	0.04936641	-0.13538636	-0.61348	0.77645075	
1465367053994172	0.045749575	-0.13037069	-0.6202018	0.7721788	
1465367074166291	0.041305248	-0.12610146	-0.62678	0.7678145	
1465367094277375	0.03628298	-0.12399035	-0.63353074	0.76285565	
1465367114327424	0.031711046	-0.12381052	-0.63620746	0.76085836	
1465367134591096	0.027811516	-0.12414284	-0.64133435	0.7566408	
1465367154702180	0.02571862	-0.12295299	-0.64647704	0.75252146	
1465367174843781	0.024594797	-0.12085631	-0.65164346	0.74843144	
1465367195015900	0.024344947	-0.11817726	-0.6561822	0.7448935	
1465367215310090	0.0234307	-0.11596852	-0.66212773	0.7399927	
1465367235268586	0.021848988	-0.11551295	-0.66593814	0.7366857	
1465367255410188	0.019993193	-0.11684261	-0.66935945	0.7334208	
1465367275582307	0.019273676	-0.11876863	-0.673152	0.72964984	
1465367295723908	0.02043483	-0.12086251	-0.6759248	0.72670513	
1465367315865510	0.021935891	-0.12280907	-0.67786807	0.7245217	
1465367335976594	0.022556156	-0.12451122	-0.67972994	0.7224648	
1465367356118195	0.022051655	-0.12560807	-0.6835155	0.71870923	
1465367376290314	0.022492575	-0.12585385	-0.6857681	0.71650326	
1465367396401398	0.025079142	-0.12518865	-0.68849516	0.71391404	
1465367417000764	0.029154263	-0.1245336	-0.6913214	0.71113724	
1465367436715119	0.03355192	-0.12451741	-0.69166094	0.7106158	
1465367456856721	0.03684492	-0.12434935	-0.69265527	0.70951277	
1465367476998322	0.038464274	-0.12338541	-0.6957747	0.7065367	
1465367498665803	0.04356777	-0.11958394	-0.69560194	0.707064	
1465367519204133	0.046401925	-0.11725916	-0.694317	0.7085344	
1465367538857453	0.047759913	-0.11421181	-0.6925184	0.71069884	
1465367558846467	0.04681676	-0.111899756	-0.6928295	0.7108262	
1465367578835480	0.046002556	-0.109774314	-0.6926339	0.71140116	
1465367598824494	0.045276485	-0.10714617	-0.692399	0.7120767	
1465367618844025	0.043874126	-0.1049887	-0.6924457	0.7124405	
1465367638710969	0.04243013	-0.104084976	-0.6933187	0.7118112	
1465367658761018	0.042472433	-0.103409655	-0.6935602	0.7116718	
1465367678811066	0.043948226	-0.1018396	-0.6928212	0.71252793	
1465367698800080	0.04730173	-0.09867371	-0.6943013	0.7113169	
1465367718789094	0.05402001	-0.09413292	-0.69573396	0.7100529	
1465367738808625	0.062013548	-0.08968336	-0.6957887	0.7099221	
1465367758980744	0.06660836	-0.088069774	-0.6968314	0.708684	
1465367779122346	0.067706466	-0.088819355	-0.6969346	0.7083849	
1465367799233430	0.06706648	-0.091338865	-0.6978274	0.7072455	
1465367819802277	0.06818503	-0.094028346	-0.69817144	0.7064461	
1465367839516633	0.07270197	-0.095753185	-0.6958868	0.7080165	
1465367859658234	0.07757955	-0.097471595	-0.69578016	0.70736885	
1465367879830354	0.07997475	-0.0995741	-0.69609964	0.7064944	
1465367899941438	0.079982035	-0.10232083	-0.6964976	0.70570844	
1465367920357697	0.07942131	-0.10560895	-0.6961034	0.7056763	
1465367940255158	0.07893691	-0.10801714	-0.69737357	0.7041103	
1465367960366242	0.07859706	-0.10959176	-0.69905007	0.7022401	
1465367980538361	0.07886891	-0.11105703	-0.69983715	0.70119464	
1465368000649445	0.07915754	-0.11228603	-0.7013599	0.69944274	
1465368021462434	0.07836723	-0.11063938	-0.70646095	0.6946441	
1465368040932648	0.07653172	-0.105543055	-0.7152466	0.68660456	
1465368061104768	0.0741886	-0.097720295	-0.72605795	0.6765994	
1465368081215852	0.07217396	-0.090331264	-0.73630625	0.6666965	
1465368101387971	0.070482776	-0.08561768	-0.74425584	0.65862364	
1465368121987336	0.06809549	-0.0847238	-0.7509236	0.65138215	
1465368141671174	0.06536344	-0.08578952	-0.7561313	0.64547133	
1465368161782258	0.06302091	-0.08669464	-0.7595114	0.6416033	
1465368181954377	0.062287375	-0.08647586	-0.7635222	0.636927	
1465368202065461	0.06221174	-0.08633876	-0.76664186	0.63319474	
1465368223092072	0.06166001	-0.08693695	-0.7695725	0.6296016	
1465368242348664	0.060390238	-0.08806209	-0.7719143	0.6266948	
1465368262490266	0.05904516	-0.09006484	-0.7733822	0.6247255	
1465368282662385	0.060256142	-0.09201562	-0.7729284	0.62488717	
1465368302773469	0.06449028	-0.09399894	-0.77036154	0.62733424	
1465368322823518	0.06967124	-0.096747406	-0.76608694	0.6315827	
1465368343087189	0.072543725	-0.10100066	-0.76288813	0.6344588	
1465368363198273	0.07219172	-0.10523401	-0.7607245	0.6364058	
1465368383370393	0.06988552	-0.10961158	-0.75983584	0.6369858	
1465368403511994	0.067586415	-0.11395709	-0.75932246	0.6370834	
1465368423775666	0.06591735	-0.11776708	-0.7597721	0.6360284	
1465368443764680	0.065039285	-0.12122004	-0.75849617	0.6369923	
1465368463936799	0.06444318	-0.12416257	-0.7575599	0.63759995	
1465368484078400	0.06428463	-0.12614039	-0.7555379	0.63962376	
1465368504220002	0.06384071	-0.12705272	-0.75527686	0.6397959	
1465368524331086	0.062645055	-0.1279253	-0.7562331	0.6386096	
1465368544472688	0.061899994	-0.12855014	-0.7554029	0.63953865	
1465368564644807	0.061348442	-0.12858386	-0.7563725	0.63843805	
1465368584755891	0.06161915	-0.12599218	-0.7564746	0.63880765	
1465368604928010	0.05923713	-0.12022497	-0.76003504	0.6359117	
1465368625466340	0.05343246	-0.11284036	-0.765809	0.6308317	
1465368645211213	0.046037387	-0.10599966	-0.7718169	0.6252546	
1465368665322297	0.040006187	-0.1008247	-0.7762657	0.6210036	
1465368685494416	0.03632109	-0.09775727	-0.77712405	0.62064683	
1465368705605500	0.035020705	-0.09591836	-0.7761864	0.62218	
1465368726021760	0.036726177	-0.09427996	-0.77261406	0.6267615	
1465368745919221	0.039127667	-0.09282089	-0.77005863	0.6299706	
1465368766060822	0.039706193	-0.09232544	-0.7666134	0.63419497	
1465368786202424	0.038029857	-0.09314314	-0.7633102	0.63815016	
1465368806344025	0.035488762	-0.095326796	-0.76236105	0.639108	
1465368827126496	0.03415217	-0.09895884	-0.75724727	0.6446839	
1465368846627229	0.032698944	-0.10399373	-0.7538422	0.6479491	
1465368868325227	0.032013662	-0.11000983	-0.746907	0.6549831	
1465368888497346	0.03174987	-0.11689111	-0.74143857	0.65999794	
1465368908364289	0.031943638	-0.12401922	-0.7347239	0.66616786	
1465368928811066	0.030924007	-0.1298319	-0.72920585	0.6711529	
1465368948494904	0.027053833	-0.13524619	-0.72558475	0.67416865	
1465368968483918	0.02283004	-0.1411877	-0.7222118	0.6767237	
1465368988472932	0.020586899	-0.1448152	-0.71892816	0.6795197	
1465369008492463	0.018805755	-0.15168686	-0.7114063	0.6859581	
1465369028664582	0.014389394	-0.15987249	-0.7075425	0.6881986	
1465369048501008	0.010509481	-0.16300015	-0.70737505	0.6877071	
1465369068459504	0.0072449627	-0.1661012	-0.70706475	0.68732625	
1465369088418000	0.006507214	-0.1700368	-0.7053121	0.68817157	
1465369108468049	0.013773747	-0.16890536	-0.7022091	0.69150823	
1465369128792756	0.02268283	-0.15982026	-0.7044839	0.69111896	
1465369148720734	0.026940815	-0.14500436	-0.7121424	0.68636805	
1465369168892854	0.024649076	-0.13340394	-0.72112006	0.679398	
1465369189003938	0.018950207	-0.1277556	-0.729687	0.6714732	
1465369209176057	0.012738868	-0.12728292	-0.73694825	0.663735	
1465369229866975	0.009081547	-0.13116664	-0.7410869	0.6584095	
1465369249428742	0.009542932	-0.13335277	-0.74319607	0.65558034	
1465369269570344	0.012650614	-0.1324707	-0.7465153	0.6519252	
1465369289742463	0.017372815	-0.12948567	-0.75029	0.64807147	
1465369309884064	0.018609034	-0.12963457	-0.75444794	0.6431616	
1465369330361359	0.014394291	-0.13616045	-0.7579801	0.6377455	
1465369350136750	0.009898716	-0.1447233	-0.7601245	0.6333782	
1465369370278352	0.009664352	-0.14948195	-0.7605146	0.6318064	
1465369390450471	0.008718642	-0.15362488	-0.76210827	0.62889934	
1465369410561555	0.0063827853	-0.15917161	-0.7639819	0.6252642	
1465369431435578	0.0069012837	-0.1659289	-0.7614308	0.62661237	
1465369450844758	0.01053223	-0.17329797	-0.75784504	0.62891	
1465369471016877	0.015359941	-0.17996399	-0.75283873	0.63293827	
1465369491127961	0.017180568	-0.18314119	-0.7530917	0.6316779	
1465369511269563	0.015829375	-0.18512936	-0.755609	0.62811756	
1465369531990998	0.015370948	-0.18894427	-0.75316024	0.62993133	
1465369551552766	0.015711185	-0.19387326	-0.7504257	0.63168633	
1465369571724885	0.017167924	-0.19876374	-0.7465021	0.6347699	
1465369591866486	0.018726178	-0.20318824	-0.74301755	0.6374079	
1465369611977570	0.021004172	-0.2053455	-0.7417778	0.6380892	
1465369632332795	0.022192057	-0.20562069	-0.742003	0.63769835	
1465369652260773	0.022946753	-0.20499799	-0.74407184	0.6354576	
1465369672432893	0.024789918	-0.20386179	-0.7452726	0.6343458	
1465369692543977	0.02795281	-0.20094547	-0.7472491	0.63281775	
1465369712716096	0.029952714	-0.19652478	-0.7504416	0.6303318	
1465369732857697	0.0289882	-0.19092551	-0.75488406	0.6267832	
1465369752968781	0.026355755	-0.18485321	-0.759676	0.6229182	
1465369773110383	0.024233079	-0.17874359	-0.766114	0.6168734	
1465369793282502	0.02644478	-0.1730365	-0.76844513	0.6155088	
1465369813424104	0.030581484	-0.16826181	-0.7702871	0.61433744	
1465369833687775	0.035137586	-0.16538496	-0.76899576	0.616489	
1465369853676789	0.038819026	-0.16484584	-0.76767355	0.6180585	
1465369873848908	0.042532194	-0.16547754	-0.76358503	0.62269264	
1465369893990510	0.045446232	-0.16707054	-0.758357	0.62842405	
1465369914132111	0.04584798	-0.16989303	-0.7541956	0.6326321	
1465369934243195	0.04441435	-0.1738202	-0.74929905	0.6374675	
1465369954384797	0.04189388	-0.17867297	-0.7451199	0.6411842	
1465369974526398	0.03995523	-0.18343088	-0.73960024	0.6463344	
1465369994698518	0.038789485	-0.18787424	-0.73352075	0.6520322	
1465370014809602	0.036842547	-0.19248217	-0.7291855	0.65565366	
1465370035408967	0.034397636	-0.1965161	-0.7238457	0.6604889	
1465370055123322	0.030354626	-0.19947694	-0.72172844	0.6621145	
1465370075264924	0.025412632	-0.20275931	-0.7213595	0.66172755	
1465370095406525	0.020632006	-0.20654286	-0.7197708	0.6624533	
1465370115548127	0.016154312	-0.20989232	-0.71931106	0.6620241	
1465370135964387	0.012155389	-0.21219645	-0.71814054	0.6626455	
1465370155800813	0.007301611	-0.21116373	-0.720155	0.66085804	
1465370175972932	0.002387242	-0.20799264	-0.72381246	0.65789735	
1465370196114533	-0.0033196874	-0.2069118	-0.7269458	0.6547719	
1465370216225617	-0.009713141	-0.20753825	-0.7291865	0.65201277	
1465370238686555	-0.022914859	-0.2016415	-0.73930204	0.64206547	
1465370258034699	-0.027573662	-0.19407868	-0.7448274	0.6378129	
1465370278145783	-0.03169117	-0.18772924	-0.7499072	0.63355553	
1465370298134797	-0.034626603	-0.18316305	-0.7534698	0.6305042	
1465370318154328	-0.034703694	-0.17862676	-0.7558197	0.6289871	
1465370338143342	-0.033248205	-0.17418067	-0.7569489	0.6289547	
1465370358132355	-0.032176852	-0.17089705	-0.75743717	0.62932324	
1465370378151887	-0.03281765	-0.16717145	-0.7585212	0.62898517	
1465370398140900	-0.03528902	-0.16512892	-0.76008326	0.62750345	
1465370418129914	-0.03751137	-0.16522346	-0.75962234	0.62790763	
1465370438271516	-0.036804203	-0.1672929	-0.7567045	0.63091743	
1465370458107941	-0.03563634	-0.17048778	-0.75295866	0.6346001	
1465370478096955	-0.032939795	-0.1780758	-0.7466575	0.64008325	
1465370498238557	-0.030849248	-0.18472968	-0.74105126	0.6447995	
1465370518349641	-0.028350921	-0.19062747	-0.7368682	0.6479835	
1465370538674348	-0.02307613	-0.19733153	-0.72947186	0.65452164	
1465370558632844	-0.019081127	-0.20132719	-0.7245246	0.6589138	
1465370578774445	-0.022375645	-0.2047126	-0.7241237	0.65820736	
1465370598946564	-0.026626695	-0.20601748	-0.72366375	0.6581479	
1465370619057648	-0.02818815	-0.20845045	-0.72249335	0.6586025	
1465370639748566	-0.028266117	-0.21349202	-0.71885574	0.6609604	
1465370659340852	-0.028332518	-0.21855068	-0.7149064	0.6635825	
1465370679482453	-0.029580828	-0.22023468	-0.7131307	0.66488063	
1465370699654572	-0.029143514	-0.22053322	-0.7120719	0.665935	
1465370719765656	-0.023637528	-0.21809354	-0.70977277	0.669402	
1465370740303986	-0.017310938	-0.2116112	-0.7080882	0.6734479	
1465370760048859	-0.015491368	-0.20585273	-0.70778584	0.6755915	
1465370780190461	-0.01443583	-0.20316209	-0.7038109	0.68056375	
1465370800362580	-0.013940119	-0.20460546	-0.6998988	0.6841666	
1465370820473664	-0.010516505	-0.20977414	-0.6904767	0.6921894	
1465370841286652	-0.011116353	-0.21397832	-0.6833585	0.6979333	
1465370860787385	-0.007283618	-0.21336319	-0.6789777	0.70243317	
1465370880928986	-0.0031820731	-0.21054217	-0.67491627	0.70721275	
1465370901040070	-0.0010053716	-0.20811272	-0.6711983	0.7114639	
1465370921181672	-3.306974E-4	-0.20705856	-0.66675955	0.7159318	
1465370941781037	1.5062642E-4	-0.20730332	-0.6603655	0.7217636	
1465370961495393	0.0015967214	-0.2060558	-0.65465367	0.7273012	
1465370981636994	0.0013894083	-0.2053075	-0.64968693	0.731952	
1465371001778596	-9.3629475E-5	-0.20671625	-0.64083445	0.73932374	
1465371021889680	-0.0016628512	-0.20765536	-0.63238716	0.7462995	
1465371042733186	-0.005004121	-0.20912872	-0.62380016	0.7530694	
1465371062172883	-0.008726152	-0.20983727	-0.61506325	0.759993	
1465371082314484	-0.012956417	-0.2103502	-0.60792595	0.76551354	
1465371102486604	-0.015776372	-0.21165873	-0.5997716	0.77150875	
1465371122597688	-0.018608311	-0.21298802	-0.5881225	0.7800011	
1465371143258088	-0.021484097	-0.21263258	-0.5762109	0.78886425	
1465371162880891	-0.03353227	-0.2222855	-0.5580536	0.7987746	
1465371183022492	-0.040717997	-0.23636405	-0.52859646	0.81428486	
1465371203194611	-0.04080763	-0.22110341	-0.5301127	0.8175748	
1465371223305695	-0.04356597	-0.20445539	-0.5333332	0.81966805	
1465371243630402	-0.044576835	-0.18544959	-0.539878	0.81984943	
1465371263619416	-0.045016304	-0.17342748	-0.5392534	0.8228622	
1465371283761018	-0.04698523	-0.17030132	-0.53184354	0.8282103	
1465371303902619	-0.050025757	-0.16813517	-0.52391285	0.83351266	
1465371324013703	-0.05484727	-0.16394651	-0.51931703	0.8369129	
1465371344155305	-0.058631998	-0.15790327	-0.5154424	0.84020716	
1465371364327424	-0.060795084	-0.15022267	-0.51278126	0.8430851	
1465371384469025	-0.06377998	-0.14330076	-0.5097121	0.84592587	
1465371404580109	-0.06526129	-0.13861708	-0.5027562	0.85074234	
1465371424752229	-0.06719567	-0.1368641	-0.49594438	0.8548638	
1465371445046418	-0.068051964	-0.13624084	-0.48719862	0.8599098	
1465371465004914	-0.069370754	-0.13733162	-0.48096085	0.86313635	
1465371485146516	-0.071342096	-0.14038554	-0.470345	0.868319	
1465371505318635	-0.074342616	-0.14244667	-0.4640719	0.8711024	
1465371525429719	-0.07616427	-0.14333038	-0.45684436	0.8746134	
1465371545571320	-0.0773238	-0.14391537	-0.44981498	0.8780523	
1465371565743439	-0.0788888	-0.14460793	-0.44405997	0.8807246	
1465371585885041	-0.07963842	-0.14404036	-0.4392464	0.88316065	
1465371605996125	-0.07890326	-0.14309967	-0.43398437	0.8859765	
1465371627694123	-0.078294545	-0.14250462	-0.43004957	0.8880426	
1465371648262971	-0.07799619	-0.14361662	-0.42647985	0.88960993	
1465371667794221	-0.07491059	-0.14360575	-0.42118567	0.8923948	
1465371687813752	-0.06904506	-0.14127769	-0.41739222	0.8950179	
1465371707741730	-0.06410387	-0.13908967	-0.41428947	0.8971672	
1465371727791779	-0.060601957	-0.13928361	-0.40708438	0.90067184	
1465371747780793	-0.055889297	-0.13989091	-0.39790317	0.9049751	
1465371767800324	-0.04791936	-0.13809459	-0.39187437	0.9083326	
1465371787758820	-0.03941003	-0.13420348	-0.3883392	0.9108397	
1465371807778352	-0.033589568	-0.13137986	-0.38464132	0.913051	
1465371827767365	-0.02991181	-0.13007101	-0.3815478	0.91466284	
1465371847939484	-0.026004571	-0.12766704	-0.37981704	0.91584057	
1465371867867463	-0.020662276	-0.12385815	-0.3773301	0.9175261	
1465371888009064	-0.01581736	-0.12034565	-0.3745562	0.91922486	
1465371908150666	-0.012293855	-0.11846737	-0.371704	0.92067933	
1465371928261750	-0.009236554	-0.11750759	-0.3660595	0.9230965	
1465371948586457	-0.0072387923	-0.11771348	-0.36200655	0.92468506	
1465371968575471	-0.0061654667	-0.118375376	-0.35891265	0.9258137	
1465371988717072	-0.0059380294	-0.119414896	-0.3563155	0.92668444	
1465372008858674	-0.006413372	-0.12186517	-0.35247368	0.9278308	
1465372029000275	-0.0063102646	-0.12462363	-0.34675404	0.9296186	
1465372049660676	-0.0055517885	-0.12857105	-0.33782104	0.93237096	
1465372069283479	-0.004674029	-0.13268849	-0.33082837	0.9343043	
1465372089394563	-0.0028925464	-0.13609293	-0.32322657	0.9364801	
1465372109566682	-5.40265E-4	-0.13916205	-0.3149651	0.93884534	
1465372129708283	0.0011803354	-0.14265926	-0.30623552	0.94120497	
1465372150216096	0.00195586	-0.1465517	-0.29809847	0.9432158	
1465372169960969	0.0025116946	-0.15078317	-0.29042494	0.9449399	
1465372190133088	0.0036678542	-0.15474844	-0.27915242	0.94768846	
1465372210274689	0.004368865	-0.15746897	-0.27263412	0.9491339	
1465372230385773	0.0057466878	-0.15848523	-0.266621	0.95066434	
1465372251198762	0.0075507136	-0.1597978	-0.2586129	0.95264214	
1465372270668977	0.009331323	-0.16175486	-0.25296757	0.95381117	
1465372290810578	0.0108630285	-0.16290493	-0.25464967	0.95315135	
1465372310982697	0.013293804	-0.15921953	-0.26187363	0.95178497	
1465372331093781	0.015318555	-0.15370199	-0.26951936	0.95052636	
1465372351693146	0.0148111535	-0.1511977	-0.2764523	0.9489436	
1465372371376984	0.013044567	-0.15029284	-0.28150976	0.9476255	
1465372391549104	0.012050801	-0.14842558	-0.28769326	0.94607466	
1465372411660188	0.012193588	-0.14602898	-0.290662	0.94553816	
1465372431832307	0.011797259	-0.1436579	-0.29729262	0.94384336	
1465372452797883	0.011927933	-0.14030181	-0.30539778	0.9417565	
1465372472115510	0.0126810325	-0.13675988	-0.31451315	0.9392643	
1465372492226594	0.012983027	-0.13449533	-0.32230908	0.93694144	
1465372512398713	0.011776159	-0.13403472	-0.32993174	0.93436664	
1465372532540314	0.010430164	-0.13431576	-0.33500937	0.93253374	
1465372552987092	0.008808651	-0.13490017	-0.34354955	0.9293536	
1465372572731965	0.008035077	-0.13478184	-0.34920135	0.9272689	
1465372592965119	0.007933998	-0.13421296	-0.35499495	0.92515	
1465372613076203	0.008233383	-0.13326673	-0.36307275	0.9221444	
1465372633217805	0.008945363	-0.13249536	-0.37234318	0.9185453	
1465372653542512	0.009856627	-0.13279179	-0.37953323	0.9155456	
1465372673531525	0.0109924	-0.13389197	-0.38319656	0.9138449	
1465372693673127	0.012184112	-0.13531886	-0.38751486	0.91179633	
1465372713814729	0.014282764	-0.13655706	-0.38967636	0.9106594	
1465372733977427	0.01616556	-0.13777684	-0.39247134	0.9092428	
1465372754119029	0.017607188	-0.13960731	-0.3903692	0.90984154	
1465372774260630	0.018463364	-0.14270052	-0.3875713	0.9105406	
1465372794371714	0.02126055	-0.14441875	-0.38231334	0.9124296	
1465372814543833	0.025941083	-0.14308223	-0.37963402	0.913637	
1465372834654917	0.03159098	-0.13949436	-0.3790847	0.91424185	
1465372855223765	0.035882838	-0.13666932	-0.37727696	0.91525733	
1465372874938120	0.0384047	-0.13530049	-0.37354445	0.9168879	
1465372895079722	0.04021657	-0.13415922	-0.3716837	0.9177337	
1465372915251841	0.042754885	-0.13252191	-0.3688403	0.9190031	
1465372935362925	0.04587444	-0.13089229	-0.3666702	0.9199542	
1465372955809702	0.049022965	-0.1293963	-0.36654803	0.9200521	
1465372975676646	0.0518176	-0.12823023	-0.36589885	0.9203206	
1465372997344126	0.05607599	-0.12760504	-0.36528257	0.9204027	
1465373017485728	0.058115296	-0.12800984	-0.36529818	0.92021376	
1465373037474742	0.05881265	-0.12970237	-0.3637938	0.92052835	
1465373057646861	0.058088314	-0.13161351	-0.35985118	0.9218518	
1465373077452769	0.05625673	-0.13254564	-0.36051276	0.92157334	
1465373097441783	0.05417606	-0.13283852	-0.36186224	0.92112684	
1465373117461314	0.051704384	-0.13372733	-0.3634832	0.9205018	
1465373137450327	0.049994476	-0.13566844	-0.36331913	0.920377	
1465373157439341	0.049724605	-0.13866057	-0.3589332	0.92166567	
1465373177458872	0.05070707	-0.14191934	-0.3533985	0.9232536	
1465373197417368	0.05225584	-0.14494894	-0.34926954	0.92426723	
1465373217436900	0.052679386	-0.14772695	-0.3478175	0.9243509	
1465373237517466	0.052261967	-0.14962988	-0.34524235	0.9250337	
1465373258086314	0.051417865	-0.15042955	-0.3442471	0.9253222	
1465373277800669	0.05008015	-0.15071937	-0.3457878	0.92477375	
1465373297911753	0.048390284	-0.15142334	-0.34551504	0.92485064	
1465373318083872	0.046971355	-0.15207556	-0.34614643	0.92458063	
1465373338194956	0.046144996	-0.15276611	-0.34828183	0.9237061	
1465373358641734	0.047919948	-0.15128677	-0.34843212	0.9238025	
1465373378478160	0.04925861	-0.14796753	-0.35802692	0.9205954	
1465373398619761	0.048944768	-0.1445564	-0.363999	0.9188104	
1465373418791880	0.045296025	-0.14196342	-0.37076685	0.91669333	
1465373438902964	0.0389285	-0.13881859	-0.38328594	0.912308	
1465373459715952	0.033197857	-0.13283084	-0.39592773	0.9080171	
1465373479216685	0.029065149	-0.124286965	-0.4130607	0.9017144	
1465373499327769	0.026773486	-0.11561665	-0.42677188	0.89653873	
1465373519499888	0.02514549	-0.10842505	-0.43955383	0.8912935	
1465373539610972	0.024251314	-0.1036378	-0.4491215	0.8871082	
1465373560271372	0.022947062	-0.101410665	-0.45642468	0.8836661	
1465373579924693	0.020926852	-0.10078854	-0.4622672	0.8807456	
1465373600066294	0.018376503	-0.101198375	-0.46737412	0.87805617	
1465373620207896	0.01533528	-0.102060035	-0.47239524	0.87532353	
1465373640349497	0.011648603	-0.10302258	-0.47923544	0.8715412	
1465373660643687	0.008511985	-0.10315703	-0.48446715	0.8686643	
1465373680602183	0.006652431	-0.10243868	-0.4895148	0.8659315	
1465373700774302	0.0051535713	-0.10201907	-0.4974824	0.8614388	
1465373720854868	0.0042535323	-0.10268617	-0.50010365	0.8598452	
1465373741026988	0.0034479331	-0.10463335	-0.50063044	0.85930735	
1465373761199107	0.0023164607	-0.10754889	-0.5016176	0.858375	
1465373781340708	6.5254146E-4	-0.111079596	-0.50423753	0.85639095	
1465373801451792	-0.0017951062	-0.11502801	-0.5058202	0.8549335	
1465373821623911	-0.004847881	-0.11829351	-0.50881344	0.8526969	
1465373841765513	-0.006262725	-0.12012777	-0.5114932	0.8508259	
1465373862029185	-0.0067282896	-0.12243944	-0.5100941	0.85133266	
1465373882018199	-0.006556053	-0.1250219	-0.5074719	0.85252494	
1465373902190318	-0.005401665	-0.12782565	-0.50401795	0.85416466	
1465373922331919	-0.0052812416	-0.1318476	-0.49801478	0.8570703	
1465373942443003	-0.004982425	-0.1367826	-0.4914426	0.86008716	
1465373962584605	-0.0040329928	-0.14173403	-0.4835159	0.8637752	
1465373982756724	-0.004220098	-0.14880867	-0.4741629	0.8677602	
1465374002898326	-1.861942E-4	-0.15366569	-0.46161753	0.8736682	
1465374023039927	0.0070035784	-0.15140769	-0.45840988	0.87572086	
1465374043151011	0.0165297	-0.14599131	-0.45555535	0.8779992	
1465374063750376	0.022082422	-0.1435979	-0.45011997	0.88106984	
1465374083464732	0.022752399	-0.14474826	-0.4425957	0.88466907	
1465374103606333	0.023495924	-0.14636907	-0.43258214	0.8893238	
1465374123717417	0.024246775	-0.14767703	-0.4251495	0.8926654	
1465374143889536	0.023907274	-0.15061219	-0.413927	0.89744574	
1465374164275279	0.022271484	-0.155353	-0.40272525	0.90176594	
1465374184142222	0.021647472	-0.15983255	-0.3907407	0.9062597	
1465374204283824	0.02227897	-0.16376586	-0.3809466	0.90970546	
1465374224455943	0.023509702	-0.16844702	-0.36906675	0.91370815	
1465374244567027	0.023169082	-0.17417634	-0.35826755	0.9169352	
1465374265380015	0.021648727	-0.17906739	-0.34827313	0.9198761	
1465374284880747	0.018943975	-0.18236053	-0.3415497	0.92180777	
1465374305022349	0.015348541	-0.18350068	-0.33813956	0.92290497	
1465374325163951	0.011668837	-0.18293811	-0.33766666	0.9232436	
1465374345305552	0.009434029	-0.18066481	-0.33973533	0.92295784	
1465374367552867	0.008869938	-0.17867401	-0.3439352	0.9217947	
1465374387175669	0.010067433	-0.17729232	-0.3460613	0.9212533	
1465374407134165	0.011857863	-0.17699301	-0.34670013	0.92104936	
1465374427153697	0.013921397	-0.17569965	-0.35068572	0.9197583	
1465374447142710	0.01651531	-0.17127094	-0.35925123	0.9172416	
1465374467314829	0.018915286	-0.16419798	-0.36999205	0.91421396	
1465374487151255	0.020077832	-0.15749112	-0.37963337	0.91141206	
1465374507140269	0.01949822	-0.15294482	-0.38592544	0.9095544	
1465374527098765	0.017968396	-0.14928302	-0.39203545	0.9075792	
1465374547118296	0.017884787	-0.14492472	-0.39651018	0.90634245	
1465374567107310	0.018317856	-0.1404968	-0.4018467	0.9046791	
1465374587126841	0.018612027	-0.13723478	-0.4045336	0.9039761	
1465374607146372	0.017634671	-0.13606748	-0.4077704	0.902717	
1465374627287974	0.016562903	-0.1365127	-0.4068756	0.9030737	
1465374647460093	0.015443899	-0.1380894	-0.40374646	0.9042575	
1465374667906870	0.013471038	-0.14037459	-0.40245408	0.90451324	
1465374687682261	0.010624096	-0.14311357	-0.4007718	0.90486884	
1465374707823863	0.007367267	-0.14541237	-0.3983786	0.9055912	
1465374727995982	0.0048021595	-0.14652824	-0.39585194	0.9065361	
1465374748107066	0.0030239148	-0.14549854	-0.3969581	0.90622586	
1465374768492808	0.0019592387	-0.14400785	-0.39889547	0.905616	
1465374788298716	0.0011177361	-0.14409973	-0.39891276	0.9055952	
1465374808531870	0.0013750895	-0.14569621	-0.3952364	0.90695035	
1465374828703990	0.0022351274	-0.1470591	-0.39232054	0.90799403	
1465374848815074	0.003078891	-0.14781131	-0.3902025	0.90878177	
1465374869597544	0.003924948	-0.14797184	-0.3906095	0.90857756	
1465374889098277	0.0068054236	-0.14777832	-0.3841216	0.9113539	
1465374909270396	0.009892789	-0.14925414	-0.37594396	0.91448975	
1465374929289927	0.0132007925	-0.15191565	-0.36576566	0.9181301	
1465374949523081	0.017811256	-0.15370065	-0.35445443	0.9221827	
1465374970122447	0.022762349	-0.15305267	-0.3486653	0.9243859	
1465374989806285	0.028657649	-0.1496481	-0.34338957	0.9267512	
1465375009978404	0.03283454	-0.14661446	-0.3389695	0.9287227	
1465375030089488	0.035619922	-0.14438573	-0.33252499	0.9312954	
1465375050261607	0.03816878	-0.14248246	-0.32620385	0.93371993	
1465375071227183	0.041519802	-0.14069621	-0.31591058	0.93737996	
1465375090544810	0.044360116	-0.13967744	-0.3055088	0.94084364	
1465375110655894	0.04690609	-0.13951159	-0.2919319	0.94504607	
1465375130828013	0.048480026	-0.13993387	-0.28268018	0.9477131	
1465375150939097	0.051405042	-0.1400872	-0.26788837	0.951824	
1465375170958628	0.054881565	-0.14090358	-0.25543794	0.954927	
1465375191222300	0.05821922	-0.14337865	-0.24214138	0.9578208	
1465375211394419	0.060762685	-0.14758578	-0.22643153	0.9608616	
1465375231505503	0.061779693	-0.15212649	-0.2131024	0.9631345	
1465375251677622	0.06219519	-0.15562154	-0.19956787	0.9654462	
1465375271971812	0.062189925	-0.15797591	-0.18755776	0.96746993	
1465375291930308	0.062458158	-0.15958127	-0.17537129	0.9694729	
1465375312071910	0.062269736	-0.16158487	-0.16244929	0.97140265	
1465375332213511	0.061805207	-0.16541255	-0.14687759	0.9732655	
1465375352355113	0.06154998	-0.16865627	-0.13087814	0.97500646	
1465375372527232	0.06057617	-0.1687845	-0.120799795	0.97634506	
1465375392638316	0.058769636	-0.16648842	-0.11451626	0.9776061	
1465375412779917	0.056233123	-0.1643212	-0.11422675	0.97815573	
1465375432952036	0.0556094	-0.16290355	-0.10834414	0.9790973	
1465375453063120	0.055267427	-0.16360396	-0.10367919	0.97950494	
1465375473631968	0.054866817	-0.1643684	-0.09634773	0.98014784	
1465375493346324	0.052852176	-0.16443753	-0.091035314	0.98075455	
1465375513518443	0.049378954	-0.16256447	-0.089488536	0.98139	
1465375533660044	0.04575259	-0.15944725	-0.08864975	0.982153	
1465375553771128	0.042679742	-0.15593319	-0.08818356	0.9828972	
1465375574217906	0.04005445	-0.15316159	-0.09186822	0.983106	
1465375594054331	0.038849585	-0.15120608	-0.0899984	0.9836299	
1465375614226451	0.037877828	-0.14955422	-0.08695268	0.9841941	
1465375634337535	0.03706117	-0.14663708	-0.08717114	0.9846447	
1465375654509654	0.036232922	-0.14275149	-0.09203552	0.98480386	
1465375675322642	0.03569083	-0.13959953	-0.0965809	0.9848402	
1465375694792857	0.035520513	-0.13813041	-0.09794756	0.98491853	
1465375714934458	0.035329644	-0.13793206	-0.098327525	0.9849154	
1465375736601939	0.033658594	-0.14061435	-0.098462276	0.98458105	
1465375756804576	0.03203823	-0.14291188	-0.096833125	0.9844659	
1465375777129283	0.03005816	-0.14445466	-0.09679098	0.9843073	
1465375796813120	0.028143289	-0.14480291	-0.09832579	0.9841606	
1465375816771617	0.025816865	-0.14545533	-0.10025442	0.98393357	
1465375836760630	0.023408115	-0.1468851	-0.10271843	0.9835272	
1465375856780161	0.02194852	-0.14883195	-0.104406714	0.9830903	
1465375876952281	0.021489313	-0.15089878	-0.10524696	0.9826957	
1465375896758189	0.021085566	-0.15200292	-0.10779048	0.9822585	
1465375916747202	0.021124566	-0.15183496	-0.11003911	0.98203427	
1465375936644663	0.021553185	-0.15111054	-0.10966162	0.9821789	
1465375956633677	0.021450257	-0.15110515	-0.114794	0.98159534	
1465375976958384	0.02257547	-0.15135393	-0.11692569	0.98128015	
1465375996916880	0.024691889	-0.15091772	-0.11924984	0.98101664	
1465376017027964	0.027225675	-0.15030392	-0.12042834	0.9808999	
1465376037200083	0.028932473	-0.15072748	-0.120582595	0.980767	
1465376057311167	0.029762337	-0.15082492	-0.12119616	0.9806516	
1465376078032603	0.030902974	-0.14985517	-0.12354171	0.98047227	
1465376097594370	0.032284282	-0.14895214	-0.12463684	0.9804268	
1465376117735972	0.033798918	-0.14906667	-0.12273992	0.9805976	
1465376137908091	0.034824282	-0.14953713	-0.12381141	0.9803554	
1465376158019175	0.036197625	-0.14921965	-0.12478757	0.9802302	
1465376178588023	0.037530396	-0.14823198	-0.1266395	0.98009247	
1465376198332896	0.038571082	-0.14763568	-0.12854823	0.9798935	
1465376218443980	0.039424017	-0.14856468	-0.12815285	0.97977096	
1465376238585581	0.040200908	-0.1512433	-0.12777553	0.97937876	
1465376258757701	0.04174966	-0.15452388	-0.12419877	0.979262	
1465376279570689	0.042548124	-0.1584814	-0.123027965	0.9787428	
1465376299010386	0.04236119	-0.16240351	-0.122067444	0.9782281	
1465376319151988	0.041657258	-0.16520604	-0.12027415	0.97801113	
1465376339324107	0.040456656	-0.16729383	-0.11849104	0.9779243	
1465376359435191	0.03848717	-0.16916206	-0.11807306	0.97773296	
1465376380065074	0.03647036	-0.17168263	-0.11679275	0.97752464	
1465376399748911	0.033780087	-0.17411122	-0.118412845	0.9769967	
1465376419859995	0.031032138	-0.17496143	-0.12037197	0.97669655	
1465376440001597	0.028413523	-0.17462963	-0.12499615	0.97625464	
1465376460143199	0.026537007	-0.17394438	-0.12822482	0.97601104	
1465376481169810	0.02501362	-0.17432463	-0.13078181	0.97564405	
1465376500456919	0.023251364	-0.17490642	-0.1357619	0.974903	
1465376520598521	0.021099305	-0.1743699	-0.14185503	0.9741802	
1465376540709605	0.017938267	-0.17269334	-0.14817293	0.9736016	
1465376560881724	0.013834144	-0.17107433	-0.15555638	0.97280234	
1465376580901255	0.010292303	-0.16920751	-0.16110067	0.97227025	
1465376601134410	0.007262041	-0.16806662	-0.1681507	0.9713013	
1465376621276011	0.0049222647	-0.1666856	-0.17658393	0.9700566	
1465376641448130	0.0031800633	-0.1643226	-0.1864959	0.968611	
1465376661589732	0.0021154226	-0.16169977	-0.19609338	0.9671588	
1465376681883921	9.869355E-4	-0.15961576	-0.20480056	0.9657011	
1465376701842417	-5.6098355E-4	-0.15845855	-0.21258713	0.9642081	
1465376722014536	-0.0022305015	-0.15815833	-0.2195706	0.9626888	
1465376742125620	-0.004536783	-0.15791462	-0.22849345	0.96064204	
1465376762297740	-0.0066749593	-0.15920526	-0.23340265	0.9592353	
1465376782439341	-0.00849414	-0.16156329	-0.23439339	0.95858485	
1465376802550425	-0.009855138	-0.16364112	-0.23830652	0.9572536	
1465376822692027	-0.010481274	-0.16453177	-0.24399537	0.9556598	
1465376842864146	-0.011233251	-0.1652394	-0.2507655	0.9537748	
1465376863005747	-0.012234592	-0.16693902	-0.25483656	0.9523865	
1465376883574595	-0.013257679	-0.16885574	-0.25723514	0.95138955	
1465376903288951	-0.012935659	-0.17132857	-0.25960904	0.9503064	
1465376923400035	-0.0123389615	-0.17228362	-0.263023	0.9492023	
1465376943572154	-0.01113654	-0.17415914	-0.2655463	0.9481718	
1465376963713755	-0.010453321	-0.17595851	-0.26913267	0.9468352	
1465376984130015	-0.009304438	-0.17833763	-0.26572272	0.94736505	
1465377003996958	-0.008730439	-0.18060303	-0.26307988	0.9476789	
1465377024138560	-0.0068841423	-0.1811977	-0.2605979	0.94826615	
1465377044249644	-0.00513001	-0.18006626	-0.26052228	0.94851357	
1465377064421763	-0.004786447	-0.17966278	-0.25845683	0.9491567	
1465377085234751	-0.0056127813	-0.17984341	-0.2544792	0.9501922	
1465377106261363	-0.0064997673	-0.17976794	-0.25065285	0.9512173	
1465377126463999	-0.0073800115	-0.1799456	-0.24612372	0.9523593	
1465377146422495	-0.0070540933	-0.18126883	-0.23974596	0.9537367	
1465377166442027	-0.0064422446	-0.1819485	-0.23633164	0.95446354	
1465377186766734	-0.004906535	-0.18109407	-0.23407786	0.95519024	
1465377206420054	-0.0031102467	-0.18045035	-0.23054639	0.956178	
1465377226317515	-0.0011990282	-0.18212274	-0.22650208	0.9568316	
1465377246306529	5.139385E-4	-0.18512653	-0.21891163	0.9580217	
1465377266295542	0.0014711894	-0.18907204	-0.21325362	0.9585262	
1465377286467661	0.0027262873	-0.19416618	-0.20476857	0.95935494	
1465377306304087	0.00383457	-0.19906753	-0.1948629	0.9604092	
1465377326293101	0.004167683	-0.20365945	-0.18519616	0.9613573	
1465377346373667	0.0029174935	-0.2064422	-0.1818538	0.9614064	
1465377366545786	0.0021865647	-0.20854343	-0.17600307	0.9620435	
1465377386809458	0.0012938856	-0.21100816	-0.16973089	0.96263456	
1465377406798472	4.882463E-4	-0.21443775	-0.16101108	0.96337515	
1465377426940074	1.372594E-4	-0.21749084	-0.1538031	0.96386844	
1465377447112193	7.753639E-4	-0.21891038	-0.14635116	0.96470666	
1465377467223277	-8.410871E-5	-0.21840578	-0.14697808	0.96472603	
1465377487883677	-0.0012925294	-0.21738288	-0.14894482	0.96465456	
1465377507536997	-0.0023424656	-0.21808432	-0.14774902	0.96467817	
1465377527678599	-0.0031091021	-0.21935841	-0.14601834	0.96465063	
1465377547820201	-0.0027401124	-0.21707597	-0.14663628	0.96507424	
1465377567961802	-0.0036507114	-0.21039824	-0.15434085	0.9653487	
1465377588408579	-0.0060594897	-0.20484415	-0.16127889	0.96539694	
1465377608214488	-0.009735381	-0.20211671	-0.16500418	0.96531224	
1465377628386607	-0.012914696	-0.20020363	-0.16813384	0.96513355	
1465377648528208	-0.015735324	-0.19730799	-0.17383161	0.96467847	
1465377668669810	-0.018563768	-0.19386669	-0.18079619	0.9640456	
1465377689513316	-0.02120327	-0.19037957	-0.18689549	0.9635228	
1465377708953013	-0.02352262	-0.18690525	-0.19207282	0.9631309	
1465377729064097	-0.025532156	-0.18328166	-0.19949284	0.9622674	
1465377749236216	-0.026693584	-0.18106654	-0.2029692	0.9619282	
1465377769347300	-0.028273778	-0.18042503	-0.20666991	0.9612154	
1465377790038218	-0.029903207	-0.18121837	-0.20749256	0.9608395	
1465377809630503	-0.03174478	-0.18240052	-0.20968783	0.96007985	
1465377829772105	-0.03361114	-0.18422538	-0.21168786	0.95922863	
1465377849944224	-0.03512699	-0.18600017	-0.21367018	0.9583919	
1465377870055308	-0.035674207	-0.18746981	-0.21331064	0.9581654	
1465377890380015	-0.036452703	-0.18823017	-0.21672337	0.95722073	
1465377910338511	-0.036626477	-0.18961298	-0.21951988	0.95630354	
1465377930480113	-0.03651306	-0.19192089	-0.22360028	0.9549011	
1465377950621714	-0.03495035	-0.1947949	-0.2233898	0.95442677	
1465377970763316	-0.032284644	-0.19706517	-0.22096914	0.9546181	
1465377990935435	-0.030161178	-0.19725293	-0.22455883	0.95381075	
1465378011077036	-0.02766939	-0.19665128	-0.22522295	0.9538539	
1465378031188120	-0.025816776	-0.19690302	-0.22588615	0.9536971	
1465378051329722	-0.02310727	-0.19725052	-0.22576828	0.9537227	
1465378071501841	-0.019566145	-0.19595617	-0.22611088	0.95398754	
1465378091796031	-0.016596546	-0.19383618	-0.2273155	0.9541906	
1465378111754527	-0.015432202	-0.19230723	-0.22872685	0.95418227	
1465378131896128	-0.014865454	-0.18999024	-0.23010634	0.95432377	
1465378152068247	-0.014138864	-0.18643118	-0.23323588	0.954277	
1465378172209849	-0.012975413	-0.1836657	-0.23433642	0.9545601	
1465378192320933	-0.011528852	-0.18173818	-0.23463301	0.9548747	
1465378212462535	-0.009817341	-0.17996983	-0.23679473	0.9546951	
1465378232604136	-0.007480793	-0.17949648	-0.2347389	0.9553129	
1465378252776255	-0.0059720026	-0.18076283	-0.23054957	0.95610464	
1465378272887339	-0.0054946044	-0.18297115	-0.22401163	0.9572409	
1465378293486704	-0.0065684468	-0.18519026	-0.21955356	0.9578401	
1465378313201060	-0.008075464	-0.18730718	-0.21613988	0.9581933	
1465378333342661	-0.009704967	-0.18934919	-0.21484019	0.9580691	
1465378353453745	-0.010866736	-0.19283026	-0.20989847	0.95845765	
1465378373625865	-0.010989875	-0.19720148	-0.20078489	0.95951873	
1465378394011607	-0.010337289	-0.20085368	-0.19233252	0.9604994	
1465378413878550	-0.009742039	-0.20236464	-0.18825603	0.960996	
1465378434020152	-0.00951757	-0.20283435	-0.1860578	0.96132725	
1465378454192271	-0.009348873	-0.2031629	-0.18400724	0.9616542	
1465378475920786	-0.008868725	-0.20318031	-0.18160073	0.9621124	
1465378496550669	-0.009060794	-0.2018482	-0.18189687	0.96233505	
1465378515959849	-0.00991122	-0.20079887	-0.18161026	0.9626003	
1465378536101451	-0.010856526	-0.20170817	-0.17632033	0.96338314	
1465378556090464	-0.012840795	-0.2023742	-0.1776815	0.9629689	
1465378576079478	-0.014081986	-0.20031725	-0.18112132	0.9627408	
1465378596068492	-0.015158243	-0.19621933	-0.18535675	0.96276224	
1465378616088023	-0.0170346	-0.1922072	-0.19110355	0.9624166	
1465378636077036	-0.019338124	-0.18919353	-0.19754566	0.96166915	
1465378656066050	-0.019757107	-0.18685068	-0.19785947	0.96205413	
1465378676055064	-0.020112598	-0.18496136	-0.20080845	0.96180075	
1465378696257701	-0.020849178	-0.18285087	-0.205968	0.9610973	
1465378716063609	-0.021700496	-0.17934877	-0.21209861	0.96040475	
1465378736144175	-0.02290438	-0.1756279	-0.22018135	0.9592447	
1465378756316294	-0.023529386	-0.17393671	-0.2242517	0.95859456	
1465378776427378	-0.023655243	-0.17437527	-0.22540718	0.95824075	
1465378796752085	-0.023008399	-0.17581399	-0.2239504	0.95833516	
1465378816710581	-0.023160445	-0.17785797	-0.22487569	0.95773745	
1465378836852183	-0.023790242	-0.17988026	-0.22502011	0.9573103	
1465378857024302	-0.023747537	-0.18113495	-0.22490627	0.9571015	
1465378877135386	-0.023655677	-0.18070163	-0.23047519	0.9558601	
1465378897826304	-0.022596795	-0.17960773	-0.23516594	0.9549489	
1465378917418589	-0.020804929	-0.17959605	-0.2370702	0.9545209	
1465378937560191	-0.018130904	-0.18078469	-0.23605391	0.9546029	
1465378957732310	-0.014769254	-0.18226735	-0.235355	0.95455146	
1465378977843394	-0.011229833	-0.1819753	-0.2390411	0.9537391	
1465378998381724	-0.0074728676	-0.18065487	-0.24430943	0.9526914	
1465379018126597	-0.004404275	-0.17924085	-0.24938221	0.95166266	
1465379038268199	-0.0031584695	-0.17905082	-0.25467148	0.95030165	
1465379058440318	-0.001828324	-0.17931588	-0.25579652	0.94995296	
1465379078551402	-1.4649812E-4	-0.17786658	-0.25509068	0.95041686	
1465379099486460	6.89369E-4	-0.17451629	-0.2589516	0.9499935	
1465379118834605	4.3206394E-4	-0.17165586	-0.26129287	0.94987375	
1465379138976206	-4.7844797E-4	-0.17058994	-0.2598353	0.9504654	
1465379159148326	-1.0306426E-4	-0.16966659	-0.2556424	0.9517669	
1465379179259410	0.0018198194	-0.16870087	-0.24963209	0.95353055	
1465379200041880	0.004168432	-0.16899495	-0.24460444	0.95477325	
1465379219573130	0.0069309985	-0.16909789	-0.24072903	0.95572346	
1465379239714732	0.009712593	-0.1683259	-0.23792438	0.95653754	
1465379259856333	0.012688458	-0.16754903	-0.23565571	0.95720047	
1465379279967417	0.016321637	-0.1682572	-0.23135695	0.95806944	
1465379300292124	0.019564392	-0.17107162	-0.22582452	0.95883	
1465379320281138	0.022769427	-0.17510797	-0.21601729	0.9602892	
1465379340422740	0.024711259	-0.17907302	-0.20868726	0.9611305	
1465379360564341	0.02589236	-0.18238421	-0.20117088	0.9620789	
1465379380705943	0.026915506	-0.18538016	-0.193513	0.9630485	
1465379400817027	0.027600326	-0.18739392	-0.1868499	0.9639548	
1465379420958628	0.027680552	-0.18826835	-0.18240975	0.96463233	
1465379441130747	0.027263045	-0.18921047	-0.17913686	0.9650731	
1465379461241831	0.02687714	-0.19098926	-0.17430224	0.96561867	
1465379481383433	0.026024783	-0.19201115	-0.17173547	0.9658992	
1465379501708140	0.024108924	-0.19281492	-0.17235176	0.96567905	
1465379521666636	0.021852445	-0.19320191	-0.17339851	0.965468	
1465379541808238	0.020288544	-0.19191876	-0.17620713	0.9652495	
1465379561949839	0.018742649	-0.19155236	-0.18060201	0.964541	
1465379582091441	0.01705605	-0.19339631	-0.18162288	0.9640125	
1465379602233042	0.01530646	-0.19549148	-0.18273151	0.96340954	
1465379622374644	0.013196651	-0.1953744	-0.18656796	0.962729	
1465379642516245	0.009152214	-0.1937623	-0.1935805	0.9617167	
1465379662688365	0.0043465947	-0.19253898	-0.20024611	0.9606307	
1465379682799449	-5.937726E-5	-0.19081724	-0.20632185	0.9596979	
1465379703307261	-0.003789655	-0.18862616	-0.21049725	0.9592167	
1465379723082652	-0.0068621463	-0.18704481	-0.2145211	0.9586177	
1465379743224253	-0.009860301	-0.18468967	-0.22091368	0.95759577	
1465379763396372	-0.011897892	-0.18202393	-0.226796	0.95670754	
1465379783507456	-0.013814204	-0.18112788	-0.23068558	0.95592153	
1465379803893199	-0.016031964	-0.18175288	-0.23430955	0.9548863	
1465379823790660	-0.018572107	-0.18354774	-0.2360516	0.9540676	
1465379843932261	-0.021142151	-0.18622966	-0.23496214	0.95376325	
1465379865630259	-0.023975711	-0.188006	-0.2353176	0.95325994	
1465379885771861	-0.026444824	-0.18777382	-0.24054599	0.9519345	
1465379906645884	-0.026976071	-0.18747595	-0.2452759	0.9507706	
1465379925749888	-0.02709395	-0.18592764	-0.24993974	0.9498563	
1465379945738902	-0.026433114	-0.18332362	-0.2576242	0.9483267	
1465379965727915	-0.02570494	-0.18243271	-0.26400182	0.9467632	
1465379985747447	-0.025061013	-0.18308789	-0.26837263	0.9454242	
1465380005736460	-0.024774518	-0.18368004	-0.27202484	0.9442724	
1465380025725474	-0.024368826	-0.1833081	-0.27525166	0.94341975	
1465380045745005	-0.024665836	-0.18184452	-0.28217903	0.94164705	
1465380065703501	-0.024536338	-0.1809911	-0.28280005	0.9416286	
1465380085723033	-0.024951205	-0.1827365	-0.283295	0.94113165	
1465380105956187	-0.023786135	-0.18498427	-0.28048417	0.9415645	
1465380125914683	-0.022115435	-0.18790707	-0.2791612	0.9414196	
1465380146086802	-0.019881532	-0.19100109	-0.27593637	0.94179744	
1465380166197886	-0.017534655	-0.19456379	-0.27264896	0.9420722	
1465380186339488	-0.015128795	-0.1972073	-0.26638964	0.9433541	
1465380206511607	-0.0141323265	-0.19813542	-0.26220796	0.94434613	
1465380226653208	-0.014948198	-0.19914821	-0.26072136	0.9445321	
1465380246764292	-0.016223948	-0.20033252	-0.25579885	0.94560593	
1465380266936411	-0.017449139	-0.20084445	-0.25300074	0.94622815	
1465380287047495	-0.017638724	-0.19970116	-0.25130904	0.9469172	
1465380307646861	-0.016995257	-0.19802327	-0.24962668	0.94772595	
1465380327361216	-0.016314544	-0.1975869	-0.24724676	0.9484526	
1465380347502818	-0.015921282	-0.1982974	-0.24508701	0.94887143	
1465380367644419	-0.0154114375	-0.20069432	-0.24142559	0.9493145	
1465380387786021	-0.014351595	-0.20378724	-0.23582706	0.95007914	
1465380408202281	-0.013262656	-0.20734085	-0.23036276	0.95066655	
1465380428038706	-0.012998822	-0.20963655	-0.2288734	0.9505264	
1465380448180308	-0.013323995	-0.21049435	-0.22784133	0.9505803	
1465380468352427	-0.014222082	-0.21152954	-0.22509	0.9509929	
1465380488463511	-0.016454663	-0.21307597	-0.22206159	0.95132357	
1465380509276499	-0.01984601	-0.21487738	-0.2208057	0.951146	
1465380528777232	-0.023863083	-0.21506734	-0.22174452	0.95079225	
1465380548888316	-0.026895056	-0.21530968	-0.22016692	0.9510231	
1465380569060435	-0.02972775	-0.21433902	-0.22244582	0.9506276	
1465380589171519	-0.030975347	-0.21294767	-0.22511406	0.9502723	
1465380609831919	-0.032934222	-0.21385808	-0.22625522	0.9497308	
1465380629485240	-0.034046877	-0.21484222	-0.22771057	0.9491215	
1465380649626841	-0.033933956	-0.21287204	-0.2332885	0.94821435	
1465380669768443	-0.03337221	-0.20921826	-0.24009258	0.9473487	
1465380689910044	-0.034369405	-0.20780538	-0.24502143	0.94636154	
1465380710204234	-0.036604855	-0.20828642	-0.24830808	0.94531476	
1465380730162730	-0.038130593	-0.2087327	-0.2502459	0.94464475	
1465380750365367	-0.039741646	-0.20845918	-0.25466803	0.9434562	
1465380770445933	-0.041292347	-0.20719916	-0.2581088	0.9427318	
1465380790587535	-0.04264284	-0.20523013	-0.26139414	0.9421971	
1465380810759654	-0.044381455	-0.20387784	-0.26580635	0.9411754	
1465380830870738	-0.045997057	-0.20301208	-0.26838762	0.94055223	
1465380851012339	-0.047619592	-0.20272487	-0.27180997	0.93955004	
1465380871184458	-0.049398415	-0.20368457	-0.27425665	0.93853915	
1465380891326060	-0.051000446	-0.2050977	-0.27521023	0.93786633	
1465380911589732	-0.052730456	-0.2060954	-0.276804	0.9370826	
1465380931578745	-0.054363195	-0.20610906	-0.28065136	0.9358411	
1465380951750865	-0.05531419	-0.20435566	-0.28730378	0.9341497	
1465380971892466	-0.0557773	-0.20196189	-0.294652	0.9323521	
1465380992003550	-0.0557997	-0.20008755	-0.30051392	0.93088275	
1465381012145152	-0.054434184	-0.19907735	-0.30255622	0.9305186	
1465381032286753	-0.052823983	-0.19837464	-0.30639282	0.9295055	
1465381052428355	-0.050765347	-0.1987024	-0.30853155	0.92884254	
1465381072569956	-0.048386972	-0.19836482	-0.3102336	0.92847466	
1465381092711558	-0.046439588	-0.19743758	-0.3119681	0.9281905	
1465381113249888	-0.046641227	-0.19860205	-0.31292507	0.9276097	
1465381133025279	-0.046359595	-0.19901317	-0.31385326	0.927222	
1465381153136363	-0.04362785	-0.19729872	-0.31240594	0.92820925	
1465381173277964	-0.040219154	-0.19543462	-0.31123665	0.92914987	
1465381193419566	-0.037630554	-0.19590649	-0.30731946	0.9304619	
1465381213835826	-0.03507518	-0.1973987	-0.30205527	0.9319689	
1465381235228648	-0.030302702	-0.19893457	-0.29576498	0.9338254	
1465381255431285	-0.028655177	-0.19948697	-0.2909814	0.93526125	
1465381275420298	-0.027638514	-0.19883265	-0.288085	0.9363273	
1465381295409312	-0.026636355	-0.1983796	-0.28440085	0.93757784	
1465381315581431	-0.025761195	-0.19842868	-0.2799956	0.93891686	
1465381335387339	-0.02510918	-0.19953692	-0.27264562	0.94086075	
1465381355376353	-0.024871835	-0.20199175	-0.26347172	0.9429546	
1465381375395884	-0.025414947	-0.20499726	-0.2574232	0.9439616	
1465381395384898	-0.025526987	-0.20896994	-0.24820106	0.945556	
1465381415373911	-0.026197724	-0.21380258	-0.2390234	0.946821	
1465381435362925	-0.026409578	-0.2181477	-0.22869623	0.94837344	
1465381455382456	-0.026251215	-0.22069475	-0.22052856	0.949722	
1465381475432505	-0.025353415	-0.22144873	-0.21617165	0.9505722	
1465381495574107	-0.024201099	-0.22221069	-0.21213157	0.9513343	
1465381516142954	-0.022747278	-0.22393696	-0.2059783	0.95231706	
1465381535857310	-0.021972302	-0.2262833	-0.20203312	0.9526257	
1465381555968394	-0.020078532	-0.22931877	-0.19445764	0.9535177	
1465381576140513	-0.018946597	-0.23171923	-0.19079821	0.95369977	
1465381596251597	-0.01711657	-0.23252413	-0.187531	0.9541864	
1465381616698374	-0.016389532	-0.23351984	-0.18669751	0.95411944	
1465381636565318	-0.016711354	-0.23565355	-0.18648756	0.9536302	
1465381656706919	-0.016407732	-0.23577917	-0.18644398	0.9536129	
1465381676848521	-0.01574873	-0.23143107	-0.19088493	0.9538106	
1465381696990122	-0.015901053	-0.22570872	-0.1967562	0.9539862	
1465381717650523	-0.017476305	-0.22256877	-0.19884804	0.9542626	
1465381737242808	-0.020262541	-0.22076076	-0.19949178	0.9544931	
1465381757414927	-0.022767413	-0.2173419	-0.20239884	0.9546093	
1465381777526011	-0.025242738	-0.21358563	-0.20649472	0.95451766	
1465381797698130	-0.028062759	-0.21041702	-0.21060656	0.9542442	
1465381818205943	-0.029415132	-0.20698349	-0.21134529	0.95479095	
1465381837950816	-0.030585539	-0.20338894	-0.21591318	0.95450455	
1465381858122935	-0.030298341	-0.20116912	-0.21523823	0.95513636	
1465381878234019	-0.0303296	-0.20112732	-0.21471387	0.9552622	
1465381898406138	-0.030002648	-0.20286347	-0.21160811	0.95559835	
1465381919280161	-0.02962979	-0.20574309	-0.20718941	0.95596254	
1465381938658824	-0.02895924	-0.20874567	-0.20319596	0.95618933	
1465381958800425	-0.028280597	-0.21111019	-0.20279375	0.9557758	
1465381978972544	-0.02696867	-0.21246757	-0.2016924	0.955746	
1465381999083628	-0.025566474	-0.21269257	-0.20081554	0.9559191	
1465382019835581	-0.024730999	-0.21325299	-0.2003166	0.95592093	
1465382039366831	-0.02355825	-0.21402244	-0.19855906	0.9561452	
1465382059538951	-0.021846073	-0.21414645	-0.19771986	0.956332	
1465382079650035	-0.019822031	-0.2143045	-0.19835387	0.9562094	
1465382120116343	-0.014009131	-0.21513635	-0.19376451	0.95706606	
1465382120116343	-0.014009131	-0.21513635	-0.19376451	0.95706606	
1465382140105357	-0.0111976005	-0.21495119	-0.19223364	0.9574533	
1465382160216441	-0.009298875	-0.21524936	-0.19075982	0.9577014	
1465382180388560	-0.007351974	-0.21405812	-0.19127259	0.957883	
1465382200499644	-0.0045759124	-0.21044154	-0.19199984	0.95855594	
1465382220641245	-0.002720568	-0.20621437	-0.19318262	0.95924383	
1465382240813365	-0.002996884	-0.20429066	-0.19330893	0.9596291	
1465382260954966	-0.0036825615	-0.20248613	-0.1911242	0.9604464	
1465382281066050	-0.0037435938	-0.19926342	-0.19186799	0.9609718	
1465382301238169	-0.002448021	-0.1968385	-0.1897231	0.9619011	
1465382321532359	-7.201737E-4	-0.19665244	-0.18654175	0.962564	
1465382341490855	0.0014975661	-0.19679916	-0.18471111	0.9628861	
1465382361632456	0.0047410782	-0.19597031	-0.18208246	0.9635451	
1465382381774058	0.007599817	-0.19548137	-0.18023957	0.9639725	
1465382401915660	0.0097796125	-0.19624282	-0.17746535	0.9643128	
1465382422057261	0.011384798	-0.19873932	-0.17175142	0.96481836	
1465382442229380	0.012178445	-0.20240171	-0.1652394	0.9651845	
1465382462370982	0.012125656	-0.20735551	-0.15770671	0.96539384	
1465382482512583	0.011741585	-0.21255338	-0.14946535	0.9655793	
1465382502654185	0.01097505	-0.21653979	-0.1425504	0.96574813	
1465382523192515	0.009736629	-0.21892205	-0.13745318	0.96596324	
1465382542937388	0.0078743715	-0.22023089	-0.13365592	0.96621555	
1465382562956919	0.0050709685	-0.22198708	-0.13186501	0.96607846	
1465382583220591	0.0025064514	-0.22448683	-0.12692533	0.9661725	
1465382604857554	-0.0018894223	-0.22701912	-0.12778255	0.965469	
1465382625395884	-0.006472092	-0.22902127	-0.12923612	0.9647826	
1465382644957652	-0.011278493	-0.22991371	-0.1325093	0.9640818	
1465382665068736	-0.016115332	-0.23000295	-0.13799477	0.96322185	
1465382685057749	-0.02031459	-0.2314155	-0.14129265	0.96232563	
1465382705046763	-0.023992775	-0.23300326	-0.14569221	0.96120113	
1465382725240317	-0.026340902	-0.22996333	-0.1552071	0.9603821	
1465382745015707	-0.027590618	-0.22303256	-0.1688283	0.9596834	
1465382765035239	-0.02950922	-0.21804589	-0.18243708	0.9582807	
1465382785024252	-0.0325464	-0.21756738	-0.19115672	0.95658994	
1465382805013266	-0.035362974	-0.21787064	-0.19803503	0.9550204	
1465382825002280	-0.0373893	-0.21631274	-0.20760594	0.95326316	
1465382845052328	-0.038566954	-0.21396159	-0.21487205	0.95213604	
1465382865193930	-0.040320814	-0.21130638	-0.22547293	0.95020306	
1465382885335532	-0.041389685	-0.2091279	-0.23411436	0.9485478	
1465382905477133	-0.042044155	-0.20779566	-0.24136241	0.9469939	
1465382926045981	-0.042929087	-0.20750073	-0.24844342	0.9451859	
1465382945760336	-0.044243682	-0.2081867	-0.25427747	0.9434213	
1465382965901938	-0.046496157	-0.20887873	-0.26193377	0.94106245	
1465382986013022	-0.048003078	-0.20913999	-0.26801303	0.9392152	
1465383006185141	-0.04926001	-0.20889382	-0.27531242	0.9370912	
1465383026601401	-0.04983459	-0.20829631	-0.2835965	0.9347204	
1465383046437827	-0.048809566	-0.2073836	-0.2901346	0.9329692	
1465383066609946	-0.047046848	-0.20706545	-0.2967021	0.93106306	
1465383086751547	-0.04432876	-0.20754507	-0.30044436	0.9298888	
1465383106862631	-0.041645862	-0.20875217	-0.30412504	0.9285452	
1465383127675619	-0.039642308	-0.21085863	-0.3082763	0.9267863	
1465383147145834	-0.037342716	-0.21268772	-0.30970284	0.9259879	
1465383167287436	-0.035508	-0.21285242	-0.31366307	0.92468834	
1465383187459555	-0.034401827	-0.2122769	-0.31621924	0.92399156	
1465383207570639	-0.034843363	-0.21200089	-0.31846753	0.92326593	
1465383228231039	-0.034738332	-0.21160212	-0.31778002	0.92359823	
1465383247884360	-0.03442222	-0.20925306	-0.31918776	0.9236598	
1465383268025961	-0.03417153	-0.20488523	-0.32111037	0.92398185	
1465383288167563	-0.035159737	-0.20093663	-0.3219425	0.92452216	
1465383308309164	-0.03708187	-0.19788922	-0.32096723	0.92544305	
1465383328603354	-0.037942592	-0.19519721	-0.31735313	0.9272246	
1465383348561850	-0.03729131	-0.1923874	-0.3142186	0.92890424	
1465383368733969	-0.035896324	-0.18973374	-0.31338555	0.929786	
1465383388845053	-0.0336929	-0.18759774	-0.3118892	0.9308045	
1465383408986655	-0.03054154	-0.18625982	-0.3072639	0.9327183	
1465383429158774	-0.02785081	-0.18508561	-0.30525798	0.9336944	
1465383449300375	-0.025562255	-0.18440868	-0.30279782	0.93469435	
1465383469411459	-0.02484046	-0.18516687	-0.30117455	0.9350883	
1465383489583578	-0.025315994	-0.18705434	-0.29941645	0.9352644	
1465383509725180	-0.025854647	-0.18986571	-0.29382378	0.93645614	
1465383529988852	-0.026661927	-0.19309068	-0.28837317	0.9374679	
1465383549977866	-0.027297154	-0.19592732	-0.28318447	0.9384423	
1465383570119467	-0.027551703	-0.19750124	-0.2790562	0.9393411	
1465383590291586	-0.028121892	-0.19771165	-0.27690786	0.9399156	
1465383610433188	-0.028943773	-0.19857992	-0.27203336	0.9411302	
1465383630574789	-0.031187087	-0.20046346	-0.26877224	0.9415961	
1465383650685873	-0.033762205	-0.20193791	-0.26507825	0.9422392	
1465383670827475	-0.036700416	-0.20172752	-0.26263574	0.94285816	
1465383690999594	-0.040161077	-0.20062537	-0.2628051	0.94290507	
1465383711019125	-0.04311963	-0.19895181	-0.26483417	0.94256127	
1465383731679526	-0.043794803	-0.19732891	-0.26300293	0.9433837	
1465383751393881	-0.04432834	-0.19697571	-0.26147455	0.9438573	
1465383771535483	-0.04454123	-0.19779994	-0.260696	0.9438903	
1465383791707602	-0.043757096	-0.19883475	-0.25782406	0.9444982	
1465383811818686	-0.042725388	-0.198149	-0.25694266	0.9449296	
1465383832234946	-0.042497743	-0.19641432	-0.25836715	0.9449136	
1465383852132407	-0.043413	-0.19494355	-0.26105148	0.9444387	
1465383872243491	-0.044056434	-0.19412713	-0.259536	0.94499457	
1465383892415610	-0.045390636	-0.19323343	-0.26043165	0.9448682	
1465383912526694	-0.046744935	-0.1922876	-0.2608946	0.9448674	
1465383933370200	-0.047967575	-0.19044775	-0.26378024	0.9443774	
1465383952809897	-0.04805209	-0.1872675	-0.266392	0.94427603	
1465383974507895	-0.0469028	-0.18062164	-0.27391735	0.94347507	
1465383994710532	-0.046785284	-0.18004055	-0.27297825	0.9438641	
1465384014730063	-0.048085224	-0.18041727	-0.2749075	0.9431666	
1465384035054770	-0.048617613	-0.18141621	-0.2725645	0.9436276	
1465384054708090	-0.04941053	-0.18239059	-0.27122143	0.94378555	
1465384074697104	-0.050222132	-0.18324748	-0.27039447	0.94381404	
1465384094686118	-0.050329894	-0.18361428	-0.27030632	0.94376224	
1465384114675131	-0.048845984	-0.1835421	-0.2685753	0.9443483	
1465384134725180	-0.04739113	-0.18271306	-0.27197182	0.9436108	
1465384154683676	-0.044739634	-0.18211272	-0.27107668	0.94411373	
1465384174672690	-0.042939935	-0.18181576	-0.2729795	0.9437062	
1465384194661703	-0.041491006	-0.18151627	-0.2748695	0.94328	
1465384214681235	-0.03960654	-0.18005753	-0.27830067	0.9426343	
1465384235005942	-0.03740875	-0.17792109	-0.28228638	0.9419443	
1465384254964438	-0.035777025	-0.17697121	-0.2843921	0.9415532	
1465384275106039	-0.034262784	-0.17722933	-0.28292876	0.94200164	
1465384295247641	-0.032803684	-0.17704487	-0.28350386	0.9419154	
1465384315389243	-0.029034799	-0.17433926	-0.28140265	0.94317305	
1465384336080160	-0.02634365	-0.16952828	-0.28476965	0.94311845	
1465384355641928	-0.024946304	-0.16573565	-0.28362352	0.94417536	
1465384375783530	-0.024562612	-0.16312408	-0.27962178	0.9458324	
1465384395955649	-0.023759477	-0.16085981	-0.27600965	0.94730055	
1465384416066733	-0.021403331	-0.1595021	-0.26940578	0.9494849	
1465384436635580	-0.019085702	-0.15984085	-0.26470852	0.95079756	
1465384456380453	-0.015867652	-0.16075215	-0.25919572	0.95222086	
1465384476491537	-0.01185999	-0.16104993	-0.25395232	0.95364064	
1465384496663657	-0.008434169	-0.16109343	-0.25109378	0.95442635	
1465384516805258	-0.0055337795	-0.16174674	-0.24660203	0.95550764	
1465384537709799	-0.004047627	-0.1631064	-0.24177125	0.95651793	
1465384557057944	-0.0034394132	-0.16505215	-0.23555739	0.9577362	
1465384577199545	-0.0030291304	-0.16733159	-0.22937837	0.95884126	
1465384597371664	-0.0026350361	-0.17042202	-0.22402038	0.9595646	
1465384617482748	-0.0018168922	-0.17431284	-0.21766628	0.9603297	
1465384637929526	-6.7323755E-4	-0.17856914	-0.21010694	0.96123236	
1465384657765952	-8.039286E-5	-0.18210788	-0.20217839	0.9622685	
1465384677938071	-0.0012943756	-0.18568052	-0.19526857	0.96301156	
1465384698049155	-0.0038895393	-0.18987744	-0.18857697	0.9635197	
1465384718190756	-0.0067313067	-0.19332607	-0.18301706	0.96389025	
1465384738454428	-0.009376211	-0.19540699	-0.17897615	0.9642073	
1465384758473959	-0.011923996	-0.19672725	-0.17630431	0.9644029	
1465384778615561	-0.0145569695	-0.19734547	-0.17689078	0.964133	
1465384798757162	-0.016407385	-0.19860123	-0.17612667	0.9639853	
1465384818898764	-0.017808978	-0.20076194	-0.17704284	0.9633449	
1465384839070883	-0.017440783	-0.2008917	-0.17918484	0.9629284	
1465384859181967	-0.016248563	-0.19670253	-0.1866734	0.9623914	
1465384879323569	-0.01569986	-0.19195803	-0.19481292	0.9617451	
1465384899465170	-0.016719649	-0.19023569	-0.19874205	0.96126604	
1465384919606772	-0.019167744	-0.19093214	-0.20110273	0.9605911	
1465384939931479	-0.021463363	-0.19136217	-0.20327492	0.95999956	
1465384959920493	-0.024052914	-0.1907246	-0.20763333	0.9591319	
1465384980062094	-0.026628643	-0.18935698	-0.21244194	0.9582814	
1465385000173178	-0.02891582	-0.18762994	-0.21829979	0.9572377	
1465385020314780	-0.030513788	-0.18628316	-0.22259544	0.9564616	
1465385040608969	-0.031746358	-0.1859749	-0.22382265	0.956195	
1465385060628500	-0.033719134	-0.18627365	-0.22707753	0.9553015	
1465385080770102	-0.03546254	-0.18721654	-0.22814474	0.95479965	
1465385100911703	-0.037240054	-0.18814933	-0.22920717	0.954294	
1465385121053305	-0.037842017	-0.18813224	-0.22995824	0.954093	
1465385141713705	-0.03787345	-0.18659602	-0.23443325	0.95330405	
1465385161305991	-0.03692513	-0.18437842	-0.23797612	0.9528948	
1465385181447592	-0.035887714	-0.18206851	-0.24487036	0.951631	
1465385201619711	-0.034498245	-0.18000996	-0.25347793	0.9498185	
1465385221730795	-0.032330435	-0.1786038	-0.25894734	0.9486842	
1465385242269125	-0.029892059	-0.17740491	-0.2642755	0.9475191	
1465385262044516	-0.026913447	-0.17610244	-0.26821208	0.94674486	
1465385282155600	-0.02413174	-0.17513807	-0.27336746	0.94552344	
1465385302327719	-0.02179577	-0.17507733	-0.27484107	0.94516414	
1465385322438803	-0.02057734	-0.17594142	-0.2764418	0.944564	
1465385344899741	-0.019715868	-0.17699854	-0.2772301	0.9441537	
1465385364247885	-0.01927328	-0.17744976	-0.2804142	0.94313735	
1465385384358969	-0.018175485	-0.17752564	-0.27972406	0.9433497	
1465385404378500	-0.018506238	-0.17748101	-0.28132823	0.94287455	
1465385424336996	-0.018824093	-0.17761652	-0.2807386	0.9430185	
1465385444356528	-0.018182179	-0.17623107	-0.27986637	0.9435501	
1465385464376059	-0.016907198	-0.1737303	-0.280368	0.9438886	
1465385484334555	-0.015090462	-0.17164952	-0.27788252	0.9450344	
1465385504384604	-0.012840551	-0.17039175	-0.27437067	0.94632053	
1465385524343100	-0.009885961	-0.1698473	-0.2690608	0.947977	
1465385544362631	-0.007096275	-0.17003971	-0.26516613	0.9490643	
1465385564321127	-0.0046245167	-0.17112763	-0.26067206	0.95012844	
1465385584340659	-0.0028622635	-0.17275551	-0.25707513	0.95082057	
1465385604451743	-0.001329783	-0.17595123	-0.25309822	0.95130473	
1465385624562827	3.191349E-4	-0.18024738	-0.24706113	0.952088	
1465385644887534	0.0010820728	-0.18440689	-0.24320276	0.9522843	
1465385664846030	0.0016892271	-0.18768163	-0.23913427	0.9526739	
1465385684987631	0.0018287319	-0.19057511	-0.23369473	0.9534488	
1465385705159750	9.4708806E-4	-0.19285615	-0.23206604	0.95338917	
1465385725301352	-0.0010151999	-0.19522607	-0.23000814	0.9534055	
1465385745870200	-0.0041325944	-0.19843552	-0.2284346	0.9531127	
1465385765554037	-0.007075504	-0.20124605	-0.22552362	0.9531994	
1465385785695639	-0.010453829	-0.20253128	-0.22423095	0.95320106	
1465385805837241	-0.01445131	-0.20213029	-0.22762166	0.95243	
1465385825978842	-0.01727455	-0.20071489	-0.23173301	0.95169055	
1465385846334067	-0.01984043	-0.19987847	-0.23702812	0.95051175	
1465385866262045	-0.021988824	-0.20112765	-0.23875839	0.94976765	
1465385886434164	-0.023933247	-0.20290904	-0.24188812	0.94854903	
1465385906575766	-0.025204398	-0.20277645	-0.24627289	0.9474155	
1465385926717368	-0.02711065	-0.201858	-0.25273404	0.94585615	
1465385947438803	-0.029419236	-0.20101537	-0.25749367	0.9446821	
1465385967000571	-0.032186586	-0.20040213	-0.26296103	0.943215	
1465385987111655	-0.034517203	-0.20033298	-0.26714575	0.94197047	
1465386007283774	-0.036161013	-0.20052291	-0.26996282	0.94106483	
1465386027425375	-0.037266385	-0.19949637	-0.27515346	0.9397356	
1465386047902670	-0.03732575	-0.19685039	-0.28121144	0.9384971	
1465386067678061	-0.037268106	-0.194446	-0.28628635	0.9374657	
1465386087819662	-0.037781138	-0.19322535	-0.28958604	0.9366838	
1465386107991782	-0.039786126	-0.19318327	-0.29424837	0.93515515	
1465386128133383	-0.041449856	-0.1937486	-0.29618767	0.9343534	
1465386148885336	-0.043162994	-0.19444162	-0.29826182	0.9334716	
1465386168386069	-0.044928674	-0.19562854	-0.2994923	0.93274605	
1465386188527670	-0.045718215	-0.19563995	-0.30120096	0.93215495	
1465386208699789	-0.04577951	-0.19286577	-0.30654407	0.93098754	
1465386228810873	-0.04599244	-0.19048384	-0.31012878	0.9302799	
1465386249471274	-0.04707662	-0.189211	-0.3162291	0.92842996	
1465386269094077	-0.046931654	-0.18829608	-0.32073393	0.927077	
1465386289235678	-0.04592918	-0.1873822	-0.3227827	0.9266012	
1465386309407797	-0.045165356	-0.18673524	-0.32375708	0.9264294	
1465386329518881	-0.04461687	-0.1863648	-0.324455	0.9262864	
1465386349843588	-0.04452633	-0.18713693	-0.32426375	0.926202	
1465386369832602	-0.04512637	-0.18911178	-0.32324934	0.9261265	
1465386389943686	-0.04520111	-0.19028127	-0.32111248	0.9266265	
1465386410115805	-0.04394589	-0.18840066	-0.32140195	0.9269707	
1465386430226889	-0.042430278	-0.18520251	-0.3221897	0.9274123	
1465386450368491	-0.041752305	-0.18302554	-0.32052487	0.9284515	
1465386470540610	-0.041866764	-0.18154281	-0.31983218	0.9289762	
1465386490682211	-0.04124549	-0.17988281	-0.320564	0.92907465	
1465386510823813	-0.038793832	-0.17901635	-0.3184253	0.93008256	
1465386530965414	-0.035210304	-0.17897506	-0.31660342	0.9308547	
1465386551259604	-0.030629855	-0.17913775	-0.31605884	0.9311704	
1465386571218100	-0.025253588	-0.17977309	-0.3144013	0.9317702	
1465386591390219	-0.020086978	-0.18107688	-0.31154585	0.9326022	
1465386611501303	-0.015826669	-0.18273048	-0.30783916	0.9335921	
1465386631642905	-0.013336081	-0.18471827	-0.3044495	0.934351	
1465386651815024	-0.0125651155	-0.18694435	-0.30110922	0.93500113	
1465386671956625	-0.012813896	-0.19006585	-0.2972261	0.9356107	
1465386692067709	-0.013752333	-0.19382909	-0.2925709	0.9362924	
1465386713826743	-0.015431541	-0.20137167	-0.27992672	0.93853736	
1465386733876791	-0.015966034	-0.20451361	-0.27254328	0.940021	
1465386754476157	-0.018042902	-0.20794395	-0.26845884	0.9404061	
1465386774007407	-0.020561097	-0.21206638	-0.26155138	0.94137985	
1465386793996420	-0.023756769	-0.21578442	-0.25697494	0.94172	
1465386813924399	-0.026082234	-0.21756351	-0.25145862	0.9427377	
1465386833882895	-0.028690534	-0.21740055	-0.25073153	0.9428932	
1465386853963461	-0.031256627	-0.21680151	-0.252014	0.9426076	
1465386873982993	-0.034102924	-0.21711074	-0.25279057	0.94222975	
1465386893972006	-0.036303315	-0.21661541	-0.2580606	0.94083184	
1465386913961020	-0.03579483	-0.21186543	-0.26549417	0.93986416	
1465386933980551	-0.034786895	-0.2049932	-0.27630228	0.9383095	
1465386954122153	-0.035687223	-0.20179746	-0.28401977	0.9366627	
1465386974050131	-0.037961543	-0.20228694	-0.28643334	0.93573225	
1465386994222250	-0.040796135	-0.20324633	-0.28983688	0.93435603	
1465387014363852	-0.043580614	-0.20284104	-0.29410845	0.93298256	
1465387034474936	-0.046069436	-0.20088351	-0.29995102	0.93142515	
1465387054799643	-0.047550615	-0.19809495	-0.30579522	0.93004656	
1465387074788657	-0.04803649	-0.19593817	-0.31107497	0.9287266	
1465387094930258	-0.0468214	-0.19502972	-0.3121358	0.9286239	
1465387115041342	-0.045304112	-0.19507577	-0.31357026	0.92820615	
1465387155873862	-0.043222554	-0.19633776	-0.31666934	0.9269864	
1465387155873862	-0.043222554	-0.19633776	-0.31666934	0.9269864	
1465387175466147	-0.042973276	-0.19756795	-0.3169875	0.9266278	
1465387195607748	-0.04332605	-0.19929169	-0.31795096	0.9259119	
1465387215779868	-0.04346792	-0.20087288	-0.3186959	0.9253073	
1465387235890952	-0.043083936	-0.20111512	-0.32020694	0.9247508	
1465387256429282	-0.043102972	-0.20056197	-0.32465345	0.92331856	
1465387276204672	-0.04347189	-0.19976905	-0.3298142	0.9216426	
1465387296315756	-0.04342105	-0.19976507	-0.3320392	0.92084664	
1465387316487875	-0.043190725	-0.20096548	-0.33247176	0.9204401	
1465387336598959	-0.0427115	-0.20209038	-0.33477637	0.91938025	
1465387357503500	-0.04112924	-0.20238864	-0.33640116	0.9187935	
1465387376912680	-0.040073175	-0.20262839	-0.33950508	0.9176449	
1465387397023764	-0.03942163	-0.20376849	-0.33997092	0.91724813	
1465387417195883	-0.039603937	-0.2045279	-0.3408563	0.9167425	
1465387437337485	-0.039088186	-0.20328154	-0.3419622	0.91663	
1465387457967368	-0.037435956	-0.19819216	-0.34598336	0.91630447	
1465387477620688	-0.036076695	-0.19318302	-0.348363	0.91652715	
1465387497731772	-0.035584744	-0.18978932	-0.3489785	0.91702116	
1465387517903891	-0.035059262	-0.18707286	-0.34955525	0.9173798	
1465387538045493	-0.03267081	-0.18508387	-0.34800318	0.91846085	
1465387558339682	-0.028658116	-0.18431497	-0.3432478	0.92053664	
1465387578328696	-0.024308952	-0.18408309	-0.3379325	0.9226723	
1465387598439780	-0.020449784	-0.18405241	-0.33374014	0.9242965	
1465387618611899	-0.01709067	-0.18346411	-0.33154237	0.9252721	
1465387638753500	-0.013838862	-0.18270065	-0.32695043	0.92710966	
1465387658864584	-0.012069216	-0.1821928	-0.32333884	0.92849994	
1465387679006186	-0.010903234	-0.18197192	-0.31857273	0.9302036	
1465387699178305	-0.010541263	-0.18277904	-0.31428337	0.93150777	
1465387719289389	-0.009999027	-0.18494582	-0.3057025	0.93393844	
1465387739430991	-0.009934547	-0.18796153	-0.29673705	0.9362259	
1465387759755698	-0.010271765	-0.19108537	-0.28905955	0.9379901	
1465387779744711	-0.010880126	-0.19426592	-0.28210285	0.9394468	
1465387799886313	-0.011957339	-0.19802584	-0.27219662	0.9415688	
1465387820027914	-0.013585529	-0.2018527	-0.26043802	0.94405663	
1465387840138998	-0.01619945	-0.20571725	-0.25037023	0.9459031	
1465387860280600	-0.018932534	-0.209823	-0.24052623	0.94750357	
1465387880452719	-0.02141764	-0.21252939	-0.23293978	0.9487421	
1465387900594321	-0.02327938	-0.21275158	-0.23021139	0.94931424	
1465387920735922	-0.024027655	-0.21301399	-0.2270515	0.94999754	
1465387940877524	-0.023603972	-0.21459526	-0.22267084	0.9506889	
1465387961415854	-0.022221424	-0.21611924	-0.21925849	0.95117	
1465387981160727	-0.01965369	-0.21492513	-0.21847288	0.95167774	
1465388001271811	-0.016709123	-0.21108937	-0.2199489	0.9522524	
1465388021443930	-0.015691545	-0.2073993	-0.22594307	0.95167696	
1465388041555014	-0.016200405	-0.20547788	-0.23208432	0.95060676	
1465388061971274	-0.01646479	-0.20414643	-0.23476408	0.950231	
1465388081777182	-0.017557688	-0.20302367	-0.23858017	0.9495013	
1465388103414145	-0.019605853	-0.2013306	-0.24520819	0.94813216	
1465388123677817	-0.021133415	-0.1983591	-0.25206554	0.9469266	
1465388143666830	-0.021913536	-0.1951735	-0.25596592	0.94652444	
1465388163838950	-0.023549281	-0.19267565	-0.26137027	0.9455195	
1465388183644858	-0.02546275	-0.19150564	-0.2618846	0.9455653	
1465388203664389	-0.028294612	-0.19110535	-0.2635569	0.945101	
1465388223653403	-0.031224087	-0.19140895	-0.26628095	0.9441833	
1465388243642416	-0.03382828	-0.19154784	-0.26858133	0.94341356	
1465388263631430	-0.036026414	-0.19108495	-0.2700113	0.9430178	
1465388283650961	-0.038162004	-0.18989332	-0.27335438	0.94221103	
1465388303639975	-0.039428376	-0.18830225	-0.2755348	0.941843	
1465388323598471	-0.039186243	-0.18686639	-0.27458727	0.94241565	
1465388343709555	-0.0384297	-0.18644293	-0.27424031	0.94263166	
1465388364278403	-0.036785223	-0.18686889	-0.2715448	0.943393	
1465388383992758	-0.035288747	-0.18767887	-0.269774	0.9437973	
1465388404134360	-0.033161577	-0.18783483	-0.2684676	0.94421583	
1465388424245444	-0.030628879	-0.18724345	-0.26876566	0.94433403	
1465388444387045	-0.0284811	-0.18789604	-0.2664581	0.94492537	
1465388464833823	-0.027780293	-0.18996303	-0.2626708	0.9455931	
1465388484700766	-0.026692959	-0.19094697	-0.2569626	0.94699365	
1465388504842368	-0.02426867	-0.18852533	-0.25289327	0.9486381	
1465388524953452	-0.021949345	-0.1837725	-0.2524542	0.9497435	
1465388545125571	-0.02074269	-0.18016382	-0.25022063	0.95105225	
1465388565908041	-0.020612378	-0.17808996	-0.2464362	0.9524328	
1465388585378256	-0.019474028	-0.17630139	-0.2406564	0.9542657	
1465388625691977	-0.01417087	-0.17351142	-0.23320003	0.95671874	
1465388625691977	-0.01417087	-0.17351142	-0.23320003	0.95671874	
1465388645803061	-0.010064133	-0.17263134	-0.22903584	0.95793515	
1465388666463461	-0.0064976844	-0.17181243	-0.22967814	0.9579594	
1465388686116782	-0.0028611599	-0.17136663	-0.22937371	0.95812994	
1465388706258383	2.412688E-4	-0.17198794	-0.22832176	0.9582741	
1465388726399985	0.0030967544	-0.1737347	-0.22429454	0.9589049	
1465388746541586	0.004688493	-0.1759732	-0.2220475	0.9590132	
1465388767537680	0.0055535412	-0.17870378	-0.21846381	0.9593267	
1465388786824789	0.005426302	-0.18214184	-0.21625589	0.9591811	
1465388806935873	0.005442564	-0.18612984	-0.21176031	0.95941836	
1465388827107993	0.00550499	-0.18973592	-0.20764567	0.959611	
1465388847219077	0.0057344483	-0.193047	-0.20228474	0.9600942	
1465388867269125	0.0051183584	-0.19675791	-0.19535375	0.96077937	
1465388887502280	0.0029133924	-0.20050335	-0.19140661	0.96080875	
1465388907674399	-4.0252472E-4	-0.2044531	-0.18749774	0.9607515	
1465388927785483	-0.004321565	-0.20836918	-0.18487617	0.96040845	
1465388947927084	-0.0077951285	-0.21129556	-0.1815466	0.96038234	
1465388968251791	-0.010574173	-0.21308911	-0.1777578	0.9606682	
1465388988240805	-0.013349468	-0.21407728	-0.17769559	0.96042544	
1465389008382407	-0.015532417	-0.21653722	-0.17546251	0.9602517	
1465389028493491	-0.017092649	-0.21918522	-0.17394522	0.9599004	
1465389048635092	-0.01717302	-0.21915555	-0.17382392	0.9599277	
1465389068776694	-0.01706765	-0.21540868	-0.18013434	0.9596142	
1465389088948813	-0.017561577	-0.2121425	-0.1875922	0.95890373	
1465389109059897	-0.018831778	-0.21189287	-0.18968323	0.9585234	
1465389129232016	-0.021038357	-0.21251372	-0.19191028	0.95789653	
1465389149373618	-0.023495894	-0.21270752	-0.1942043	0.95733386	
1465389169911948	-0.026584687	-0.21213426	-0.19998202	0.9561901	
1465389189626303	-0.029135644	-0.21063207	-0.20698981	0.95495576	
1465389209767905	-0.030899977	-0.20897344	-0.21466997	0.9535681	
1465389229848471	-0.031808157	-0.20747592	-0.2217372	0.95224714	
1465389250051108	-0.031893436	-0.20649984	-0.22538747	0.95159924	
1465389270467368	-0.033405047	-0.20638412	-0.23066758	0.95030636	
1465389290364828	-0.03580284	-0.206264	-0.23646939	0.94881797	
1465389310475912	-0.038668435	-0.20612283	-0.24195738	0.94735146	
1465389330648032	-0.041093886	-0.20621204	-0.24510434	0.9464205	
1465389350759116	-0.043522917	-0.205808	-0.25097433	0.94486016	
1465389371511069	-0.045443084	-0.20489009	-0.2568205	0.94339716	
1465389391042319	-0.04635967	-0.20392083	-0.2608411	0.94245905	
1465389411214438	-0.046703015	-0.203687	-0.26409444	0.9415862	
1465389431325522	-0.046665113	-0.20396194	-0.2683519	0.94032395	
1465389451497641	-0.04656414	-0.20415781	-0.27286986	0.9389853	
1465389473714438	-0.045232497	-0.20449296	-0.27399054	0.9386511	
1465389493337241	-0.04492221	-0.2048492	-0.27582365	0.9380512	
1465389513326254	-0.044509567	-0.2054045	-0.2767438	0.9376784	
1465389533315268	-0.043169457	-0.20636298	-0.27472448	0.9381243	
1465389553304282	-0.040515218	-0.20531681	-0.27362776	0.9387925	
1465389573476401	-0.037820652	-0.20130727	-0.27754173	0.9386243	
1465389593312827	-0.03539492	-0.19755599	-0.27778098	0.93944484	
1465389613301840	-0.033902943	-0.19542925	-0.2751243	0.94072556	
1465389633290854	-0.03197528	-0.19372657	-0.2702816	0.9425473	
1465389653279868	-0.0289865	-0.19210328	-0.26622415	0.94412965	
1465389673268881	-0.025003888	-0.19190122	-0.26113173	0.94570553	
1465389693288412	-0.020588886	-0.19274405	-0.25607195	0.9470232	
1465389713338461	-0.016004553	-0.19408756	-0.25073835	0.94826376	
1465389733480063	-0.011597809	-0.19573002	-0.2439862	0.9497505	
1465389753591147	-0.008286436	-0.1972766	-0.23854071	0.95084786	
1465389774190512	-0.006691647	-0.19857515	-0.23546995	0.95135534	
1465389793904868	-0.0062746136	-0.20031804	-0.2313225	0.9520101	
1465389814015952	-0.006655293	-0.20278238	-0.22598308	0.9527679	
1465389834188071	-0.0073057283	-0.20607814	-0.21895288	0.953697	
1465389854299155	-0.008118192	-0.20956562	-0.21246476	0.95439774	
1465389874745932	-0.008657118	-0.21220198	-0.20604801	0.95521706	
1465389894612875	-0.009699523	-0.21343943	-0.20257556	0.95567393	
1465389914754477	-0.010995907	-0.21527746	-0.19685008	0.9564438	
1465389934865561	-0.013876026	-0.21886463	-0.19157153	0.956664	
1465389955037680	-0.016387243	-0.2226663	-0.18349843	0.9573294	
1465389975820151	-0.01887336	-0.2258	-0.17553851	0.95804197	
1465389995320883	-0.022049755	-0.22778696	-0.1704524	0.95842206	
1465390015431967	-0.024273312	-0.22831771	-0.16723798	0.95880824	
1465390035573569	-0.025097143	-0.2293156	-0.16343541	0.95920455	
1465390055745688	-0.02471216	-0.23153989	-0.15794787	0.95959944	
1465390076375571	-0.02422913	-0.23111111	-0.15922216	0.9595045	
1465390096028891	-0.02270011	-0.22687405	-0.16283038	0.95994747	
1465390116170493	-0.022032555	-0.22219504	-0.16756536	0.96024257	
1465390136312094	-0.022416402	-0.21948168	-0.17040037	0.9603588	
1465390156453696	-0.022914613	-0.21833456	-0.16975845	0.96072215	
1465390176747885	-0.023991799	-0.21734606	-0.17163748	0.96058613	
1465390196736899	-0.025794247	-0.21628454	-0.17481865	0.96020526	
1465390216878500	-0.028304651	-0.21384795	-0.18089531	0.9595545	
1465390237020102	-0.030801205	-0.20980686	-0.18841304	0.9589228	
1465390257161703	-0.033073496	-0.20514973	-0.19765784	0.95799327	
1465390277272787	-0.034860034	-0.20107648	-0.20556116	0.9571299	
1465390297414389	-0.036510188	-0.19815837	-0.21151745	0.95637894	
1465390317555991	-0.03836768	-0.19636598	-0.21717855	0.9554066	
1465390337728110	-0.039763264	-0.19524793	-0.22242539	0.95437104	
1465390357839194	-0.04064427	-0.19491577	-0.2266424	0.9534092	
1465390378163901	-0.04192607	-0.19498432	-0.23318885	0.9517596	
1465390398122397	-0.041899636	-0.19572769	-0.23360203	0.9515068	
1465390418294516	-0.042229977	-0.19571601	-0.23919593	0.95010376	
1465390438436118	-0.041625604	-0.19567674	-0.24178033	0.94948417	
1465390458577719	-0.041197207	-0.19612224	-0.24530813	0.9485055	
1465390478688803	-0.039446708	-0.1966036	-0.24638651	0.94820076	
1465390498830405	-0.03677999	-0.19714211	-0.24816246	0.94773287	
1465390519002524	-0.033301737	-0.19856572	-0.24821204	0.9475513	
1465390539144125	-0.029551188	-0.19945148	-0.24718484	0.94775814	
1465390559255209	-0.027440712	-0.20011231	-0.2471127	0.9477011	
1465390579854575	-0.025821086	-0.200242	-0.24451008	0.948394	
1465390599568930	-0.024314275	-0.1992763	-0.24413723	0.94873327	
1465390619710532	-0.022352543	-0.1977078	-0.24370188	0.94922143	
1465390639821616	-0.019862017	-0.19508785	-0.24462089	0.94958246	
1465390659963217	-0.016895365	-0.19317904	-0.24193177	0.9507184	
1465390680379477	-0.014162932	-0.1916818	-0.23806797	0.9520405	
1465390700246420	-0.011915471	-0.18973987	-0.23911339	0.95219827	
1465390720388022	-0.008622895	-0.18830462	-0.23767096	0.9528796	
1465390740529623	-0.004627801	-0.18770215	-0.23572917	0.9535084	
1465390760701743	-6.0731143E-4	-0.18786968	-0.2347646	0.9537244	
1465390781362143	0.0032581163	-0.18858291	-0.23526444	0.95345503	
1465390800954428	0.0069100014	-0.18944861	-0.23525123	0.9532672	
1465390821096030	0.00971029	-0.19053996	-0.2323394	0.9537393	
1465390842671957	0.0107545415	-0.19221105	-0.23150085	0.95359665	
1465390862844077	0.01041531	-0.19384454	-0.23071378	0.9534605	
1465390883412924	0.008862377	-0.1959469	-0.23032978	0.95313925	
1465390902974692	0.0065697315	-0.1995717	-0.23094128	0.9522574	
1465390922963705	0.006025215	-0.20312262	-0.22471592	0.9529993	
1465390942952719	0.0052049393	-0.20547624	-0.22183277	0.953175	
1465390962941733	0.0043694316	-0.20645036	-0.22099988	0.9531622	
1465390983113852	0.004118192	-0.20840041	-0.21904442	0.9531903	
1465391002889243	0.0043905135	-0.21181823	-0.2145104	0.95346683	
1465391022939291	0.004659269	-0.21620744	-0.20790559	0.9539433	
1465391042958823	0.004733099	-0.21976808	-0.20046936	0.9547207	
1465391062947836	0.003321601	-0.22165915	-0.19807567	0.9547891	
1465391082967368	0.001570464	-0.22146778	-0.19884372	0.95467836	
1465391103078452	2.7082817E-4	-0.22028634	-0.20088854	0.9545248	
1465391123250571	6.2537106E-4	-0.22032826	-0.19736774	0.9552492	
1465391143361655	0.0016464773	-0.22027907	-0.19526246	0.9556919	
1465391163503256	0.002786924	-0.21725193	-0.19867899	0.95567805	
1465391183797446	0.0032961324	-0.21248588	-0.20439863	0.9555418	
1465391203786459	0.0018861226	-0.20918055	-0.21035261	0.9549826	
1465391223928061	-2.2785032E-4	-0.20800477	-0.21400826	0.95442885	
1465391244069662	-0.0027205124	-0.20748356	-0.217288	0.9537972	
1465391264211264	-0.0053718714	-0.20602149	-0.2202017	0.9534346	
1465391284352866	-0.008497345	-0.20353028	-0.22754465	0.95222193	
1465391304494467	-0.011524278	-0.20143247	-0.23626488	0.9505109	
1465391324636069	-0.013514309	-0.19980495	-0.24110486	0.94961244	
1465391344808188	-0.016429221	-0.19888295	-0.24792634	0.9480022	
1465391364919272	-0.01944144	-0.19852205	-0.25239933	0.9468398	
1465391385488119	-0.022514055	-0.1994328	-0.25450435	0.9460165	
1465391405232993	-0.026233353	-0.20015621	-0.25901112	0.94454354	
1465391425374594	-0.029979112	-0.20031564	-0.2664242	0.9423338	
1465391445485678	-0.032223076	-0.19934745	-0.27153012	0.9410067	
1465391465657797	-0.034481235	-0.19839703	-0.2783983	0.93911874	
1465391486043539	-0.036266085	-0.19839156	-0.28243357	0.9378469	
1465391505941000	-0.037697654	-0.19849774	-0.28618917	0.9366287	
1465391526082602	-0.038193613	-0.19853328	-0.28884143	0.93578655	
1465391546224203	-0.038321894	-0.19870324	-0.28960264	0.9355099	
1465391566365805	-0.03787691	-0.19917236	-0.29039234	0.9351834	
1465391587117758	-0.037580796	-0.20053777	-0.29242897	0.9342685	
1465391606618491	-0.036797334	-0.20312892	-0.2875235	0.9352619	
1465391626760092	-0.03742204	-0.20631199	-0.28401113	0.9356135	
1465391646932211	-0.036965933	-0.2081627	-0.2785046	0.9368762	
1465391667043295	-0.033642933	-0.20714359	-0.27357405	0.93867826	
1465391687673178	-0.028868794	-0.20456852	-0.27037174	0.94032836	
1465391707357016	-0.026022032	-0.20329754	-0.2668727	0.9416857	
1465391727468100	-0.024258291	-0.20334584	-0.26016983	0.9435961	
1465391747609702	-0.022374088	-0.20292543	-0.2554731	0.94501543	
1465391767781821	-0.020199241	-0.20256917	-0.25288665	0.9458362	
1465391788747397	-0.016792785	-0.20283066	-0.24534735	0.9478304	
1465391808034506	-0.0132922465	-0.20264204	-0.240338	0.94920874	
1465391828176108	-0.00995967	-0.20263883	-0.2360874	0.9503163	
1465391848348227	-0.0066687535	-0.20337549	-0.23001325	0.9516763	
1465391868459311	-0.004689133	-0.20493679	-0.22563851	0.9524002	
1465391888509360	-0.0030137359	-0.20793368	-0.21820967	0.9534878	
1465391908773032	-0.0021141546	-0.21191336	-0.20960133	0.95454466	
1465391928914633	-0.0023732705	-0.21631368	-0.19842133	0.9559455	
1465391949025717	-0.0030472246	-0.22120742	-0.18685767	0.9571532	
1465391969167319	-0.003239215	-0.22657734	-0.17431173	0.9582628	
1465391989492026	-0.00297818	-0.23098174	-0.16327071	0.9591565	
1465392009481039	-0.002318722	-0.23632856	-0.15021506	0.959989	
1465392029592123	-0.0029188746	-0.24288374	-0.13659737	0.9603854	
1465392049764243	-0.0039577945	-0.24884582	-0.12200739	0.9608196	
1465392069905844	-0.0055214013	-0.2522554	-0.11201962	0.9611391	
