# OpenSignals Text File Format
# {"internal sensors":{"sensor":["xGameRot","yGameRot","zGameRot","scalarRot"],"device name":"internal sensors","column":["nSeq","xGameRot","yGameRot","zGameRot","scalarRot"],"sync interval":2,"time":"19:01:34","comments":"","keywords":"","device connection":"UNKNOWNinternal sensors","channels":[0,1,2,3],"date":"2020-07-28","mode":0,"digital IO":[],"firmware version":0,"device":"android","position":0,"sampling rate":100,"label":["xGameRot","yGameRot","zGameRot","scalarRot"],"resolution":[1,1,1,1],"special":[{},{},{},{}],"sleeve color":["UNKNOWN","UNKNOWN","UNKNOWN","UNKNOWN"]}}
# EndOfHeader
1465354465799108	0.0	0.0	0.0	1.0	
1465354485813928	0.24040951	0.14766708	0.6991451	0.65695804	
1465354495793176	0.22436646	0.14007398	0.7048736	0.6581734	
1465354515782190	0.19510275	0.119639665	0.71478647	0.66083395	
1465354545780969	0.17006779	0.10972162	0.7172172	0.66681147	
1465354565769983	0.16213955	0.121069536	0.7141687	0.6700865	
1465354595768762	0.15689047	0.14172931	0.71162075	0.6699956	
1465354635746790	0.14362302	0.14744215	0.71242917	0.67087847	
1465354655735803	0.13573901	0.14494179	0.71216583	0.6733399	
1465354695744348	0.1336898	0.14266875	0.7114504	0.67498964	
1465354705754114	0.13626158	0.14296915	0.7113659	0.6745007	
1465354765721155	0.15025704	0.14995953	0.711905	0.66942227	
1465354785710169	0.15573524	0.1528083	0.7132903	0.666043	
1465354825718714	0.1653307	0.15286373	0.71576613	0.66104263	
1465354855686975	0.17423253	0.1541705	0.71630216	0.65786445	
1465354885685755	0.183276	0.15896769	0.7164358	0.65410924	
1465354915684534	0.1907327	0.16154687	0.71615404	0.6516495	
1465354975682092	0.20318735	0.15679647	0.71022034	0.6555279	
1465354995640589	0.20764223	0.15128778	0.7082027	0.65760607	
1465355055638147	0.19157629	0.14180681	0.7036712	0.66935503	
1465355075627161	0.1905602	0.14517954	0.7023492	0.6703099	
1465355075627161	0.1905602	0.14517954	0.7023492	0.6703099	
1465355075627161	0.1905602	0.14517954	0.7023492	0.6703099	
1465355075627161	0.1905602	0.14517954	0.7023492	0.6703099	
1465355075627161	0.1905602	0.14517954	0.7023492	0.6703099	
1465355075627161	0.1905602	0.14517954	0.7023492	0.6703099	
1465355075627161	0.1905602	0.14517954	0.7023492	0.6703099	
1465355075627161	0.1905602	0.14517954	0.7023492	0.6703099	
1465355075627161	0.1905602	0.14517954	0.7023492	0.6703099	
1465355075627161	0.1905602	0.14517954	0.7023492	0.6703099	
1465355075627161	0.1905602	0.14517954	0.7023492	0.6703099	
1465355075627161	0.1905602	0.14517954	0.7023492	0.6703099	
1465355075627161	0.1905602	0.14517954	0.7023492	0.6703099	
1465355075627161	0.1905602	0.14517954	0.7023492	0.6703099	
1465355075627161	0.1905602	0.14517954	0.7023492	0.6703099	
1465355075627161	0.1905602	0.14517954	0.7023492	0.6703099	
1465355075627161	0.1905602	0.14517954	0.7023492	0.6703099	
1465355075627161	0.1905602	0.14517954	0.7023492	0.6703099	
1465355075627161	0.1905602	0.14517954	0.7023492	0.6703099	
1465355075627161	0.1905602	0.14517954	0.7023492	0.6703099	
1465355075627161	0.1905602	0.14517954	0.7023492	0.6703099	
1465355075627161	0.1905602	0.14517954	0.7023492	0.6703099	
1465355075627161	0.1905602	0.14517954	0.7023492	0.6703099	
1465355075627161	0.1905602	0.14517954	0.7023492	0.6703099	
1465355075627161	0.1905602	0.14517954	0.7023492	0.6703099	
1465355075627161	0.1905602	0.14517954	0.7023492	0.6703099	
1465355075627161	0.1905602	0.14517954	0.7023492	0.6703099	
1465355075627161	0.1905602	0.14517954	0.7023492	0.6703099	
1465355075627161	0.1905602	0.14517954	0.7023492	0.6703099	
1465355075627161	0.1905602	0.14517954	0.7023492	0.6703099	
1465355075627161	0.1905602	0.14517954	0.7023492	0.6703099	
1465355075627161	0.1905602	0.14517954	0.7023492	0.6703099	
1465355075627161	0.1905602	0.14517954	0.7023492	0.6703099	
1465355075627161	0.1905602	0.14517954	0.7023492	0.6703099	
1465355075627161	0.1905602	0.14517954	0.7023492	0.6703099	
1465355075627161	0.1905602	0.14517954	0.7023492	0.6703099	
1465355075627161	0.1905602	0.14517954	0.7023492	0.6703099	
1465355075627161	0.1905602	0.14517954	0.7023492	0.6703099	
1465355075627161	0.1905602	0.14517954	0.7023492	0.6703099	
1465355075627161	0.1905602	0.14517954	0.7023492	0.6703099	
1465355075627161	0.1905602	0.14517954	0.7023492	0.6703099	
1465355075627161	0.1905602	0.14517954	0.7023492	0.6703099	
1465355095616174	0.19283003	0.14961098	0.7020929	0.6689534	
1465355135594202	0.19097072	0.15798868	0.70648247	0.6629121	
1465355145603967	0.1889299	0.15945183	0.70854896	0.66093796	
1465355145603967	0.1889299	0.15945183	0.70854896	0.66093796	
1465355145603967	0.1889299	0.15945183	0.70854896	0.66093796	
1465355145603967	0.1889299	0.15945183	0.70854896	0.66093796	
1465355145603967	0.1889299	0.15945183	0.70854896	0.66093796	
1465355175602747	0.18357521	0.1586703	0.71526134	0.6553817	
1465355175602747	0.18357521	0.1586703	0.71526134	0.6553817	
1465355175602747	0.18357521	0.1586703	0.71526134	0.6553817	
1465355205571008	0.1812387	0.14839749	0.722449	0.65053684	
1465355215580774	0.18163483	0.14433613	0.72497517	0.64852667	
1465355215580774	0.18163483	0.14433613	0.72497517	0.64852667	
1465355215580774	0.18163483	0.14433613	0.72497517	0.64852667	
1465355225590540	0.18273897	0.14072843	0.72753185	0.64614195	
1465355235569788	0.18464433	0.13745779	0.7301252	0.6433732	
1465355245549036	0.18725355	0.1343612	0.7326809	0.6403608	
1465355255558801	0.19003974	0.13136859	0.73516065	0.6373116	
1465355265538049	0.19222976	0.12852336	0.73758996	0.6344214	
1465355275547815	0.1933465	0.12584458	0.7400161	0.63178825	
1465355285527063	0.19311988	0.12372148	0.7424161	0.62945694	
1465355295536829	0.19156078	0.12252908	0.74481773	0.6273259	
1465355305516077	0.18900537	0.12227077	0.7471877	0.6253298	
1465355315495325	0.18605943	0.1225746	0.7496361	0.62321997	
1465355325505090	0.1843326	0.12234624	0.7523771	0.62046885	
1465355335514856	0.18685533	0.12098623	0.755479	0.61619717	
1465355345494104	0.19209988	0.119978204	0.7583811	0.6111962	
1465355355503870	0.19787186	0.120783314	0.7605857	0.60643834	
1465355365483118	0.20428456	0.12336275	0.7620604	0.6019248	
1465355375492883	0.21102305	0.12756856	0.7629281	0.5976088	
1465355385502649	0.21504012	0.13496366	0.763798	0.59342664	
1465355395481897	0.21642852	0.14336649	0.7647781	0.5896772	
1465355405491663	0.21775015	0.15008251	0.7659	0.58605224	
1465355415501428	0.21892603	0.15491022	0.76727176	0.58255327	
1465355425480676	0.21937191	0.15836391	0.768777	0.57946414	
1465355435490442	0.2190588	0.1605715	0.77055967	0.57660013	
1465355445469690	0.21822271	0.16180086	0.7725598	0.57389086	
1465355455479456	0.2180607	0.1617943	0.774831	0.57088447	
1465355465458704	0.2190436	0.16064395	0.7771947	0.56761074	
1465355475468469	0.22127098	0.15861063	0.7794582	0.5642045	
1465355485478235	0.22434437	0.15612042	0.7814963	0.5608561	
1465355495457483	0.22752503	0.15368819	0.7833652	0.5576301	
1465355505467249	0.22990246	0.15197138	0.78531927	0.55436736	
1465355515446497	0.23112348	0.15169753	0.78750587	0.5508215	
1465355525456262	0.23111401	0.15318161	0.790108	0.54667264	
1465355535435510	0.22934565	0.15596177	0.7935318	0.54164916	
1465355545445276	0.2248734	0.15911023	0.7978917	0.5361761	
1465355555455042	0.21854703	0.16156764	0.8028501	0.5306267	
1465355565464807	0.21346498	0.16275121	0.8078149	0.5247665	
1465355575444055	0.21110006	0.16317773	0.8122281	0.51874405	
1465355585453821	0.21101718	0.16379938	0.8157671	0.51299673	
1465355595433069	0.21233237	0.16514981	0.8182675	0.5080146	
1465355605442835	0.21398659	0.16745616	0.8198569	0.50398695	
1465355615452600	0.21587096	0.17042224	0.8210253	0.5002733	
1465355635441614	0.21832256	0.17634496	0.8236302	0.49281946	
1465355675419641	0.21494192	0.17630146	0.8313631	0.48119968	
1465355715428186	0.20706998	0.15256643	0.8410331	0.47592932	
1465355715428186	0.20706998	0.15256643	0.8410331	0.47592932	
1465355735417200	0.2063358	0.14065117	0.8460828	0.4709424	
1465355735417200	0.2063358	0.14065117	0.8460828	0.4709424	
1465355735417200	0.2063358	0.14065117	0.8460828	0.4709424	
1465355735417200	0.2063358	0.14065117	0.8460828	0.4709424	
1465355735417200	0.2063358	0.14065117	0.8460828	0.4709424	
1465355735417200	0.2063358	0.14065117	0.8460828	0.4709424	
1465355745426965	0.20648399	0.13569129	0.8488408	0.46735603	
1465355745426965	0.20648399	0.13569129	0.8488408	0.46735603	
1465355745426965	0.20648399	0.13569129	0.8488408	0.46735603	
1465355755406214	0.20722467	0.1309915	0.85160464	0.46332365	
1465355765415979	0.20868674	0.12641165	0.8541886	0.45916438	
1465355775395227	0.21059129	0.12209699	0.85637987	0.455365	
1465355785374475	0.21270666	0.11792317	0.85813737	0.4521617	
1465355795384241	0.21506977	0.113557704	0.85954636	0.4494771	
1465355805394006	0.21754988	0.10897214	0.8606725	0.44725817	
1465355815373255	0.21931879	0.10450452	0.86175156	0.4453788	
1465355825383020	0.22036472	0.099986106	0.8629362	0.44360268	
1465355835362268	0.22128773	0.095077395	0.86418355	0.4417906	
1465355845372034	0.22216445	0.08967211	0.8655935	0.4397155	
1465355855351282	0.22262125	0.084183745	0.8671995	0.43739903	
1465355865361047	0.22206289	0.07902929	0.8690864	0.4348922	
1465355875370813	0.22116697	0.07430586	0.8714315	0.4314751	
1465355885350061	0.22065783	0.070172735	0.8739594	0.4272947	
1465355895359827	0.22043869	0.06717001	0.87618536	0.4233136	
1465355905339075	0.22047596	0.065718286	0.8776637	0.42044953	
1465355915348840	0.22089754	0.06571691	0.878119	0.41927642	
1465355925358606	0.22197136	0.06706585	0.87764007	0.41949844	
1465355935337854	0.22339244	0.06948302	0.87678796	0.42013177	
1465355945347620	0.22500697	0.07241414	0.87607276	0.42026725	
1465355965336633	0.2279785	0.07758956	0.875622	0.41867864	
1465355965336633	0.2279785	0.07758956	0.875622	0.41867864	
1465355975346399	0.22924453	0.079276524	0.8756303	0.4176525	
1465355985325647	0.23030432	0.08036436	0.8755699	0.41698763	
1465355995335413	0.23075888	0.08121187	0.8753277	0.4170808	
1465356005314661	0.23105507	0.08212921	0.8746677	0.41812056	
1465356015324426	0.2321709	0.083061345	0.87341595	0.4199311	
1465356025334192	0.2341988	0.084024124	0.871717	0.42213786	
1465356035343958	0.23651542	0.08509497	0.8699262	0.42432013	
1465356045323206	0.23825932	0.08604868	0.86845833	0.4261551	
1465356055332971	0.2388803	0.08657686	0.8675693	0.42750922	
1465356065342737	0.23839922	0.08652547	0.8673481	0.42823628	
1465356075352503	0.2371329	0.08581498	0.8677298	0.42830935	
1465356085331751	0.23556046	0.08462692	0.86844176	0.4279702	
1465356095310999	0.23421377	0.08313915	0.86916685	0.42752862	
1465356125309778	0.23378195	0.078638084	0.86986196	0.42720276	
1465356125309778	0.23378195	0.078638084	0.86986196	0.42720276	
1465356125309778	0.23378195	0.078638084	0.86986196	0.42720276	
1465356135319544	0.2343402	0.07793795	0.8697183	0.4273177	
1465356145329309	0.23464389	0.077801615	0.86969215	0.42722908	
1465356155308557	0.2343627	0.07823207	0.8699421	0.4267958	
1465356165287805	0.23335524	0.07919651	0.8704554	0.4261228	
1465356175297571	0.23167545	0.080436505	0.87108755	0.42551482	
1465356185307337	0.22941925	0.081696816	0.87163985	0.4253663	
1465356195286585	0.22673883	0.08268102	0.8719675	0.42594132	
1465356205296350	0.22383426	0.08320611	0.8720137	0.42727885	
1465356215275598	0.22081654	0.08316962	0.8716794	0.4295322	
1465356225285364	0.21771319	0.08251278	0.87087137	0.4328692	
1465356235295130	0.21468031	0.081294134	0.8696355	0.43707865	
1465356255284143	0.2087544	0.078270055	0.86668265	0.44626975	
1465356255284143	0.2087544	0.078270055	0.86668265	0.44626975	
1465356265263391	0.20503263	0.077323385	0.8656585	0.45013103	
1465356285282922	0.19743964	0.07766818	0.8645316	0.45559886	
1465356285282922	0.19743964	0.07766818	0.8645316	0.45559886	
1465356295262171	0.19338174	0.07976194	0.8644841	0.45706537	
1465356305271936	0.1904577	0.08202768	0.8644716	0.4579151	
1465356315281702	0.18903238	0.08337672	0.8642943	0.45859626	
1465356325260950	0.18752146	0.084430926	0.8641926	0.45921478	
1465356335270715	0.18585463	0.085376166	0.8641758	0.4597491	
1465356355259729	0.18198527	0.08696745	0.8644522	0.4604786	
1465356355259729	0.18198527	0.08696745	0.8644522	0.4604786	
1465356365269495	0.18006612	0.08790651	0.8645662	0.46084028	
1465356375248743	0.1786424	0.08932822	0.8644051	0.46142316	
1465356385258508	0.17772268	0.09147787	0.8638579	0.46238074	
1465356395237756	0.1770521	0.09465321	0.8629369	0.4637166	
1465356405247522	0.17664397	0.09888463	0.8616444	0.4653898	
1465356415226770	0.17646676	0.10417091	0.8600298	0.4672865	
1465356425206018	0.1762086	0.11078067	0.85819316	0.46923628	
1465356435215784	0.17618985	0.11864541	0.856212	0.47093672	
1465356455204797	0.17819963	0.13619709	0.8519182	0.47321302	
1465356455204797	0.17819963	0.13619709	0.8519182	0.47321302	
1465356465214563	0.17946602	0.14520445	0.8497391	0.47397366	
1465356475224329	0.18041775	0.15392444	0.8475767	0.47473198	
1465356485203577	0.18086818	0.16203669	0.84542805	0.47569132	
1465356495182825	0.18051744	0.16925035	0.8433699	0.4769642	
1465356505192590	0.1788514	0.17561391	0.8414789	0.4786285	
1465356515202356	0.17541382	0.18143699	0.8397739	0.48071864	
1465356525181604	0.17024054	0.18703377	0.8382886	0.48302034	
1465356535191370	0.16407324	0.19261666	0.8369186	0.48533085	
1465356545201135	0.1576765	0.19845566	0.83547443	0.48758158	
1465356555180383	0.15183654	0.2046849	0.83376586	0.4897797	
1465356575169397	0.14301394	0.21833396	0.8294211	0.49390075	
1465356575169397	0.14301394	0.21833396	0.8294211	0.49390075	
1465356585179163	0.1391869	0.22573085	0.82692504	0.49585035	
1465356615177942	0.120411605	0.2504884	0.8197763	0.5007228	
1465356615177942	0.120411605	0.2504884	0.8197763	0.5007228	
1465356615177942	0.120411605	0.2504884	0.8197763	0.5007228	
1465356625187708	0.1107991	0.25963774	0.8177581	0.501581	
1465356635197473	0.10057941	0.2686223	0.8159581	0.5019346	
1465356645207239	0.09055071	0.27685446	0.8144074	0.5018891	
1465356655186487	0.08127004	0.283971	0.8130343	0.50172794	
1465356665196253	0.07305899	0.2899435	0.81169426	0.50174457	
1465356695164514	0.05698533	0.30140927	0.80741584	0.50396895	
1465356695164514	0.05698533	0.30140927	0.80741584	0.50396895	
1465356695164514	0.05698533	0.30140927	0.80741584	0.50396895	
1465356705143762	0.05461629	0.30325168	0.80604976	0.50531095	
1465356715153528	0.053090237	0.3042868	0.8047496	0.5069211	
1465356725132776	0.051761024	0.30461454	0.80360496	0.50867444	
1465356735142542	0.049971227	0.30463594	0.80261445	0.5104017	
1465356745152307	0.047564898	0.30459917	0.80175596	0.5120003	
1465356755131555	0.04474434	0.30460638	0.8009903	0.51344675	
1465356775120569	0.03953875	0.30507892	0.79965353	0.51567227	
1465356775120569	0.03953875	0.30507892	0.79965353	0.51567227	
1465356785130335	0.037957843	0.30555773	0.7990211	0.51648706	
1465356805119348	0.036874324	0.30744815	0.7974509	0.5178686	
1465356805119348	0.036874324	0.30744815	0.7974509	0.5178686	
1465356825138880	0.037333377	0.3111398	0.7951517	0.5191647	
1465356825138880	0.037333377	0.3111398	0.7951517	0.5191647	
1465356845127893	0.038488284	0.31726456	0.7917282	0.52060395	
1465356845127893	0.038488284	0.31726456	0.7917282	0.52060395	
1465356855137659	0.03907592	0.32131234	0.789534	0.5214092	
1465356865147424	0.039688747	0.32592583	0.7871181	0.52215165	
1465356875126672	0.04030756	0.33093098	0.7845207	0.52286446	
1465356895115686	0.041068222	0.34153658	0.77876633	0.5245848	
1465356895115686	0.041068222	0.34153658	0.77876633	0.5245848	
1465356905094934	0.04097528	0.3468855	0.7756457	0.5257046	
1465356925114465	0.039717775	0.35758162	0.76921016	0.5280848	
1465356925114465	0.039717775	0.35758162	0.76921016	0.5280848	
1465356935093714	0.038472142	0.3625143	0.7663426	0.5289823	
1465356945103479	0.03665114	0.36671546	0.7641082	0.52944803	
1465356955113245	0.034322493	0.37013036	0.7624919	0.529558	
1465356965123010	0.031777132	0.3728807	0.761263	0.52955526	
1465356975102258	0.029145697	0.37519026	0.7601269	0.5297074	
1465356985081506	0.026726315	0.37714925	0.7588131	0.530327	
1465356995091272	0.024970027	0.37868875	0.75721943	0.53159195	
1465357005070520	0.023983732	0.37985486	0.75543153	0.53334624	
1465357015080286	0.02384985	0.3807858	0.7534907	0.5354299	
1465357025090051	0.024584513	0.38174778	0.75149614	0.5375107	
1465357035069299	0.025988644	0.38315845	0.7494689	0.53926843	
1465357045079065	0.027913034	0.38504508	0.7473873	0.54071563	
1465357055058313	0.030020896	0.38717788	0.74528414	0.54198104	
1465357065068079	0.031860583	0.3891041	0.7432055	0.54334927	
1465357075047327	0.033151638	0.3904597	0.7411889	0.5450517	
1465357095066858	0.03403517	0.39042643	0.7377334	0.54968923	
1465357095066858	0.03403517	0.39042643	0.7377334	0.54968923	
1465357105076624	0.033528805	0.38852403	0.73667955	0.55247456	
1465357115055872	0.032562878	0.38529903	0.7361468	0.5554928	
1465357125065637	0.03129619	0.38090438	0.73602074	0.55875397	
1465357145054651	0.027579939	0.3696758	0.7365859	0.56570345	
1465357145054651	0.027579939	0.3696758	0.7365859	0.56570345	
1465357155064417	0.024677848	0.3629744	0.73732686	0.56920093	
1465357175053430	0.016123088	0.3481807	0.73975664	0.5755608	
1465357175053430	0.016123088	0.3481807	0.73975664	0.5755608	
1465357195042444	0.0083433995	0.33297443	0.74282527	0.5807487	
1465357195042444	0.0083433995	0.33297443	0.74282527	0.5807487	
1465357205052210	0.00682138	0.32556403	0.7444261	0.5829162	
1465357225010706	0.008551418	0.31201795	0.74728686	0.5866294	
1465357225010706	0.008551418	0.31201795	0.74728686	0.5866294	
1465357235020471	0.010483213	0.30567977	0.7486212	0.5882314	
1465357245030237	0.012289059	0.29944882	0.7499745	0.58967584	
1465357255009485	0.013652551	0.29335225	0.75138247	0.5909166	
1465357265019251	0.014270056	0.2876672	0.75282973	0.59185416	
1465357274998499	0.013950191	0.28291556	0.7542364	0.5923611	
1465357285008264	0.012692841	0.27932206	0.7555939	0.59236467	
1465357304997278	0.008530563	0.27579966	0.7580499	0.59095013	
1465357304997278	0.008530563	0.27579966	0.7580499	0.59095013	
1465357315007044	0.006261143	0.27572793	0.7590933	0.58967125	
1465357325016809	0.004269299	0.27660432	0.7599669	0.5881515	
1465357335026575	0.0027181134	0.27829048	0.760595	0.58655113	
1465357345005823	0.0016238496	0.28066054	0.7609127	0.5850119	
1465357354985071	9.3883614E-4	0.28359216	0.7608839	0.58363545	
1465357374943567	2.4711166E-4	0.29072958	0.7598821	0.58142537	
1465357374943567	2.4711166E-4	0.29072958	0.7598821	0.58142537	
1465357384953333	7.509962E-5	0.29470417	0.7590783	0.5804736	
1465357404972864	7.117428E-4	0.3028771	0.7572636	0.5786336	
1465357404972864	7.117428E-4	0.3028771	0.7572636	0.5786336	
1465357414982630	0.0017943158	0.30690178	0.75635964	0.5776921	
1465357424961878	0.0034993207	0.31075108	0.75551945	0.5767251	
1465357444950891	0.0086233765	0.31767005	0.754072	0.57479286	
1465357444950891	0.0086233765	0.31767005	0.754072	0.57479286	
1465357454960657	0.011778899	0.3207084	0.75340885	0.5739185	
1465357464970422	0.015041548	0.32350358	0.7527894	0.57308584	
1465357474949671	0.0182491	0.3260447	0.75223947	0.572274	
1465357484959436	0.021245271	0.32835943	0.7517774	0.5714538	
1465357494938684	0.023797657	0.33051783	0.75139374	0.57061285	
1465357504948450	0.025689607	0.33259952	0.7510386	0.56978816	
1465357514958215	0.026723199	0.3346651	0.7507255	0.5689432	
1465357524937464	0.02684335	0.3367446	0.7505111	0.56799257	
1465357534947229	0.026055858	0.3388826	0.7504611	0.5668225	
1465357544956995	0.024554601	0.3411031	0.75064754	0.56530875	
1465357554936243	0.022622839	0.34342107	0.7510727	0.56341815	
1465357564946008	0.02042869	0.3458917	0.7517335	0.5611045	
1465357574925256	0.018178424	0.34844932	0.75266343	0.5583461	
1465357584935022	0.01602782	0.35094014	0.7538547	0.5552363	
1465357594914270	0.01413587	0.35310233	0.75523937	0.55202585	
1465357604924036	0.012685084	0.35462177	0.75673294	0.5490334	
1465357624913049	0.011566743	0.354709	0.75966716	0.54493445	
1465357624913049	0.011566743	0.354709	0.75966716	0.54493445	
1465357634922815	0.011595244	0.35313284	0.76110727	0.54394716	
1465357644932581	0.0116508715	0.3505038	0.762645	0.5434923	
1465357654911829	0.011454387	0.34687135	0.7644222	0.54333025	
1465357674900842	0.009507599	0.33664468	0.7691697	0.5431003	
1465357674900842	0.009507599	0.33664468	0.7691697	0.5431003	
1465357684910608	0.008254058	0.32999647	0.7721605	0.542957	
1465357694889856	0.00734833	0.32248494	0.77528393	0.54303247	
1465357704899622	0.0067346734	0.3143374	0.77831805	0.54347736	
1465357714878870	0.006196349	0.30584225	0.781172	0.5442357	
1465357724888635	0.0055064284	0.29718572	0.78397286	0.545011	
1465357734898401	0.00447782	0.28859925	0.7869953	0.54527867	
1465357744877649	0.0028157202	0.28039387	0.7904444	0.5445815	
1465357754887415	3.616382E-4	0.27279425	0.7944028	0.54268533	
1465357764866663	-0.0025991113	0.26589802	0.79874635	0.5397183	
1465357784886194	-0.0075701713	0.2539411	0.80792564	0.53170747	
1465357784886194	-0.0075701713	0.2539411	0.80792564	0.53170747	
1465357794895960	-0.008338398	0.24886519	0.81227326	0.527455	
1465357804905725	-0.0075388253	0.24435608	0.8162133	0.5234779	
1465357814884973	-0.005106917	0.24035943	0.81970996	0.51988155	
1465357824864221	-0.0010192782	0.23674677	0.8228295	0.5166251	
1465357834843469	0.004653847	0.23345394	0.8256322	0.5136235	
1465357844853235	0.011605964	0.23050724	0.8281353	0.51080674	
1465357854863001	0.019249205	0.22799377	0.8303346	0.5081266	
1465357864872766	0.026980808	0.22598885	0.8322332	0.50555813	
1465357874852014	0.034277946	0.22455017	0.83382976	0.50312036	
1465357884861780	0.040755656	0.22372986	0.83513427	0.50083405	
1465357894841028	0.046061993	0.22357444	0.8361696	0.4987115	
1465357904820276	0.05331718	0.22549257	0.8376097	0.4946923	
1465357914830042	0.05331718	0.22549257	0.8376097	0.4946923	
1465357924809290	0.056015633	0.22748582	0.83801174	0.49279684	
1465357934819055	0.05859151	0.23012817	0.83817524	0.49098924	
1465357944828821	0.061092824	0.23345403	0.8381129	0.48921746	
1465357954808069	0.06347454	0.23748522	0.8378228	0.48746753	
1465357964817835	0.06563074	0.24218112	0.837327	0.4857205	
1465357974797083	0.067411296	0.24730727	0.83666945	0.4840237	
1465357984806848	0.068717696	0.25266424	0.83588153	0.48243207	
1465357994786096	0.069557145	0.2580317	0.83498466	0.48102197	
1465358004795862	0.070003144	0.2633403	0.8339834	0.47981572	
1465358014805628	0.07020898	0.2683912	0.83294207	0.47879466	
1465358024784876	0.070349045	0.2729787	0.831959	0.47788894	
1465358034794641	0.070669726	0.2768577	0.8311627	0.47699502	
1465358044804407	0.07145605	0.27969703	0.83067673	0.47606692	
1465358054783655	0.072950356	0.28124148	0.83055395	0.47514352	
1465358064793421	0.07529736	0.28137976	0.8307752	0.4743082	
1465358074772669	0.078462474	0.2801511	0.8312539	0.47368333	
1465358084782434	0.08214795	0.27775392	0.83187604	0.473378	
1465358094761682	0.08590157	0.2745015	0.83255166	0.47342098	
1465358104771448	0.08946325	0.2706693	0.8332348	0.47376603	
1465358124790979	0.0956679	0.2622459	0.83477974	0.4745708	
1465358124790979	0.0956679	0.2622459	0.83477974	0.4745708	
1465358134770227	0.0985011	0.25781965	0.83583575	0.47455782	
1465358144779993	0.1014827	0.25311726	0.8371447	0.47415364	
1465358154759241	0.10468128	0.24799961	0.8386176	0.47355944	
1465358164769006	0.107861824	0.24244761	0.84018755	0.47293746	
1465358194767786	0.11462653	0.2245267	0.8450427	0.4715414	
1465358194767786	0.11462653	0.2245267	0.8450427	0.4715414	
1465358194767786	0.11462653	0.2245267	0.8450427	0.4715414	
1465358204777551	0.1155253	0.21894334	0.8464985	0.47133648	
1465358214756799	0.11570564	0.21402036	0.8477954	0.47122225	
1465358224766565	0.11506051	0.20996727	0.8489506	0.47112384	
1465358234745813	0.113480814	0.20695187	0.8500162	0.4709199	
1465358244755579	0.11081491	0.20492642	0.8510859	0.47050834	
1465358254765344	0.10680761	0.20382045	0.8522337	0.46983737	
1465358264744592	0.10155383	0.20352097	0.85343117	0.46895766	
1465358274754358	0.095243394	0.20369732	0.8545325	0.468199	
1465358284733606	0.08792517	0.2040675	0.85539645	0.46789145	
1465358294743372	0.0802961	0.2042128	0.8559628	0.46816397	
1465358304753137	0.07387856	0.20368858	0.8562099	0.46899647	
1465358314762903	0.06994753	0.20220378	0.8561499	0.4703491	
1465358334721399	0.0702268	0.19687079	0.8552795	0.47413832	
1465358334721399	0.0702268	0.19687079	0.8552795	0.47413832	
1465358344731165	0.07259174	0.19394861	0.85459924	0.47620848	
1465358354710413	0.07505635	0.19137865	0.8539033	0.4781108	
1465358364720178	0.07713702	0.18937162	0.8532464	0.47974876	
1465358374729944	0.07844936	0.18809646	0.8526302	0.4811312	
1465358384739710	0.07878783	0.18765874	0.85201645	0.48233253	
1465358394718958	0.078401424	0.18781145	0.8514067	0.48341158	
1465358404728723	0.0776579	0.18817723	0.85078794	0.48447746	
1465358414738489	0.076860584	0.18851073	0.8501798	0.48554137	
1465358424717737	0.07630736	0.18853559	0.8496614	0.4865255	
1465358434696985	0.07605858	0.18810767	0.84927875	0.48739746	
1465358444706751	0.07609423	0.18726285	0.84904623	0.4881217	
1465358454685999	0.07636945	0.18613108	0.84894073	0.48869497	
1465358464695764	0.076849654	0.18484443	0.84890395	0.48917145	
1465358484684778	0.07805723	0.18238837	0.8488233	0.4900413	
1465358484684778	0.07805723	0.18238837	0.8488233	0.4900413	
1465358494694544	0.0786498	0.18136902	0.8487067	0.49052665	
1465358504673792	0.079114035	0.18053183	0.84853923	0.49105024	
1465358514683557	0.07951807	0.1797927	0.8483813	0.49152884	
1465358534703089	0.080622345	0.178201	0.848284	0.49209636	
1465358534703089	0.080622345	0.178201	0.848284	0.49209636	
1465358544682337	0.08127372	0.17754945	0.8483344	0.4921377	
1465358554661585	0.08185505	0.17720328	0.8484466	0.49197266	
1465358564671350	0.08225834	0.17713128	0.84862953	0.49161574	
1465358574650598	0.082511805	0.17716564	0.848878	0.49113145	
1465358584629846	0.0827655	0.17716773	0.8492072	0.49051884	
1465358594639612	0.08306317	0.1770332	0.849628	0.48978794	
1465358604649378	0.0832641	0.17675814	0.85010934	0.4890172	
1465358614628626	0.083407626	0.1764372	0.8505523	0.4883379	
1465358634648157	0.08474709	0.17593221	0.8512367	0.4870953	
1465358634648157	0.08474709	0.17593221	0.8512367	0.4870953	
1465358644627405	0.08663124	0.17559196	0.8515708	0.48630202	
1465358654637171	0.08919333	0.17525549	0.85191303	0.48535985	
1465358664616419	0.09198108	0.1750452	0.85232717	0.4841869	
1465358674626184	0.09462359	0.1750199	0.85290176	0.48267266	
1465358694615198	0.09885533	0.17553228	0.8546613	0.47850823	
1465358694615198	0.09885533	0.17553228	0.8546613	0.47850823	
1465358704624964	0.10033159	0.17595649	0.8558263	0.47595614	
1465358714604212	0.10129063	0.17635141	0.8571295	0.47325397	
1465358724613977	0.10190683	0.17648113	0.8585461	0.4704977	
1465358744602991	0.103016935	0.17490524	0.8615596	0.4653071	
1465358744602991	0.103016935	0.17490524	0.8615596	0.4653071	
1465358754612756	0.10348187	0.17307079	0.8631651	0.46290824	
1465358764592005	0.103607364	0.1707594	0.86484456	0.46059817	
1465358774601770	0.10299671	0.16817501	0.86658716	0.4584053	
1465358784581018	0.1011328	0.16542384	0.8683808	0.45642304	
1465358794590784	0.0978616	0.1622643	0.8702716	0.4546654	
1465358804600549	0.09354896	0.15838294	0.87228346	0.45308387	
1465358824589563	0.08492672	0.1481935	0.8764525	0.45017454	
1465358824589563	0.08492672	0.1481935	0.8764525	0.45017454	
1465358834599329	0.08238825	0.1423345	0.87824035	0.44905108	
1465358844609094	0.081561334	0.13662839	0.87959987	0.44831285	
1465358854588342	0.082195975	0.13170743	0.880456	0.44798914	
1465358874577356	0.085898526	0.12606283	0.8809095	0.44802696	
1465358874577356	0.085898526	0.12606283	0.8809095	0.44802696	
1465358884587122	0.08815712	0.12575962	0.8807051	0.44807512	
1465358894596887	0.090357	0.12696154	0.88037956	0.44793773	
1465358904576135	0.09245544	0.12919363	0.8800324	0.44755337	
1465358914585901	0.09431115	0.13191342	0.87974536	0.44693664	
1465358924565149	0.0956586	0.13463424	0.87955433	0.4462143	
1465358934574915	0.09622567	0.13707995	0.8794546	0.4455439	
1465358944584680	0.095806226	0.1390595	0.87942505	0.44507873	
1465358954594446	0.09434053	0.14036189	0.87944645	0.44494104	
1465358964573694	0.09218439	0.140747	0.87950945	0.4451464	
1465358974552942	0.089886904	0.1400565	0.8796118	0.44563168	
1465358984562708	0.08787231	0.13831633	0.87975687	0.44629014	
1465358994572473	0.08669055	0.13569918	0.8799326	0.44697788	
1465359004582239	0.08681983	0.13243084	0.8801347	0.44753465	
1465359014561487	0.088233784	0.1288795	0.8804093	0.44775483	
1465359024540735	0.09065173	0.12539145	0.8808183	0.44745764	
1465359034550501	0.093807206	0.12225153	0.88135415	0.44662035	
1465359044560266	0.09738751	0.119693704	0.8819062	0.44545543	
1465359054539514	0.10112637	0.11780002	0.882363	0.44422087	
1465359064549280	0.10485331	0.1165323	0.8826527	0.44311428	
1465359074528528	0.10834791	0.11575776	0.8827513	0.4422794	
1465359084538294	0.11154508	0.11526141	0.88272834	0.44165954	
1465359094548059	0.114388615	0.11478881	0.88267493	0.44116184	
1465359114537073	0.11880244	0.11303346	0.8827318	0.4403341	
1465359114537073	0.11880244	0.11303346	0.8827318	0.4403341	
1465359124516321	0.12057623	0.111565575	0.88286513	0.43995845	
1465359134526087	0.12224665	0.109820515	0.8830056	0.4396548	
1465359144535852	0.1239039	0.10802485	0.8830765	0.43949348	
1465359164524866	0.127497	0.1050852	0.88274926	0.43983552	
1465359164524866	0.127497	0.1050852	0.88274926	0.43983552	
1465359174504114	0.1294962	0.1043254	0.8821899	0.44055417	
1465359194493128	0.13335484	0.10486718	0.88017434	0.44329712	
1465359194493128	0.13335484	0.10486718	0.88017434	0.44329712	
1465359204502893	0.13467574	0.10607437	0.87889224	0.4451508	
1465359214512659	0.13545437	0.10762036	0.87761176	0.44706568	
1465359224491907	0.13602059	0.109131224	0.8763824	0.44893515	
1465359244511438	0.1384558	0.11049957	0.87392825	0.4526248	
1465359244511438	0.1384558	0.11049957	0.87392825	0.4526248	
1465359254490686	0.14075392	0.110118315	0.8726143	0.45453992	
1465359264500452	0.14362308	0.10930697	0.8712004	0.45654604	
1465359274510217	0.14647831	0.10846041	0.8697442	0.45861247	
1465359284489465	0.14883465	0.1077994	0.86832136	0.46070105	
1465359294468714	0.15055218	0.10731631	0.86700076	0.46273845	
1465359304447962	0.15146585	0.106934264	0.8658713	0.46463975	
1465359314457727	0.15107271	0.10665145	0.86501956	0.46641576	
1465359324467493	0.14919767	0.10639267	0.86442095	0.46818486	
1465359334477258	0.14614452	0.10606293	0.86389655	0.47018635	
1465359344456506	0.14263207	0.10544197	0.86327505	0.4725402	
1465359354466272	0.13965556	0.10422162	0.8623735	0.47533795	
1465359364445520	0.13802066	0.10241906	0.86108863	0.4785258	
1465359374455286	0.13826549	0.10023226	0.8594416	0.48186734	
1465359394444299	0.14307319	0.09649465	0.8557586	0.48774597	
1465359394444299	0.14307319	0.09649465	0.8557586	0.48774597	
1465359404454065	0.14578536	0.09588377	0.8540547	0.49004444	
1465359424443079	0.14798681	0.09798055	0.851295	0.49375755	
1465359424443079	0.14798681	0.09798055	0.851295	0.49375755	
1465359434452844	0.14721726	0.10013963	0.8501941	0.49544847	
1465359454441858	0.14442228	0.10409797	0.84811383	0.4990076	
1465359454441858	0.14442228	0.10409797	0.84811383	0.4990076	
1465359464451624	0.14344434	0.10496152	0.846998	0.5010003	
1465359474430872	0.1428308	0.10484838	0.8457885	0.5032378	
1465359484440637	0.14234923	0.10411062	0.8444965	0.5056909	
1465359494419885	0.14190382	0.1031255	0.8431937	0.508186	
1465359504429651	0.14153062	0.10218227	0.8419492	0.5105384	
1465359514439417	0.14138328	0.10149252	0.8408001	0.5126063	
1465359524418665	0.14160007	0.1011272	0.8397412	0.51435155	
1465359534428430	0.14215982	0.10114214	0.83874226	0.51582193	
1465359544407678	0.14292964	0.101584435	0.83778614	0.5170745	
1465359554417444	0.1438354	0.1025218	0.8368138	0.51821166	
1465359564427210	0.1448828	0.10399252	0.83576363	0.51932025	
1465359574406458	0.14602537	0.10593181	0.83461183	0.5204596	
1465359584416223	0.14709364	0.10821126	0.83340484	0.52162266	
1465359594425989	0.14785923	0.11063481	0.83227247	0.5227048	
1465359604405237	0.14820546	0.11296784	0.83131605	0.5236287	
1465359614384485	0.14812468	0.11496666	0.8306046	0.5243451	
1465359624394251	0.14760819	0.11645236	0.83016443	0.5248596	
1465359634404016	0.14669314	0.11741096	0.8299131	0.52529997	
1465359644383264	0.14576285	0.1178196	0.8296992	0.52580506	
1465359654393030	0.14529936	0.11756182	0.8293901	0.5264783	
1465359664372278	0.14557508	0.11658577	0.8288918	0.5274032	
1465359674382044	0.14648609	0.11519852	0.8281711	0.5285865	
1465359684391809	0.1477539	0.11390336	0.82731533	0.529853	
1465359694371057	0.14909235	0.11311309	0.82646835	0.5309679	
1465359704380823	0.15037784	0.113093026	0.82572824	0.5317607	
1465359714360071	0.1517024	0.113959014	0.8251296	0.5321286	
1465359724369837	0.1532459	0.11571439	0.82462674	0.53208697	
1465359734349085	0.15510005	0.118194625	0.8241637	0.53172195	
1465359754368616	0.15991366	0.124828115	0.8230718	0.53047	
1465359754368616	0.15991366	0.124828115	0.8230718	0.53047	
1465359764347864	0.1629757	0.1287605	0.8224088	0.5296257	
1465359774357630	0.16627556	0.13293545	0.82170296	0.5286633	
1465359784367395	0.16954178	0.13710815	0.8210038	0.5276454	
1465359794346643	0.17243178	0.14110596	0.8204442	0.5265241	
1465359814335657	0.17574018	0.14806461	0.82016695	0.52394515	
1465359814335657	0.17574018	0.14806461	0.82016695	0.52394515	
1465359824345422	0.17559583	0.15072536	0.8204864	0.52273333	
1465359834355188	0.17437883	0.15257297	0.8209794	0.5218299	
1465359844334436	0.17245272	0.15349282	0.82155746	0.5212901	
1465359864323450	0.16737993	0.15324198	0.8226117	0.5213548	
1465359864323450	0.16737993	0.15324198	0.8226117	0.5213548	
1465359874333215	0.16453527	0.15269963	0.82296944	0.52185464	
1465359884312464	0.16177927	0.15227272	0.8232317	0.52242696	
1465359894322229	0.15910454	0.15228459	0.82343304	0.5229274	
1465359904331995	0.15646963	0.15295032	0.82353497	0.5233677	
1465359914311243	0.1538034	0.15426785	0.82346463	0.5238817	
1465359924290491	0.1509344	0.15604644	0.8231903	0.52462006	
1465359934300256	0.14778087	0.1580966	0.8226692	0.5257201	
1465359944310022	0.1444466	0.16023305	0.8218663	0.52725357	
1465359964329553	0.13771999	0.16479012	0.81921387	0.5317575	
1465359964329553	0.13771999	0.16479012	0.81921387	0.5317575	
1465359974308801	0.13441803	0.16768654	0.81727314	0.5346753	
1465359984288049	0.13101329	0.17135982	0.8148901	0.53798276	
1465359994297815	0.12726703	0.17597452	0.81211156	0.54158175	
1465360014286829	0.11820988	0.18782294	0.80569124	0.5491908	
1465360014286829	0.11820988	0.18782294	0.80569124	0.5491908	
1465360024296594	0.112723626	0.19506271	0.8020755	0.55309933	
1465360034306360	0.10666259	0.20312764	0.7981779	0.55702275	
1465360044316126	0.10015392	0.21207008	0.79400885	0.5608434	
1465360054295374	0.09352124	0.22198568	0.78953934	0.56444997	
1465360064305139	0.08723393	0.23293497	0.78473204	0.56773865	
1465360084294153	0.0772822	0.25688556	0.774008	0.5735406	
1465360084294153	0.0772822	0.25688556	0.774008	0.5735406	
1465360094273401	0.07361422	0.2688586	0.7681982	0.5763398	
1465360114262415	0.06664816	0.29051504	0.75648504	0.58214206	
1465360114262415	0.06664816	0.29051504	0.75648504	0.58214206	
1465360124272180	0.0628262	0.2996918	0.75123745	0.58470505	
1465360134281946	0.058821686	0.30761015	0.7467772	0.5867196	
1465360144261194	0.05457806	0.31428513	0.74315435	0.5881902	
1465360164250208	0.045694035	0.32367873	0.7377393	0.59066474	
1465360164250208	0.045694035	0.32367873	0.7377393	0.59066474	
1465360174259973	0.041280944	0.3259876	0.7355625	0.59243214	
1465360184269739	0.036897663	0.3264969	0.73357326	0.5949021	
1465360194248987	0.032554615	0.3251914	0.7317187	0.5981458	
1465360214268518	0.023206217	0.31845728	0.7284546	0.6061356	
1465360214268518	0.023206217	0.31845728	0.7284546	0.6061356	
1465360224247766	0.017848812	0.31413862	0.72733396	0.60990465	
1465360234257532	0.011859579	0.30982688	0.7267687	0.6129225	
1465360244236780	0.005403133	0.30564705	0.7268155	0.6150528	
1465360264225794	-0.008988202	0.29624128	0.7291239	0.61687815	
1465360264225794	-0.008988202	0.29624128	0.7291239	0.61687815	
1465360274235559	-0.01617368	0.29189393	0.73098767	0.6165982	
1465360284214807	-0.022356786	0.28764316	0.73274577	0.6163159	
1465360294224573	-0.02770542	0.28356022	0.7342083	0.6162501	
1465360304203821	-0.03235138	0.27982795	0.73526275	0.61647254	
1465360314213587	-0.03623987	0.27632132	0.73601943	0.6169348	
1465360334233118	-0.042114995	0.2693869	0.73762244	0.61771363	
1465360334233118	-0.042114995	0.2693869	0.73762244	0.61771363	
1465360344212366	-0.044426676	0.26586053	0.7386902	0.6178035	
1465360364201380	-0.04837561	0.2601675	0.7407478	0.6174669	
1465360364201380	-0.04837561	0.2601675	0.7407478	0.6174669	
1465360374211145	-0.04979644	0.25823277	0.74136025	0.6174311	
1465360384220911	-0.050709315	0.25684878	0.7416107	0.6176333	
1465360394200159	-0.05098883	0.25586525	0.7414989	0.61815244	
1465360414219690	-0.050393764	0.25456566	0.740259	0.6202205	
1465360414219690	-0.050393764	0.25456566	0.740259	0.6202205	
1465360424198938	-0.050531555	0.2541438	0.7393452	0.62147105	
1465360444187952	-0.054342315	0.2543385	0.7375171	0.62323934	
1465360444187952	-0.054342315	0.2543385	0.7375171	0.62323934	
1465360454197717	-0.05822382	0.25534678	0.7367076	0.62343395	
1465360464207483	-0.06279092	0.25700912	0.7360571	0.62307584	
1465360474186731	-0.06732028	0.2591548	0.73559517	0.62225926	
1465360484165979	-0.071327634	0.26162863	0.73533785	0.6210805	
1465360494175745	-0.074518956	0.26426876	0.73529786	0.61963373	
1465360504154993	-0.07671672	0.26689267	0.7355295	0.6179638	
1465360514164758	-0.077898405	0.2693868	0.73604846	0.61611307	
1465360524144006	-0.07818432	0.27170786	0.7368249	0.61412627	
1465360534153772	-0.07786633	0.27388328	0.7378228	0.6119987	
1465360544163538	-0.07738759	0.27595842	0.7389841	0.6097218	
1465360554173303	-0.07722113	0.2779775	0.7402612	0.6072716	
1465360564152551	-0.07766262	0.27994192	0.74160665	0.6046657	
1465360574162317	-0.07878587	0.28185803	0.7429732	0.60194665	
1465360584141565	-0.080462255	0.28369278	0.7443179	0.59919536	
1465360594151331	-0.08246725	0.28543612	0.7456495	0.59643286	
1465360604161096	-0.084511645	0.28698498	0.74700344	0.5937031	
1465360614170862	-0.086291976	0.28829566	0.7483676	0.5910881	
1465360624150110	-0.087449044	0.28934914	0.7496865	0.5887275	
1465360634129358	-0.087783694	0.29018882	0.7508711	0.5867513	
1465360644108606	-0.087282516	0.2908912	0.75180995	0.5852741	
1465360664097620	-0.08445316	0.29230094	0.7527399	0.5837897	
1465360664097620	-0.08445316	0.29230094	0.7527399	0.5837897	
1465360674107385	-0.08271242	0.29320455	0.7527819	0.5835317	
1465360694096399	-0.07982622	0.29578844	0.75239295	0.5831311	
1465360694096399	-0.07982622	0.29578844	0.75239295	0.5831311	
1465360714115930	-0.07851982	0.29967266	0.75173986	0.58216673	
1465360714115930	-0.07851982	0.29967266	0.75173986	0.58216673	
1465360724095178	-0.07847779	0.30198547	0.75135815	0.5814696	
1465360734104944	-0.0787222	0.30439416	0.7509854	0.5806616	
1465360744084192	-0.07909283	0.30673787	0.7506721	0.5797824	
1465360754093958	-0.07946072	0.30890238	0.7504303	0.57889515	
1465360764073206	-0.07975019	0.31079492	0.75027055	0.57804894	
1465360774082971	-0.080003485	0.3124144	0.75019306	0.5772408	
1465360784062219	-0.08036007	0.3137974	0.750173	0.57646674	
1465360794071985	-0.080890544	0.31501338	0.750193	0.57570285	
1465360804081751	-0.081600934	0.31607252	0.7502504	0.57494676	
1465360814060999	-0.08250176	0.31705785	0.75032455	0.57417834	
1465360824070764	-0.083596766	0.3180345	0.7503771	0.5734106	
1465360834050012	-0.08490432	0.31899896	0.75038534	0.57267153	
1465360844059778	-0.086521514	0.3199869	0.7503265	0.571955	
1465360854069544	-0.088554434	0.32103553	0.75016916	0.5712621	
1465360874058557	-0.09439493	0.32335782	0.74953854	0.5698433	
1465360874058557	-0.09439493	0.32335782	0.74953854	0.5698433	
1465360884068323	-0.09843513	0.32459146	0.74911475	0.56901485	
1465360894047571	-0.10325412	0.32581353	0.7486778	0.56803674	
1465360904057337	-0.10887284	0.32690513	0.74829924	0.56685793	
1465360914067102	-0.1151662	0.32765168	0.74811625	0.5654231	
1465360924046350	-0.12195588	0.32784098	0.7482658	0.5636891	
1465360934025598	-0.12902638	0.32734457	0.7488235	0.56165916	
1465360944035364	-0.13599162	0.32612205	0.7497201	0.55952704	
1465360964024378	-0.1483724	0.32171786	0.7516718	0.5563027	
1465360964024378	-0.1483724	0.32171786	0.7516718	0.5563027	
1465360974034143	-0.15373574	0.31865856	0.7524389	0.55556977	
1465360984013391	-0.15852278	0.31517103	0.75299567	0.55545944	
1465360994023157	-0.16290371	0.31146798	0.75331974	0.55584115	
1465361004032922	-0.16709632	0.30774018	0.7535091	0.556416	
1465361014012171	-0.17118186	0.30398944	0.75381446	0.55682236	
1465361024021936	-0.17502585	0.30009708	0.7545045	0.55680406	
1465361044010950	-0.18079405	0.29221404	0.75770396	0.55480564	
1465361044010950	-0.18079405	0.29221404	0.75770396	0.55480564	
1465361054020715	-0.18230169	0.28871077	0.76018083	0.55275416	
1465361064030481	-0.18292186	0.28586212	0.7629689	0.5501826	
1465361074009729	-0.18285681	0.28384656	0.7657537	0.54737175	
1465361084019495	-0.18227482	0.2826417	0.76833427	0.5445658	
1465361094029260	-0.18131201	0.28220275	0.7705799	0.5419356	
1465361104008508	-0.18013565	0.28246891	0.7724016	0.5395908	
1465361114018274	-0.17890148	0.28333673	0.77379125	0.5375515	
1465361123997522	-0.17778686	0.28469595	0.77476114	0.5358034	
1465361134007288	-0.17679986	0.28645495	0.7753435	0.534348	
1465361144017053	-0.17579684	0.28850633	0.77560884	0.53318906	
1465361153996301	-0.17464639	0.29077253	0.775641	0.53228843	
1465361164006067	-0.1732568	0.29319498	0.77551514	0.53159666	
1465361173985315	-0.17159435	0.29566526	0.77532536	0.5310442	
1465361183995081	-0.169599	0.29807708	0.77518314	0.5305444	
1465361194004846	-0.16722953	0.30033544	0.77516055	0.53005576	
1465361203984094	-0.16437596	0.30241674	0.7752779	0.5295931	
1465361223973108	-0.15685657	0.30599827	0.7760132	0.5287387	
1465361223973108	-0.15685657	0.30599827	0.7760132	0.5287387	
1465361233982874	-0.15213038	0.30748236	0.7766338	0.5283473	
1465361243992639	-0.14693421	0.30877435	0.77733344	0.5280354	
1465361254002405	-0.14140418	0.3099386	0.7780383	0.527825	
1465361263981653	-0.13562408	0.31098923	0.7787414	0.5276871	
1465361273960901	-0.12970541	0.31185445	0.779499	0.52754575	
1465361283970667	-0.12388462	0.3124503	0.7803584	0.5273219	
1465361293980432	-0.11845435	0.31273538	0.78135383	0.52692634	
1465361303959680	-0.1136398	0.3127242	0.7825099	0.52627724	
1465361313969446	-0.109560356	0.31248307	0.78382	0.5253351	
1465361323948694	-0.10636387	0.31208324	0.7852477	0.52409613	
1465361333958460	-0.10402897	0.31148195	0.7867167	0.5227177	
1465361343968225	-0.1024342	0.31059387	0.78813094	0.52142906	
1465361353947473	-0.101456925	0.3094141	0.78941596	0.52037656	
1465361373967005	-0.10062527	0.30620763	0.79148686	0.51928806	
1465361373967005	-0.10062527	0.30620763	0.79148686	0.51928806	
1465361383946253	-0.1005119	0.304224	0.7922985	0.5192381	
1465361393956018	-0.100567944	0.3020405	0.79299235	0.51944256	
1465361403935266	-0.10089218	0.29975593	0.793553	0.5198469	
1465361423924280	-0.102838844	0.29501554	0.7944659	0.5207819	
1465361423924280	-0.102838844	0.29501554	0.7944659	0.5207819	
1465361433934046	-0.10469797	0.29257068	0.7949189	0.52109957	
1465361443943811	-0.10720942	0.29009092	0.7953542	0.5213109	
1465361453953577	-0.110330895	0.28762162	0.7956894	0.52151614	
1465361473912073	-0.11847373	0.28304768	0.7956682	0.52226454	
1465361473912073	-0.11847373	0.28304768	0.7956682	0.52226454	
1465361483921839	-0.12352041	0.2810854	0.79516655	0.5229187	
1465361493931604	-0.12899223	0.27937183	0.7943535	0.5237509	
1465361503910852	-0.13463196	0.2777868	0.79334384	0.52470386	
1465361513920618	-0.14035651	0.27604687	0.7922256	0.52581066	
1465361523899866	-0.14614162	0.27391878	0.7910789	0.5270722	
1465361533909631	-0.152016	0.2712573	0.78985393	0.528622	
1465361543888880	-0.15774052	0.26810095	0.7884457	0.5306535	
1465361553898645	-0.16319722	0.26462525	0.78669894	0.5333338	
1465361573918176	-0.17189446	0.2581522	0.7817803	0.54095227	
1465361573918176	-0.17189446	0.2581522	0.7817803	0.54095227	
1465361583927942	-0.17402388	0.25605997	0.77853966	0.5459167	
1465361593907190	-0.17411369	0.2551295	0.77485794	0.5515328	
1465361603886438	-0.17220695	0.2554524	0.7708836	0.5575189	
1465361613896204	-0.16867062	0.25700775	0.7667965	0.5634894	
1465361623875452	-0.16420263	0.2596448	0.76279527	0.5690039	
1465361633885217	-0.15944067	0.26318046	0.7589455	0.57386094	
1465361643864465	-0.15488888	0.26742613	0.7552925	0.5779498	
1465361653874231	-0.15093389	0.27225402	0.75178635	0.5813038	
1465361663883997	-0.14789505	0.2774736	0.7483477	0.58404726	
1465361673863245	-0.14588977	0.28279707	0.74497366	0.5863073	
1465361683873010	-0.14472643	0.2879891	0.7416275	0.588307	
1465361693882776	-0.14410621	0.2927827	0.738383	0.59017134	
1465361703862024	-0.14373794	0.29698703	0.7353809	0.59190637	
1465361723851038	-0.14262374	0.30348095	0.7304374	0.59499484	
1465361723851038	-0.14262374	0.30348095	0.7304374	0.59499484	
1465361733860803	-0.14135101	0.3058601	0.72865105	0.5962693	
1465361743840051	-0.13942042	0.30782405	0.72738063	0.59726363	
1465361753849817	-0.13683738	0.30953908	0.7265565	0.5979772	
1465361763829065	-0.13374485	0.3111727	0.7260288	0.5984698	
1465361773838831	-0.13019837	0.3128436	0.72565746	0.598831	
1465361783848596	-0.12624298	0.3145968	0.7253938	0.59907883	
1465361793858362	-0.12195804	0.31649262	0.7251683	0.59924084	
1465361803837610	-0.11737285	0.31853622	0.7249465	0.599342	
1465361813816858	-0.112564616	0.3207084	0.72472763	0.59937066	
1465361823826624	-0.10775902	0.3230312	0.72449595	0.5992866	
1465361833836389	-0.10325611	0.32551426	0.724248	0.59903556	
1465361843815637	-0.0992652	0.32814407	0.72401416	0.5985577	
1465361853794885	-0.09589159	0.3308959	0.7238317	0.597813	
1465361863804651	-0.093123145	0.33370537	0.72376347	0.5967707	
1465361873814417	-0.09088718	0.33648467	0.72384816	0.5954506	
1465361883824182	-0.08908729	0.33914766	0.7240926	0.5939126	
1465361903813196	-0.08633299	0.34384143	0.72518873	0.5902719	
1465361903813196	-0.08633299	0.34384143	0.72518873	0.5902719	
1465361923802210	-0.08440041	0.3473717	0.7270379	0.5861957	
1465361923802210	-0.08440041	0.3473717	0.7270379	0.5861957	
1465361933811975	-0.08398262	0.34867138	0.7281591	0.5840886	
1465361943821741	-0.08402833	0.3496489	0.7294361	0.5819002	
1465361953800989	-0.08457373	0.3502938	0.73088217	0.57961434	
1465361963780237	-0.085640594	0.3506114	0.732505	0.577212	
1465361973790003	-0.08728423	0.35063347	0.7343178	0.5746433	
1465361983799768	-0.08957097	0.35032287	0.73635167	0.5718716	
1465361993809534	-0.0925376	0.34959903	0.7386019	0.5689328	
1465362003788782	-0.09612278	0.3483434	0.74100804	0.56597203	
1465362013798547	-0.10026726	0.3464195	0.7435301	0.56311905	
1465362023777796	-0.104925364	0.34377936	0.7461438	0.56042475	
1465362033787561	-0.11014593	0.34036946	0.74885905	0.55787694	
1465362043766809	-0.11597201	0.33624715	0.751571	0.55554426	
1465362053776575	-0.12245095	0.3313858	0.75413483	0.55359733	
1465362063786340	-0.12952316	0.3256877	0.7564866	0.5521588	
1465362083775354	-0.144815	0.3108843	0.76121074	0.5503979	
1465362083775354	-0.144815	0.3108843	0.76121074	0.5503979	
1465362093785120	-0.1525447	0.30155608	0.7640544	0.5495588	
1465362103764368	-0.15986945	0.29110205	0.7675416	0.54825294	
1465362113774133	-0.16633242	0.27980474	0.77178013	0.54625833	
1465362133763147	-0.17414747	0.25719255	0.7816542	0.54087096	
1465362133763147	-0.17414747	0.25719255	0.7816542	0.54087096	
1465362143772913	-0.17489192	0.24690029	0.78673095	0.538059	
1465362153782678	-0.17379972	0.2378295	0.79150206	0.5354954	
1465362163761926	-0.17135413	0.23029616	0.79567814	0.53338325	
1465362173741174	-0.16806668	0.22436552	0.7991541	0.53175783	
1465362183750940	-0.16435507	0.21996589	0.8019603	0.5305299	
1465362193730188	-0.16051993	0.21705106	0.8042178	0.52948654	
1465362203739954	-0.15679382	0.21546428	0.8060243	0.52850324	
1465362213749719	-0.15329646	0.21497004	0.8074529	0.52754885	
1465362233738733	-0.14700426	0.2164154	0.80943364	0.5257103	
1465362233738733	-0.14700426	0.2164154	0.80943364	0.5257103	
1465362243717981	-0.14431675	0.21800798	0.8100405	0.52486145	
1465362253727747	-0.14198655	0.21996136	0.8104356	0.52407163	
1465362263737512	-0.13990246	0.22206023	0.8107234	0.52330124	
1465362273716760	-0.1378622	0.22405727	0.8110276	0.52251947	
1465362283696008	-0.13566677	0.22579421	0.81146735	0.52166307	
1465362293705774	-0.13312508	0.2271978	0.81208223	0.52075076	
1465362313694788	-0.12658	0.2292008	0.813724	0.51893914	
1465362313694788	-0.12658	0.2292008	0.813724	0.51893914	
1465362323704553	-0.12253561	0.22993489	0.81471354	0.5180318	
1465362333714319	-0.11813621	0.23060995	0.81574655	0.517127	
1465362343693567	-0.11365888	0.23132123	0.81675625	0.51621836	
1465362353703333	-0.109228	0.23210107	0.8177303	0.515282	
1465362363682581	-0.104954734	0.232976	0.81866336	0.5142926	
1465362373692346	-0.100937426	0.23393416	0.81960356	0.5131632	
1465362393681360	-0.094117284	0.23611423	0.8217818	0.5099674	
1465362393681360	-0.094117284	0.23611423	0.8217818	0.5099674	
1465362403691126	-0.09102409	0.23752826	0.8232178	0.5075503	
1465362413670374	-0.0877149	0.23928018	0.8250408	0.50434	
1465362423680139	-0.08387912	0.24128617	0.8274987	0.49999127	
1465362433659387	-0.07952461	0.24344705	0.8306449	0.49440715	
1465362443669153	-0.074790694	0.24575895	0.8342737	0.48784873	
1465362453678919	-0.06971319	0.24811593	0.83799773	0.4809765	
1465362463658167	-0.064207494	0.25039044	0.8415162	0.4743759	
1465362473667932	-0.058192123	0.2524964	0.84464866	0.46843135	
1465362483677698	-0.05184373	0.25429112	0.8473248	0.4633455	
1465362493656946	-0.04535285	0.2556574	0.8496623	0.45897308	
1465362503666712	-0.03859438	0.25636613	0.8519026	0.4550263	
1465362513676477	-0.03146718	0.2562975	0.8540993	0.45148173	
1465362523655725	-0.02404745	0.2554787	0.8562166	0.44838107	
1465362533665491	-0.016561544	0.25407618	0.8582488	0.4456233	
1465362543675256	-0.009359857	0.2522623	0.86017185	0.44314834	
1465362553654505	-0.0027298017	0.25018498	0.8619681	0.4409208	
1465362563664270	0.003141252	0.24809949	0.8635635	0.43897024	
1465362573674036	0.008348852	0.24624673	0.8648688	0.4373726	
1465362593663049	0.017815862	0.24370211	0.8665192	0.435243	
1465362593663049	0.017815862	0.24370211	0.8665192	0.435243	
1465362603642297	0.022232594	0.24296077	0.8669447	0.43460637	
1465362613621546	0.026148977	0.24237014	0.86715496	0.43429866	
1465362623631311	0.029336195	0.24169667	0.86719096	0.43439826	
1465362633641077	0.031541757	0.240715	0.86714137	0.4348877	
1465362643650842	0.03260301	0.23923588	0.8670849	0.43573713	
1465362653630090	0.032644384	0.23712435	0.8670615	0.4369334	
1465362663609339	0.032032374	0.23442277	0.8670567	0.43844336	
1465362673619104	0.03129432	0.2313016	0.8670363	0.44019118	
1465362693608118	0.031742036	0.22466443	0.8667055	0.44422984	
1465362693608118	0.031742036	0.22466443	0.8667055	0.44422984	
1465362703617883	0.033577688	0.22150251	0.86626554	0.44653443	
1465362713601105	0.036295906	0.21868275	0.8656239	0.44894955	
1465362723610871	0.039308	0.21631126	0.8648169	0.4513934	
1465362743599885	0.04398378	0.21297286	0.8629328	0.45613047	
1465362743599885	0.04398378	0.21297286	0.8629328	0.45613047	
1465362753609650	0.04510212	0.21185131	0.8618791	0.45852932	
1465362763619416	0.04539621	0.21089081	0.86074156	0.4610729	
1465362773598664	0.04499785	0.20989506	0.859522	0.46383306	
1465362793587678	0.04270811	0.20736662	0.8569462	0.4699131	
1465362793587678	0.04270811	0.20736662	0.8569462	0.4699131	
1465362803597443	0.041477624	0.20576948	0.855689	0.47300622	
1465362823586457	0.041257676	0.20164005	0.8533422	0.4790054	
1465362823586457	0.041257676	0.20164005	0.8533422	0.4790054	
1465362833596223	0.042266145	0.19947575	0.8522246	0.48180515	
1465362853585236	0.046192992	0.19565001	0.8499648	0.48697755	
1465362853585236	0.046192992	0.19565001	0.8499648	0.48697755	
1465362863564484	0.04852102	0.1942552	0.848775	0.48937893	
1465362873574250	0.050618358	0.19327252	0.84760225	0.49158308	
1465362883584016	0.052186094	0.19272603	0.8465013	0.4935269	
1465362903573029	0.053299572	0.19250053	0.8445558	0.49681807	
1465362903573029	0.053299572	0.19250053	0.8445558	0.49681807	
1465362913552277	0.05279303	0.19256055	0.84377116	0.49818027	
1465362923562043	0.05166471	0.19258681	0.84312654	0.4993783	
1465362933541291	0.050025307	0.19252975	0.8426025	0.5004506	
1465362943551057	0.04800378	0.19235273	0.8422114	0.5013742	
1465362953530305	0.04569948	0.1920956	0.8419522	0.5021228	
1465362963540070	0.0430831	0.191843	0.84179926	0.5027066	
1465362973549836	0.04004813	0.19181985	0.84168047	0.5031652	
1465362983529084	0.03689159	0.19228409	0.8414319	0.5036448	
1465362993538850	0.03412421	0.19347943	0.8408634	0.5043312	
1465363003548615	0.03208968	0.19559179	0.8398996	0.50525516	
1465363013527863	0.030707298	0.19872227	0.8385301	0.5063929	
1465363023537629	0.02968972	0.20282546	0.83686703	0.5075763	
1465363033516877	0.028805256	0.20768633	0.8351366	0.508511	
1465363053536408	0.026698695	0.21901841	0.831976	0.50905216	
1465363053536408	0.026698695	0.21901841	0.831976	0.50905216	
1465363063546174	0.02532354	0.22469084	0.830741	0.508667	
1465363073525422	0.023516012	0.22974166	0.8298172	0.5080051	
1465363083504670	0.021170055	0.2337868	0.8291758	0.5073097	
1465363103493684	0.016127529	0.23739581	0.8284527	0.5070003	
1465363103493684	0.016127529	0.23739581	0.8284527	0.5070003	
1465363113503449	0.013558714	0.23655987	0.8283175	0.50768656	
1465363123482697	0.010635649	0.2340268	0.8284135	0.5087725	
1465363133492463	0.00731828	0.22997025	0.82881486	0.51002556	
1465363153511994	-3.071991E-4	0.21800339	0.83067524	0.5123017	
1465363153511994	-3.071991E-4	0.21800339	0.83067524	0.5123017	
1465363163491242	-0.0047912695	0.21069625	0.83212304	0.5129866	
1465363173501008	-0.00968387	0.20291573	0.8338038	0.5133253	
1465363183480256	-0.014564277	0.19492513	0.8355067	0.5135375	
1465363203499787	-0.022205273	0.17899492	0.83844674	0.51427096	
1465363203499787	-0.022205273	0.17899492	0.83844674	0.51427096	
1465363213509553	-0.023578927	0.17121409	0.83962923	0.51492965	
1465363223488801	-0.022784194	0.16355085	0.84057164	0.5159179	
1465363233498566	-0.020105949	0.15601651	0.84118766	0.51735663	
1465363243508332	-0.01185613	0.14179273	0.841368	0.52139634	
1465363253487580	-0.01185613	0.14179273	0.841368	0.52139634	
1465363263466828	-0.0076162647	0.13540486	0.84106624	0.5236556	
1465363273476594	-0.0040573375	0.12970819	0.84058094	0.52591175	
1465363283455842	-0.0014268069	0.12483676	0.8400028	0.52802366	
1465363303444855	0.0017133192	0.117601104	0.83909434	0.53111917	
1465363303444855	0.0017133192	0.117601104	0.83909434	0.53111917	
1465363313454621	0.0027575335	0.11556655	0.8390064	0.5317002	
1465363323464387	0.0040301387	0.114795916	0.83926415	0.5314521	
1465363333443635	0.0060266037	0.11512397	0.83985955	0.53042054	
1465363343453400	0.008747502	0.11630649	0.84181213	0.52658725	
1465363353463166	0.011950138	0.11796341	0.84181213	0.52658725	
1465363363442414	0.015392778	0.119762994	0.8429298	0.5242989	
1465363373421662	0.01912527	0.121356204	0.8439014	0.52224267	
1465363383431428	0.023416588	0.12233811	0.844579	0.52074116	
1465363403420441	0.03408975	0.121954866	0.84487325	0.5197635	
1465363403420441	0.03408975	0.121954866	0.84487325	0.5197635	
1465363413430207	0.040535565	0.12065664	0.84455544	0.5201201	
1465363423439973	0.04780189	0.118530005	0.8440242	0.5208539	
1465363433449738	0.055555362	0.11563893	0.8433396	0.52184254	
1465363453438752	0.07020008	0.10885178	0.84170467	0.5241722	
1465363453438752	0.07020008	0.10885178	0.84170467	0.5241722	
1465363463418000	0.075767726	0.105917454	0.84087837	0.52532303	
1465363473427766	0.079783045	0.103774264	0.8401278	0.5263562	
1465363483407014	0.08220078	0.10256332	0.83955413	0.52713627	
1465363493416779	0.083065376	0.10234918	0.83928317	0.5274737	
1465363503426545	0.08252601	0.1031885	0.8394124	0.5271892	
1465363513405793	0.08095294	0.10499823	0.83997726	0.526175	
1465363523415559	0.078763105	0.10758633	0.84092784	0.5244635	
1465363533425324	0.07643573	0.11078518	0.84214824	0.52217865	
1465363553414338	0.07344013	0.1180973	0.8449187	0.5164995	
1465363553414338	0.07344013	0.1180973	0.8449187	0.5164995	
1465363563393586	0.07354088	0.12141012	0.84627444	0.51348907	
1465363573403352	0.07468391	0.12390825	0.8474213	0.51082885	
1465363583382600	0.07644285	0.12523463	0.8482525	0.50886196	
1465363593392365	0.07842979	0.12532927	0.84873766	0.5077261	
1465363603402131	0.08060433	0.12428243	0.8488838	0.5073984	
1465363613381379	0.08299066	0.12225214	0.84876	0.50771385	
1465363623391145	0.08529214	0.11966517	0.84846777	0.50843674	
1465363633370393	0.0870115	0.117119886	0.8480949	0.50935936	
1465363643380158	0.08779391	0.11510714	0.8477831	0.51020217	
1465363653389924	0.08785555	0.11381857	0.8476189	0.51075333	
1465363663369172	0.08774144	0.1131899	0.84760404	0.5109372	
1465363673378938	0.08781617	0.11296787	0.84772974	0.51076514	
1465363693367951	0.08804976	0.11203912	0.8483857	0.5098394	
1465363693367951	0.08804976	0.11203912	0.8483857	0.5098394	
1465363703377717	0.08724395	0.11060423	0.8489179	0.5094051	
1465363713356965	0.08534755	0.10844477	0.84950733	0.509208	
1465363723336213	0.08250969	0.10585563	0.85002136	0.5093629	
1465363733345979	0.079159655	0.103383325	0.85032	0.50990355	
1465363753334992	0.074171185	0.10039235	0.8497982	0.51211625	
1465363753334992	0.074171185	0.10039235	0.8497982	0.51211625	
1465363763314240	0.073967986	0.1000882	0.8488287	0.5138102	
1465363773324006	0.075431935	0.10046618	0.8473752	0.5159184	
1465363783333771	0.07808889	0.10139884	0.84552824	0.51836497	
1465363803322785	0.08439127	0.104369044	0.8410773	0.52399826	
1465363803322785	0.08439127	0.104369044	0.8410773	0.52399826	
1465363813332551	0.087005466	0.106140785	0.8386143	0.5271531	
1465363823311799	0.0889027	0.107927576	0.83607537	0.5304959	
1465363833321564	0.089952245	0.10964744	0.83348197	0.5340355	
1465363853310578	0.08946476	0.112812676	0.828432	0.54126686	
1465363853310578	0.08946476	0.112812676	0.828432	0.54126686	
1465363863320344	0.08837273	0.11416343	0.82597315	0.5449086	
1465363873330109	0.087050416	0.11539231	0.8234469	0.54867303	
1465363883309357	0.08561859	0.11670521	0.8208344	0.55252165	
1465363893319123	0.08428394	0.118254274	0.8181246	0.55640316	
1465363903298371	0.0833092	0.12011644	0.8152929	0.56029373	
1465363913308137	0.082850024	0.12240397	0.8122823	0.5642257	
1465363923317902	0.08305577	0.12512986	0.80913204	0.5681105	
1465363933297150	0.08406303	0.12813112	0.80592465	0.5718402	
1465363943306916	0.08571625	0.13116783	0.80277824	0.57532144	
1465363963295930	0.089092486	0.136254	0.7973006	0.5812135	
1465363963295930	0.089092486	0.136254	0.7973006	0.5812135	
1465363973305695	0.090270385	0.13797945	0.7950821	0.5836587	
1465363983284943	0.09109822	0.13915698	0.79318476	0.5858279	
1465363993294709	0.09200037	0.1399718	0.79144573	0.58784145	
1465364003304475	0.093985975	0.14057301	0.78964174	0.5898066	
1465364013283723	0.09736425	0.14134118	0.78747535	0.59196734	
1465364023262971	0.10146345	0.14282057	0.7847363	0.5945556	
1465364033272736	0.105684765	0.14499187	0.7814127	0.597664	
1465364043282502	0.10956247	0.14753726	0.7777116	0.6011601	
1465364053261750	0.11274131	0.15020443	0.77398556	0.60471016	
1465364063271516	0.11552856	0.15250723	0.7705355	0.6080046	
1465364073281281	0.11809338	0.15417197	0.7675268	0.6108908	
1465364093270295	0.12110061	0.15695377	0.7626333	0.6157033	
1465364093270295	0.12110061	0.15695377	0.7626333	0.6157033	
1465364103280061	0.121681795	0.15837727	0.760553	0.61779386	
1465364113259309	0.122078285	0.15975134	0.758674	0.6196694	
1465364123238557	0.122506544	0.16088538	0.7570394	0.6212885	
1465364133248322	0.12311503	0.16138446	0.75563353	0.6227485	
1465364143258088	0.1237964	0.16084869	0.7544826	0.62414604	
1465364153267854	0.12396875	0.15926073	0.7536788	0.6254886	
1465364163247102	0.12325391	0.15687342	0.75326854	0.6267263	
1465364173226350	0.1217509	0.15395294	0.75332934	0.6276704	
1465364193245881	0.11886448	0.14596942	0.75490725	0.628235	
1465364193245881	0.11886448	0.14596942	0.75490725	0.628235	
1465364203225129	0.11762891	0.14127953	0.75631595	0.62784535	
1465364213234895	0.11629273	0.13639331	0.7579636	0.62718743	
1465364223244660	0.11463478	0.1311761	0.75972456	0.62647456	
1465364243233674	0.10993096	0.119069636	0.7633787	0.6252924	
1465364243233674	0.10993096	0.119069636	0.7633787	0.6252924	
1465364253212922	0.1068522	0.112136446	0.7652841	0.62477857	
1465364263222688	0.10295293	0.104811646	0.7673607	0.6241576	
1465364273232453	0.09790953	0.09723769	0.7698147	0.6231723	
1465364293190949	0.086502425	0.08142516	0.7762726	0.61910266	
1465364293190949	0.086502425	0.08142516	0.7762726	0.61910266	
1465364303200715	0.08151262	0.072895266	0.7803806	0.61566883	
1465364313210480	0.07811302	0.0636954	0.78471476	0.6116077	
1465364323220246	0.077112414	0.053557735	0.7887117	0.6075517	
1465364343178742	0.08048765	0.031785235	0.79397887	0.601755	
1465364343178742	0.08048765	0.031785235	0.79397887	0.601755	
1465364353188508	0.08295456	0.021317076	0.7950592	0.60045403	
1465364363198273	0.08525733	0.011915733	0.7953358	0.6000251	
1465364373177521	0.08712982	0.0042066835	0.79497653	0.6003358	
1465364393197053	0.08918066	-0.0050315876	0.79292	0.6027432	
1465364393197053	0.08918066	-0.0050315876	0.79292	0.6027432	
1465364403176301	0.08890516	-0.0061476934	0.79162663	0.6044712	
1465364413155549	0.087831244	-0.004882372	0.7904346	0.6061971	
1465364423165314	0.08658719	-0.0019102155	0.789376	0.6077701	
1465364443184846	0.08351645	0.0074048755	0.78766	0.61037856	
1465364443184846	0.08351645	0.0074048755	0.78766	0.61037856	
1465364453164094	0.08179935	0.012820228	0.78702587	0.6113386	
1465364463173859	0.08035914	0.018044418	0.78643346	0.6121595	
1465364473183625	0.079359554	0.022674115	0.785893	0.61282957	
1465364483162873	0.078814656	0.026454607	0.7854268	0.61334586	
1465364493172639	0.07878521	0.029161705	0.785027	0.6137386	
1465364503151887	0.08004154	0.031276986	0.7840835	0.61467737	
1465364513161652	0.08004154	0.031276986	0.7840835	0.61467737	
1465364523171418	0.08094433	0.030914811	0.78339344	0.6154568	
1465364533150666	0.0818768	0.029693011	0.7825417	0.6164763	
1465364543160432	0.08272812	0.027767021	0.7815715	0.617682	
1465364553139680	0.08327459	0.025465602	0.7806006	0.6189342	
1465364563149445	0.083418936	0.023178898	0.7796982	0.62014085	
1465364573159211	0.08306734	0.021255668	0.778964	0.6211788	
1465364593117707	0.081243314	0.018591778	0.77844095	0.6221604	
1465364593117707	0.081243314	0.018591778	0.77844095	0.6221604	
1465364603127473	0.079962805	0.01775207	0.77875257	0.6219608	
1465364613137238	0.078846976	0.01699272	0.77930003	0.62143856	
1465364623116486	0.078395404	0.015574973	0.7797804	0.6209301	
1465364643105500	0.07906283	0.00801561	0.77984107	0.62091285	
1465364643105500	0.07906283	0.00801561	0.77984107	0.62091285	
1465364653115266	0.07873532	0.002435264	0.779698	0.6211811	
1465364663125031	0.077298306	-0.0033734546	0.7797815	0.6212523	
1465364673134797	0.07459258	-0.008557141	0.7803521	0.6208166	
1465364683114045	0.07095937	-0.012818085	0.78141004	0.61983764	
1465364693123811	0.06732091	-0.016755082	0.78278166	0.6184174	
1465364703103059	0.06459449	-0.020843375	0.7841166	0.6168907	
1465364713082307	0.06319906	-0.025377484	0.78503275	0.6156992	
1465364723092072	0.06174173	-0.029396543	0.785492	0.6150822	
1465364743111604	0.06041457	-0.03645185	0.784941	0.61553943	
1465364743111604	0.06041457	-0.03645185	0.784941	0.61553943	
1465364753090852	0.061135396	-0.040203694	0.7839845	0.6164531	
1465364763100617	0.062285084	-0.044026844	0.78266096	0.6177572	
1465364773110383	0.063893475	-0.048217148	0.7810832	0.61927515	
1465364783120148	0.06591928	-0.052968368	0.77938724	0.62080956	
1465364793099396	0.067855455	-0.058058582	0.77768636	0.62227714	
1465364803078645	0.06917091	-0.06334483	0.7759976	0.62372315	
1465364813088410	0.06983407	-0.06886979	0.77431154	0.6251574	
1465364823067658	0.069753006	-0.07449343	0.7726474	0.62657905	
1465364843056672	0.06727613	-0.08528499	0.7696031	0.629215	
1465364843056672	0.06727613	-0.08528499	0.7696031	0.629215	
1465364853066438	0.06548885	-0.089836836	0.76825356	0.6304182	
1465364863076203	0.06400421	-0.09335434	0.76697206	0.6316188	
1465364873055451	0.063187584	-0.09551286	0.7657578	0.6328504	
1465364893044465	0.06475847	-0.09513258	0.7635448	0.63541746	
1465364893044465	0.06475847	-0.09513258	0.7635448	0.63541746	
1465364903054230	0.067362845	-0.09260222	0.76253754	0.63672876	
1465364913063996	0.070850655	-0.08869557	0.7615941	0.63803416	
1465364923043244	0.07492469	-0.083787	0.7606948	0.63930386	
1465364943032258	0.082865626	-0.07203147	0.75896597	0.64180636	
1465364943032258	0.082865626	-0.07203147	0.75896597	0.64180636	
1465364963051789	0.088526815	-0.059601128	0.7576105	0.6439231	
1465364963051789	0.088526815	-0.059601128	0.7576105	0.6439231	
1465364973031037	0.090413935	-0.053671535	0.75723046	0.6446292	
1465364983040803	0.09171666	-0.048044614	0.7571367	0.644999	
1465364993050568	0.0926982	-0.042929664	0.7573758	0.64493877	
1465365003060334	0.09405473	-0.03854126	0.7579252	0.64437383	
1465365013039582	0.09641042	-0.034839544	0.7587271	0.64329195	
1465365023018830	0.09968351	-0.031288043	0.75973624	0.64178276	
1465365043007844	0.10679002	-0.02279466	0.761971	0.6383388	
1465365043007844	0.10679002	-0.02279466	0.761971	0.6383388	
1465365052987092	0.11045958	-0.01816888	0.7628837	0.6367707	
1465365062996857	0.11427267	-0.013646337	0.7636201	0.63532674	
1465365083016389	0.12170257	-0.005412219	0.7650225	0.63237613	
1465365083016389	0.12170257	-0.005412219	0.7650225	0.63237613	
1465365092995637	0.12501514	-0.0018859576	0.7659857	0.6305818	
1465365103005402	0.12784627	0.0012027123	0.76727706	0.62844235	
1465365112984650	0.12968647	0.003992486	0.7689252	0.6260348	
1465365122994416	0.13051899	0.006398322	0.77081347	0.62351453	
1465365133004182	0.13076732	0.008108641	0.7727502	0.6210406	
1465365142983430	0.13074464	0.009078754	0.7745701	0.61876047	
1465365152993195	0.1305755	0.009464712	0.77619386	0.6167525	
1465365162972443	0.13031049	0.009450015	0.7775922	0.6150449	
1465365172982209	0.12992682	0.009187946	0.7788346	0.61355627	
1465365182991975	0.12924063	0.008860563	0.78007996	0.6121222	
1465365192971223	0.12810035	0.0085767945	0.7814752	0.6105844	
1465365202980988	0.12654923	0.008294928	0.78309387	0.6088354	
1465365212990754	0.12478343	0.007901692	0.78486484	0.6069216	
1465365222970002	0.123079136	0.0071388897	0.7866001	0.6050296	
1465365232979768	0.12172457	0.0056659607	0.7881412	0.6033112	
1465365242959016	0.12095071	0.0031653945	0.78935504	0.6018966	
1465365252968781	0.12125176	-8.169924E-4	0.79016113	0.600785	
1465365262978547	0.12254768	-0.0061768745	0.7904677	0.6000873	
1465365272957795	0.12382562	-0.011882683	0.79044276	0.59977174	
1465365282967561	0.12460124	-0.017215887	0.7904141	0.5995195	
1465365292946809	0.124977134	-0.021946693	0.7907088	0.5988978	
1465365302956574	0.12512183	-0.026189592	0.79156786	0.5975608	
1465365312966340	0.12524618	-0.03009527	0.7930772	0.59534544	
1465365322945588	0.12535076	-0.033735055	0.7951391	0.59237075	
1465365332955354	0.12521671	-0.0371243	0.7975619	0.5889293	
1465365342934602	0.12453699	-0.040190708	0.8001528	0.5853467	
1465365352944367	0.12317761	-0.042978983	0.80280805	0.5817898	
1465365362954133	0.12112651	-0.045573663	0.80547494	0.5783265	
1465365372963898	0.11854393	-0.048075687	0.8081792	0.574876	
1465365382943146	0.11571283	-0.05057747	0.81095207	0.57132226	
1465365402932160	0.111155756	-0.05606453	0.81647784	0.56379527	
1465365402932160	0.111155756	-0.05606453	0.81647784	0.56379527	
1465365412941926	0.11015009	-0.059006803	0.8188616	0.5602239	
1465365422951691	0.10969499	-0.061632033	0.8208977	0.5570417	
1465365432930939	0.11010173	-0.06395781	0.8224969	0.5543337	
1465365442940705	0.11116237	-0.06571736	0.8236944	0.55213386	
1465365452919953	0.11264461	-0.06663834	0.824525	0.5504809	
1465365462899201	0.114447705	-0.06652875	0.8250621	0.5493161	
1465365482918732	0.11886187	-0.06297163	0.8256788	0.5478695	
1465365482918732	0.11886187	-0.06297163	0.8256788	0.5478695	
1465365492897980	0.12125983	-0.059560873	0.8259499	0.5473165	
1465365502907746	0.12349103	-0.05512878	0.8262566	0.54681885	
1465365522896760	0.12607008	-0.0437474	0.8270482	0.5460621	
1465365522896760	0.12607008	-0.0437474	0.8270482	0.5460621	
1465365532876008	0.12618588	-0.03715153	0.8275215	0.5458068	
1465365542885773	0.12578334	-0.03024436	0.82804656	0.5455298	
1465365552895539	0.12509836	-0.023325074	0.82867694	0.54506963	
1465365562874787	0.12436291	-0.016701743	0.8294553	0.5442967	
1465365582863801	0.12424555	-0.005364343	0.83139753	0.54158324	
1465365582863801	0.12424555	-0.005364343	0.83139753	0.54158324	
1465365592873566	0.12521964	-8.067011E-4	0.83246976	0.5397346	
1465365602883332	0.12694335	0.003056717	0.8335915	0.5375883	
1465365612862580	0.12942052	0.0062623536	0.83476853	0.5351379	
1465365622872346	0.13251364	0.009005398	0.83599234	0.5324245	
1465365632882111	0.13601652	0.011433395	0.8373153	0.52940696	
1465365642861359	0.1397559	0.013574413	0.83886117	0.52592397	
1465365662850373	0.1475553	0.016539847	0.8430432	0.5169449	
1465365662850373	0.1475553	0.016539847	0.8430432	0.5169449	
1465365672860139	0.1524116	0.016462687	0.8456303	0.51128185	
1465365682839387	0.15884632	0.014903545	0.848289	0.5049272	
1465365692849152	0.1654244	0.013085853	0.8510117	0.49823967	
1465365702828400	0.17090116	0.011728746	0.8537699	0.4916626	
1465365762825959	0.20027307	-0.0054314695	0.8655874	0.45893312	
1465365762825959	0.20027307	-0.0054314695	0.8655874	0.45893312	
1465365762825959	0.20027307	-0.0054314695	0.8655874	0.45893312	
1465365762825959	0.20027307	-0.0054314695	0.8655874	0.45893312	
1465365762825959	0.20027307	-0.0054314695	0.8655874	0.45893312	
1465365762825959	0.20027307	-0.0054314695	0.8655874	0.45893312	
1465365772805207	0.20457406	-0.009254108	0.86680907	0.45464918	
1465365782814973	0.20890583	-0.012806598	0.8679293	0.45043656	
1465365792794221	0.21322122	-0.016004598	0.8689811	0.44626492	
1465365802803986	0.2173527	-0.018962633	0.8699835	0.4421844	
1465365812813752	0.22116697	-0.02180321	0.8708989	0.43834335	
1465365822793000	0.22467637	-0.024542805	0.8716591	0.43488932	
1465365832802766	0.22806321	-0.027208481	0.8721629	0.4319475	
1465365842782014	0.23141871	-0.029771937	0.87232417	0.42966208	
1465365852791779	0.23472305	-0.032162078	0.87216526	0.42801678	
1465365862771027	0.23772733	-0.034162123	0.87181896	0.42690787	
1465365872780793	0.24020018	-0.035593327	0.8714812	0.4260957	
1465365882790559	0.24207942	-0.0363032	0.87131214	0.42531738	
1465365892769807	0.24342969	-0.03624083	0.8713773	0.4244174	
1465365902779572	0.24414602	-0.035501428	0.8717119	0.42338017	
1465365912789338	0.24376772	-0.03419386	0.87236327	0.422363	
1465365922768586	0.24230428	-0.0328044	0.8732195	0.421545	
1465365932778352	0.24029139	-0.031795625	0.87408257	0.4209855	
1465365952767365	0.23372214	-0.02976	0.876064	0.42071396	
1465365952767365	0.23372214	-0.02976	0.876064	0.42071396	
1465365962746613	0.22959442	-0.02832778	0.8771625	0.42079642	
1465365982766145	0.22343445	-0.025704863	0.878822	0.42081845	
1465365982766145	0.22343445	-0.025704863	0.878822	0.42081845	
1465365992745393	0.22260743	-0.024697086	0.8790952	0.42074654	
1465366012764924	0.22445391	-0.02229181	0.8786205	0.42089123	
1465366012764924	0.22445391	-0.02229181	0.8786205	0.42089123	
1465366022744172	0.22592947	-0.020539556	0.878163	0.42114574	
1465366042763703	0.22664595	-0.015130398	0.87763184	0.42209604	
1465366042763703	0.22664595	-0.015130398	0.87763184	0.42209604	
1465366052773469	0.22465643	-0.011217878	0.8778219	0.4228858	
1465366072762482	0.21557827	-0.00138638	0.87938213	0.42451292	
1465366072762482	0.21557827	-0.00138638	0.87938213	0.42451292	
1465366092751496	0.2010146	0.00903094	0.8824409	0.4252172	
1465366092751496	0.2010146	0.00903094	0.8824409	0.4252172	
1465366102761262	0.19495784	0.012262806	0.8836251	0.42549726	
1465366112771027	0.18926458	0.014487096	0.88443357	0.42631727	
1465366122750275	0.18467033	0.015686532	0.8846452	0.42784762	
1465366142739289	0.17785701	0.01636556	0.88401514	0.43199098	
1465366142739289	0.17785701	0.01636556	0.88401514	0.43199098	
1465366152749055	0.17526771	0.016451538	0.8834834	0.43412852	
1465366162728303	0.1728555	0.016736662	0.8829928	0.43607855	
1465366172738068	0.17026326	0.017322069	0.8826802	0.43770546	
1465366192727082	0.16404063	0.019098293	0.8829244	0.4395116	
1465366192727082	0.16404063	0.019098293	0.8829244	0.4395116	
1465366202706330	0.16037935	0.020001749	0.8834387	0.43978906	
1465366212716096	0.15648553	0.020765452	0.8840462	0.43993565	
1465366222725861	0.15242398	0.021393137	0.8846048	0.44020867	
1465366232705109	0.14831486	0.021900209	0.8850349	0.44072247	
1465366242714875	0.1443395	0.022278477	0.88529813	0.44149414	
1465366252694123	0.14087261	0.022499999	0.88536495	0.44246766	
1465366262703889	0.13802312	0.022523945	0.88527423	0.44354466	
1465366272713654	0.13577333	0.022388466	0.88509935	0.44459352	
1465366282692902	0.13389811	0.022329317	0.8849515	0.4454589	
1465366292702668	0.13182834	0.022734161	0.8850054	0.44594818	
1465366302712434	0.12894972	0.023917519	0.8854502	0.44584513	
1465366312722199	0.12522596	0.025927113	0.88634485	0.4450157	
1465366322701447	0.12077004	0.028630054	0.88769704	0.44338354	
1465366332680695	0.11497473	0.032081094	0.88968635	0.4406925	
1465366342690461	0.1095435	0.036339153	0.8917787	0.43750465	
1465366352669709	0.106579326	0.040503103	0.8933444	0.4346677	
1465366362679475	0.104134694	0.043908846	0.89458346	0.4323752	
1465366372689240	0.10091589	0.04617303	0.8955861	0.43082428	
1465366382668488	0.09691441	0.047390115	0.89650965	0.42968866	
1465366392678254	0.09246546	0.047677457	0.8975947	0.42836967	
1465366402657502	0.088169746	0.047186773	0.89886844	0.42665562	
1465366412667268	0.08446855	0.04615697	0.9002282	0.42464533	
1465366422677033	0.081344634	0.044848397	0.90153366	0.42262122	
1465366432656281	0.07833097	0.043578703	0.9026944	0.42084196	
1465366442666047	0.07490596	0.04263084	0.90369797	0.41940656	
1465366452675813	0.07100574	0.042075936	0.9045764	0.41824567	
1465366462655061	0.0669959	0.041756164	0.9053956	0.41716522	
1465366472664826	0.063013345	0.041586336	0.9062388	0.41597024	
1465366482644074	0.059076887	0.04164333	0.90713483	0.4145867	
1465366492653840	0.055377506	0.042029455	0.90805846	0.41303346	
1465366502633088	0.052373208	0.04271258	0.9089355	0.4114231	
1465366512642854	0.05026065	0.043777257	0.90970975	0.40986022	
1465366522652619	0.049170937	0.045421693	0.91029835	0.40850452	
1465366532631867	0.049285825	0.04771318	0.91064924	0.4074462	
1465366542641633	0.050541908	0.050679274	0.9107641	0.40667653	
1465366552651398	0.052758306	0.054226905	0.91065884	0.40617284	
1465366562661164	0.055586383	0.058208156	0.9103802	0.4058692	
1465366572640412	0.05849268	0.062490784	0.90999466	0.40568855	
1465366582619660	0.06101853	0.06694541	0.9095639	0.40557188	
1465366592629426	0.062934205	0.071392365	0.9091302	0.40549296	
1465366602608674	0.064224884	0.075600065	0.90871644	0.4054555	
1465366622628205	0.066008605	0.08248074	0.9079293	0.40559116	
1465366622628205	0.066008605	0.08248074	0.9079293	0.40559116	
1465366632607453	0.066995256	0.08480277	0.9075578	0.40578184	
1465366652626984	0.06954032	0.08718209	0.90691745	0.4062806	
1465366652626984	0.06954032	0.08718209	0.90691745	0.4062806	
1465366662636750	0.071111895	0.087512515	0.9067002	0.40642285	
1465366672615998	0.0729298	0.087472014	0.9065779	0.4063823	
1465366682625764	0.075025864	0.0872497	0.906549	0.40611273	
1465366692605012	0.077407055	0.08694405	0.90659577	0.40562683	
1465366702614777	0.07999022	0.08659531	0.906665	0.40504488	
1465366712624543	0.0825125	0.086278394	0.9067031	0.40452087	
1465366722603791	0.08473945	0.08607806	0.906714	0.40407872	
1465366732613557	0.08665321	0.086072564	0.90679276	0.4034969	
1465366752572053	0.08940995	0.08631543	0.9074936	0.40126163	
1465366752572053	0.08940995	0.08631543	0.9074936	0.40126163	
1465366762581818	0.08996178	0.08642851	0.90811217	0.39971173	
1465366772591584	0.09001242	0.086533144	0.90883666	0.39802727	
1465366782570832	0.08999224	0.08658757	0.9095819	0.3963139	
1465366792580598	0.090283886	0.08648395	0.9102365	0.39476445	
1465366802559846	0.09109147	0.086185284	0.9107094	0.39355153	
1465366812569611	0.09254838	0.08569955	0.9109652	0.3927247	
1465366822548859	0.09454862	0.08506462	0.91102713	0.39224222	
1465366832558625	0.09683483	0.08428639	0.9109515	0.39202833	
1465366842568391	0.10275083	0.082151726	0.9103217	0.3924383	
1465366852578156	0.10275083	0.082151726	0.9103217	0.3924383	
1465366862587922	0.10664681	0.08090832	0.9097225	0.39304626	
1465366872567170	0.11088509	0.07977708	0.90900785	0.3937574	
1465366882546418	0.11514247	0.078879565	0.9082484	0.39446786	
1465366902535432	0.12285888	0.0778237	0.90673804	0.39582247	
1465366902535432	0.12285888	0.0778237	0.90673804	0.39582247	
1465366912545197	0.12566023	0.0774792	0.90608245	0.3965111	
1465366922554963	0.12722094	0.0770899	0.90559405	0.39720452	
1465366932564729	0.12739454	0.07654832	0.90533334	0.39784724	
1465366952553742	0.124431744	0.07479312	0.90546024	0.3988288	
1465366952553742	0.124431744	0.07479312	0.90546024	0.3988288	
1465366962532990	0.12164496	0.07358558	0.9058012	0.39913887	
1465366972512238	0.11797699	0.07213317	0.90629	0.39939538	
1465366982522004	0.11358582	0.07037095	0.90689063	0.3996192	
1465366992531770	0.10881825	0.068191685	0.90758455	0.39974847	
1465367002541535	0.10413443	0.06557809	0.90829664	0.39981592	
1465367012520783	0.10030144	0.062729254	0.9088685	0.39995348	
1465367032540314	0.097656205	0.05777692	0.90902007	0.4010083	
1465367032540314	0.097656205	0.05777692	0.90902007	0.4010083	
1465367042519563	0.099062	0.056550577	0.90849864	0.4020185	
1465367052498811	0.10166422	0.05652383	0.90761876	0.40335786	
1465367062508576	0.1046612	0.05772075	0.9064649	0.40501323	
1465367072518342	0.10732246	0.05994601	0.9051467	0.4069372	
1465367082528107	0.10915018	0.06287368	0.9037696	0.40906432	
1465367092507355	0.10983155	0.0661808	0.9024326	0.411306	
1465367102517121	0.10920826	0.0696016	0.90119785	0.41360822	
1465367112496369	0.107422024	0.07281355	0.90011525	0.41587397	
1465367122506135	0.1048979	0.07562203	0.89915997	0.41807792	
1465367132485383	0.10214503	0.07791124	0.8982833	0.42021817	
1465367152474396	0.09767657	0.081108384	0.8965096	0.42444226	
1465367152474396	0.09767657	0.081108384	0.8965096	0.42444226	
1465367162484162	0.09654125	0.08229281	0.8955369	0.42652225	
1465367182503693	0.09696705	0.08476262	0.8933584	0.43049216	
1465367182503693	0.09696705	0.08476262	0.8933584	0.43049216	
1465367192482941	0.09827518	0.08634442	0.89212054	0.43244368	
1465367202462189	0.09999481	0.08830098	0.89075637	0.43446165	
1465367212471955	0.10190984	0.09063129	0.8892706	0.43657538	
1465367222481721	0.10380621	0.09318944	0.88768643	0.4388084	
1465367232460969	0.10544472	0.09580558	0.88605666	0.44114208	
1465367252480500	0.107921675	0.10056132	0.88306284	0.4454665	
1465367252480500	0.107921675	0.10056132	0.88306284	0.4454665	
1465367262490266	0.108786695	0.10210032	0.8819353	0.4471366	
1465367282448762	0.108298846	0.102982484	0.8807094	0.4494629	
1465367282448762	0.108298846	0.102982484	0.8807094	0.4494629	
1465367302437775	0.10498035	0.1022245	0.8805333	0.45076656	
1465367302437775	0.10498035	0.1022245	0.8805333	0.45076656	
1465367312447541	0.102822535	0.10190621	0.8805763	0.4512514	
1465367332467072	0.098959684	0.102144495	0.8803465	0.45250794	
1465367332467072	0.098959684	0.102144495	0.8803465	0.45250794	
1465367342446320	0.09797603	0.10270536	0.8799234	0.453417	
1465367362435334	0.0979228	0.10434126	0.87863773	0.45554337	
1465367362435334	0.0979228	0.10434126	0.87863773	0.45554337	
1465367372414582	0.09857686	0.10520548	0.8780386	0.456358	
1465367382424348	0.09959961	0.105912924	0.8776079	0.45680058	
1465367392434113	0.10061662	0.10632043	0.87744236	0.45680094	
1465367412423127	0.10068643	0.105941825	0.87827575	0.4552695	
1465367412423127	0.10068643	0.105941825	0.87827575	0.4552695	
1465367422432893	0.099116765	0.10499622	0.8793508	0.4537553	
1465367442391389	0.0934431	0.10124579	0.8823128	0.4500463	
1465367442391389	0.0934431	0.10124579	0.8823128	0.4500463	
1465367452401154	0.08996467	0.09851286	0.883974	0.4480977	
1465367462380402	0.08653846	0.09538735	0.8857107	0.44601458	
1465367472390168	0.083179995	0.09201628	0.8875368	0.44372573	
1465367482399934	0.07957569	0.08857379	0.8894855	0.44117814	
1465367492409699	0.07529767	0.08520941	0.89161545	0.43828234	
1465367502388947	0.07011104	0.081970684	0.8939334	0.4350267	
1465367512398713	0.063944854	0.07883596	0.89639556	0.43147525	
1465367522377961	0.057107903	0.07581114	0.8988468	0.42786187	
1465367532387727	0.05033543	0.072852716	0.9011078	0.42445675	
1465367542397492	0.044762522	0.07002428	0.90301275	0.42149854	
1465367552376740	0.041260075	0.06751708	0.9044648	0.41914478	
1465367562386506	0.03992312	0.06558637	0.90547705	0.41739166	
1465367572365754	0.040428452	0.064485796	0.90608555	0.41619244	
1465367582375520	0.04233732	0.064392075	0.90629286	0.4155653	
1465367592385285	0.045098953	0.06543906	0.9061045	0.41552183	
1465367602364533	0.04810154	0.06768987	0.9055342	0.4160672	
1465367612343781	0.050819404	0.07093769	0.90458536	0.41726568	
1465367622353547	0.052814506	0.074829705	0.9033067	0.41910392	
1465367642373078	0.053980313	0.08338656	0.9000482	0.4243185	
1465367642373078	0.053980313	0.08338656	0.9000482	0.4243185	
1465367652352326	0.053131413	0.08759727	0.89818573	0.4275117	
1465367662362092	0.051512506	0.091581956	0.8961844	0.4310599	
1465367672341340	0.0494684	0.09525665	0.89407104	0.4348747	
1465367692330354	0.045492537	0.10149456	0.8897446	0.44270056	
1465367692330354	0.045492537	0.10149456	0.8897446	0.44270056	
1465367702340119	0.044352826	0.104053006	0.8877392	0.4462342	
1465367712349885	0.044217713	0.1062468	0.8860289	0.44912055	
1465367722359650	0.04515681	0.108042665	0.8847081	0.45119753	
1465367732369416	0.04707347	0.109375186	0.88377774	0.45250198	
1465367742348664	0.04973094	0.110275336	0.88312715	0.45326877	
1465367752327912	0.05279192	0.11082536	0.88261455	0.45378646	
1465367762337678	0.05588895	0.11109418	0.88212556	0.45430037	
1465367772347443	0.058709566	0.111157395	0.8815605	0.4550258	
1465367792305939	0.06255217	0.1110436	0.8799643	0.45762372	
1465367792305939	0.06255217	0.1110436	0.8799643	0.45762372	
1465367802315705	0.06343482	0.11099125	0.8789609	0.45943955	
1465367812325471	0.06377643	0.11101304	0.87792355	0.46136636	
1465367822335236	0.06373689	0.111145675	0.87697595	0.46313867	
1465367842324250	0.062922046	0.11168899	0.87573254	0.46546647	
1465367842324250	0.062922046	0.11168899	0.87573254	0.46546647	
1465367852303498	0.062362682	0.11197671	0.8753863	0.46612352	
1465367862313264	0.062019046	0.11221695	0.8750732	0.46669906	
1465367872292512	0.062212776	0.112443194	0.87466794	0.46737793	
1465367882302277	0.06301044	0.11260149	0.8740786	0.46833447	
1465367902291291	0.06519597	0.11287752	0.8723483	0.47118646	
1465367902291291	0.06519597	0.11287752	0.8723483	0.47118646	
1465367912301057	0.06580808	0.113177724	0.8713053	0.47295576	
1465367932290070	0.0666447	0.11335473	0.86902934	0.4769666	
1465367932290070	0.0666447	0.11335473	0.86902934	0.4769666	
1465367942299836	0.06789829	0.11287994	0.8677313	0.4792603	
1465367952279084	0.06994062	0.11194163	0.8663769	0.4816311	
1465367962288850	0.07247573	0.11055757	0.86503845	0.48397598	
1465367972268098	0.07514912	0.108835176	0.8637847	0.4861929	
1465367982277863	0.07746046	0.10691437	0.8626553	0.48825705	
1465367992287629	0.07816252	0.105106555	0.8617906	0.4900614	
1465368002266877	0.07577604	0.10382309	0.86135536	0.49147296	
1465368012276643	0.07003797	0.10329253	0.86130613	0.49252096	
1465368022255891	0.062264554	0.10366305	0.8614377	0.49325675	
1465368032265656	0.054370984	0.10496968	0.8615376	0.49373907	
1465368042244904	0.04855075	0.10698328	0.861426	0.49410772	
1465368052254670	0.046413902	0.10947938	0.86094314	0.49460784	
1465368062264436	0.048491877	0.11224743	0.8600071	0.49541587	
1465368072243684	0.054116618	0.11504769	0.85867447	0.49650133	
1465368082253449	0.06176182	0.11766942	0.85713494	0.4976536	
1465368092263215	0.06975174	0.11981882	0.85560024	0.49872467	
1465368102272980	0.07688845	0.12121711	0.8542155	0.49971053	
1465368112252229	0.08253939	0.121696346	0.8530925	0.50061005	
1465368122261994	0.08654974	0.12119222	0.85226905	0.5014569	
1465368132241242	0.08892324	0.11973276	0.85172945	0.5023083	
1465368142220490	0.089892834	0.11745187	0.8513981	0.5032351	
1465368152230256	0.08976912	0.11463314	0.85119504	0.5042498	
1465368162240021	0.08886945	0.11168218	0.8511137	0.5052079	
1465368172219270	0.0875195	0.10898992	0.8511563	0.5059589	
1465368182229035	0.085908696	0.1068596	0.8512899	0.5064644	
1465368192208283	0.084257886	0.10544727	0.851449	0.5067701	
1465368202218049	0.08272386	0.10474902	0.8515928	0.5069262	
1465368212227814	0.08137423	0.10464885	0.8516791	0.50702024	
1465368222207063	0.080188334	0.104935616	0.85164165	0.50721276	
1465368232216828	0.07915274	0.10535779	0.8513921	0.5077067	
1465368242196076	0.07830129	0.10568014	0.8508865	0.5086185	
1465368252175324	0.07768805	0.1057023	0.8501405	0.5099536	
1465368262185090	0.07734502	0.10530817	0.849249	0.51157016	
1465368272194855	0.07727857	0.10445672	0.8483686	0.5132131	
1465368282204621	0.07744232	0.10318708	0.847649	0.5146324	
1465368292214387	0.0778248	0.10155901	0.84721076	0.51561904	
1465368302224152	0.07844188	0.09964429	0.847134	0.51602507	
1465368312203400	0.079152256	0.097503945	0.84743965	0.51582366	
1465368322182648	0.07973829	0.09518957	0.84805465	0.5151544	
1465368332192414	0.08010421	0.09287008	0.8488561	0.51420003	
1465368342202180	0.08039703	0.09067881	0.84967387	0.5131939	
1465368352181428	0.08080096	0.08881168	0.85035944	0.51232064	
1465368362191193	0.08143404	0.08743281	0.85086423	0.51161903	
1465368372200959	0.082374744	0.086546876	0.8511626	0.51112264	
1465368392189973	0.085080355	0.085727654	0.85131735	0.5105595	
1465368392189973	0.085080355	0.085727654	0.85131735	0.5105595	
1465368402169221	0.08677232	0.085575104	0.85130996	0.5103124	
1465368412178986	0.088719286	0.08563872	0.8513013	0.5099813	
1465368422188752	0.09085241	0.08585994	0.8513182	0.50954026	
1465368432168000	0.09296367	0.086107954	0.851419	0.508949	
1465368442147248	0.09495727	0.08629868	0.8516243	0.50820434	
1465368452157014	0.096836925	0.08638161	0.8519559	0.5072789	
1465368462166779	0.09846195	0.0861733	0.85244626	0.50617665	
1465368472176545	0.09958056	0.085505754	0.8531342	0.50491035	
1465368482155793	0.10010503	0.08429508	0.854029	0.50349563	
1465368492135041	0.10025268	0.08246491	0.8551023	0.5019452	
1465368502144807	0.10030851	0.08003956	0.8563032	0.50027657	
1465368512154572	0.100407295	0.07715676	0.85762	0.4984508	
1465368522133820	0.100471534	0.07392522	0.85906667	0.4964323	
1465368532143586	0.10009788	0.070479065	0.86066943	0.49422783	
1465368542153352	0.09892586	0.066984445	0.86246604	0.4918121	
1465368552132600	0.09700607	0.06343244	0.86454195	0.48901272	
1465368562142365	0.094487324	0.059674896	0.8669406	0.48572114	
1465368572152131	0.09138116	0.055764567	0.8696097	0.48199454	
1465368582131379	0.08818409	0.052025165	0.8723976	0.47795328	
1465368592110627	0.08596986	0.048669823	0.87507653	0.47379482	
1465368612099641	0.08743554	0.044020507	0.87919176	0.46630374	
1465368612099641	0.08743554	0.044020507	0.87919176	0.46630374	
1465368622109406	0.09102783	0.042875245	0.8803576	0.46351483	
1465368632119172	0.09579859	0.042366996	0.88091785	0.4615315	
1465368642098420	0.10107428	0.04234863	0.8810259	0.46019986	
1465368652108186	0.10627481	0.042654656	0.8808635	0.4593102	
1465368662117951	0.1107907	0.043084607	0.8805846	0.4587373	
1465368672097199	0.1142761	0.04350161	0.88031423	0.45836183	
1465368682106965	0.1165732	0.04393532	0.88017315	0.45801276	
1465368692086213	0.11764061	0.044347562	0.8802714	0.4575109	
1465368702095979	0.11764353	0.04464064	0.88065726	0.45673838	
1465368712075227	0.1167612	0.044792537	0.8813522	0.45560813	
1465368722084992	0.11526734	0.044685245	0.8823217	0.4541202	
1465368732094758	0.1136752	0.044175155	0.8834411	0.45239183	
1465368742074006	0.11255202	0.043311022	0.8845533	0.4505793	
1465368752083771	0.11231831	0.042191517	0.885508	0.4488652	
1465368762063020	0.113026105	0.040925566	0.88620013	0.44743663	
1465368772072785	0.11453096	0.039548226	0.8866216	0.44634145	
1465368782082551	0.11665336	0.038160883	0.886835	0.44548783	
1465368792092316	0.119269915	0.03679893	0.88692313	0.44473353	
1465368802102082	0.122087784	0.035556655	0.8869712	0.44397348	
1465368812081330	0.124795005	0.03454307	0.88704175	0.44315895	
1465368822060578	0.12726215	0.03382883	0.88717353	0.4422476	
1465368832070344	0.1294383	0.033420566	0.88736534	0.4412614	
1465368842049592	0.13121858	0.033281192	0.887625	0.44022265	
1465368852059357	0.132537	0.03326052	0.88799185	0.43908793	
1465368862069123	0.13320625	0.033285044	0.88852113	0.43781087	
1465368872048371	0.13310151	0.033334933	0.8892856	0.43628427	
1465368882027619	0.13257392	0.033333022	0.89027894	0.43441507	
1465368892037385	0.13224173	0.033207644	0.8913935	0.432235	
1465368902016633	0.1327058	0.03292538	0.8924373	0.4299544	
1465368912026398	0.13435413	0.032381937	0.89321864	0.42785633	
1465368922036164	0.1372898	0.0314772	0.8935464	0.42630458	
1465368932045930	0.1413201	0.030307768	0.893327	0.4255315	
1465368942025178	0.14601712	0.029190434	0.8926623	0.42541826	
1465368952034943	0.1506512	0.028485168	0.89181846	0.4256205	
1465368962014191	0.15442678	0.028653653	0.8912002	0.42555073	
1465368972023957	0.15792413	0.030028816	0.8909332	0.42473084	
1465368982033723	0.16175795	0.03188008	0.8906177	0.4238138	
1465368992012971	0.16526385	0.033795007	0.8899918	0.42362764	
1465369002022736	0.16845694	0.035606593	0.8889274	0.42445546	
1465369012032502	0.17148383	0.037269767	0.88748163	0.4261229	
1465369022011750	0.17421538	0.038731992	0.88583255	0.4283102	
1465369032021516	0.17653625	0.03985872	0.8840774	0.43087533	
1465369042000764	0.17800497	0.040633265	0.88226753	0.43389773	
1465369052010529	0.1779604	0.041206468	0.8804834	0.43747136	
1465369061989777	0.17590916	0.041609205	0.87889266	0.44144344	
1465369071999543	0.1715632	0.04188659	0.8777416	0.4454001	
1465369082009309	0.16494179	0.04203419	0.8773069	0.4487314	
1465369092019074	0.15643112	0.041888334	0.87767017	0.45107624	
1465369101998322	0.14711525	0.041281812	0.87861574	0.45242378	
1465369112008088	0.13862266	0.040393442	0.8797598	0.45296213	
1465369121987336	0.13264138	0.039851062	0.8806943	0.45298508	
1465369131997102	0.13027291	0.04038513	0.8810675	0.45289955	
1465369141976350	0.13203551	0.04245045	0.88060075	0.453108	
1465369161995881	0.14466673	0.05237004	0.8771052	0.45498952	
1465369161995881	0.14466673	0.05237004	0.8771052	0.45498952	
1465369171975129	0.15196003	0.0604254	0.8745725	0.4564865	
1465369181984895	0.1578712	0.0701778	0.8718766	0.458239	
1465369191964143	0.16143596	0.08093199	0.86925846	0.4601936	
1465369201973908	0.16212772	0.092234	0.86696666	0.46214303	
1465369211953156	0.1602195	0.103307046	0.8652032	0.463768	
1465369221962922	0.15650629	0.11349164	0.86394525	0.46499902	
1465369231972688	0.15180923	0.12240338	0.86309034	0.46588254	
1465369241951936	0.14687881	0.12991427	0.8625187	0.46648723	
1465369251961701	0.14257385	0.13603148	0.8620568	0.46693277	
1465369261940949	0.13984114	0.14075641	0.86155677	0.46728152	
1465369271950715	0.13907489	0.14431436	0.86096495	0.46751568	
1465369281960480	0.13997522	0.14697541	0.8603308	0.46758527	
1465369291970246	0.1442003	0.14989802	0.8590902	0.46765465	
1465369301949494	0.1442003	0.14989802	0.8590902	0.46765465	
1465369321938508	0.14647697	0.15031762	0.8580511	0.46871892	
1465369321938508	0.14647697	0.15031762	0.8580511	0.46871892	
1465369331948273	0.14609082	0.14994828	0.8578056	0.46940657	
1465369341927521	0.14506403	0.14935668	0.8578051	0.46991438	
1465369351937287	0.14410654	0.14864346	0.85792315	0.47021934	
1465369361916535	0.14370759	0.14801441	0.8578865	0.47060663	
1465369371926301	0.14388674	0.14768514	0.8575343	0.47129682	
1465369381905549	0.14456403	0.14756721	0.8568935	0.47229096	
1465369391915314	0.14552043	0.1472489	0.8560156	0.47368646	
1465369411904328	0.14707835	0.14453174	0.85411185	0.47746363	
1465369411904328	0.14707835	0.14453174	0.85411185	0.47746363	
1465369421914094	0.14699359	0.14211623	0.8535064	0.4792941	
1465369431923859	0.14578803	0.1394397	0.85343236	0.48057848	
1465369451912873	0.1409426	0.13434087	0.85487187	0.4809176	
1465369451912873	0.1409426	0.13434087	0.85487187	0.4809176	
1465369461892121	0.13862558	0.1321607	0.8558855	0.48039198	
1465369471901887	0.13737832	0.1300183	0.8566547	0.47996363	
1465369481911652	0.13749786	0.12763338	0.85697466	0.4799986	
1465369491890900	0.13869831	0.12487849	0.85682565	0.4806432	
1465369501900666	0.14055271	0.12172865	0.85635054	0.4817581	
1465369511910432	0.1427075	0.11832698	0.8556885	0.4831464	
1465369521889680	0.14486757	0.114861846	0.85493857	0.48466507	
1465369531868928	0.14686573	0.111501776	0.8541772	0.48618844	
1465369541878693	0.14865473	0.10842536	0.8534346	0.48764247	
1465369551857941	0.15011194	0.105847746	0.85270524	0.4890362	
1465369561867707	0.15121844	0.10381185	0.8519337	0.49047428	
1465369571877473	0.1521145	0.1022368	0.85111916	0.49194	
1465369581887238	0.15304363	0.10091785	0.85028356	0.49336714	
1465369591866486	0.15434116	0.09959932	0.84935623	0.49482605	
1465369601876252	0.15622212	0.09811214	0.84822947	0.49646303	
1465369611855500	0.15872113	0.09644137	0.846873	0.49830988	
1465369621865266	0.16175123	0.09461816	0.84533745	0.5002884	
1465369631844514	0.16483755	0.09273183	0.84379256	0.5022384	
1465369651864045	0.16949067	0.089161694	0.84132624	0.50546354	
1465369651864045	0.16949067	0.089161694	0.84132624	0.50546354	
1465369661873811	0.17034623	0.0875925	0.8408267	0.5062806	
1465369671883576	0.17016584	0.08603778	0.84098125	0.50635123	
1465369681862824	0.16911452	0.0843336	0.8417806	0.5056616	
1465369691872590	0.16774285	0.0822632	0.8430353	0.50436765	
1465369701851838	0.1666847	0.07972984	0.8444273	0.50279427	
1465369711831086	0.16622685	0.07674282	0.84568834	0.50128865	
1465369721840852	0.16643716	0.07342586	0.84659976	0.50017613	
1465369731820100	0.16725433	0.07013811	0.84706604	0.49958566	
1465369741829865	0.16847545	0.06729991	0.8471505	0.49942243	
1465369751839631	0.16975804	0.065350406	0.8470231	0.49946308	
1465369761818879	0.1709729	0.06443287	0.8468786	0.49941313	
1465369771828645	0.17218165	0.064384356	0.8468535	0.49904642	
1465369781838410	0.17322603	0.06499054	0.84702843	0.49830884	
1465369791817658	0.17386398	0.06598491	0.8474454	0.49724603	
1465369801827424	0.1739533	0.067086555	0.848128	0.49590155	
1465369811806672	0.17347571	0.0679857	0.84905744	0.49435362	
1465369821816438	0.17250392	0.06833739	0.85023105	0.49262527	
1465369831826203	0.17116849	0.06784022	0.8516382	0.49072546	
1465369841805451	0.16969955	0.06634683	0.85325	0.48863542	
1465369851815217	0.16828343	0.063880086	0.8550572	0.48628917	
1465369861794465	0.16696647	0.060655292	0.8569969	0.48373494	
1465369871804230	0.16570069	0.056966517	0.8590221	0.481019	
1465369881783479	0.16457269	0.053171746	0.86106175	0.4781854	
1465369891793244	0.16365102	0.049537845	0.86304647	0.4753053	
1465369901803010	0.16287884	0.046326265	0.86489785	0.47252086	
1465369911812775	0.16211677	0.04368676	0.8665768	0.4699514	
1465369921792023	0.16129623	0.04169865	0.868051	0.46768808	
1465369931801789	0.1604452	0.04035191	0.86934763	0.46568617	
1465369951790803	0.15897039	0.039603405	0.8715244	0.46217445	
1465369951790803	0.15897039	0.039603405	0.8715244	0.46217445	
1465369961770051	0.15842599	0.040250268	0.87248224	0.4604951	
1465369981789582	0.15757158	0.043101028	0.87431	0.45705092	
1465369981789582	0.15757158	0.043101028	0.87431	0.45705092	
1465369991768830	0.15724227	0.0448652	0.8751366	0.45540947	
1465370001778596	0.15722321	0.04647533	0.8758319	0.45391566	
1465370011757844	0.1577939	0.047710657	0.87633413	0.45261827	
1465370021767609	0.15927766	0.04849024	0.8765871	0.45152453	
1465370031777375	0.1618624	0.04881959	0.87654984	0.45064136	
1465370041756623	0.16541801	0.04888445	0.87626815	0.44989055	
1465370051766389	0.16964318	0.048896603	0.8758493	0.44913056	
1465370061745637	0.17401884	0.049043093	0.87541664	0.44828337	
1465370071755402	0.17804748	0.04948345	0.87508607	0.4472973	
1465370081765168	0.18141666	0.05024299	0.87496513	0.4460937	
1465370091774934	0.18390386	0.05136143	0.8751202	0.44464147	
1465370101754182	0.18534654	0.052888032	0.87557864	0.4429578	
1465370111733430	0.18584493	0.054744475	0.8763067	0.4410797	
1465370121743195	0.18590708	0.056658924	0.8771424	0.4391463	
1465370131722443	0.18649091	0.058210652	0.8778343	0.43730962	
1465370141732209	0.18857265	0.058892	0.8781488	0.4356912	
1465370151741975	0.19219227	0.05834569	0.87803346	0.43441358	
1465370161721223	0.19663592	0.05648502	0.87760967	0.43352616	
1465370171700471	0.2009817	0.053505965	0.877068	0.43300703	
1465370181710236	0.20439443	0.049808886	0.8766283	0.43274108	
1465370191720002	0.20630293	0.04588177	0.87650204	0.4325254	
1465370201729768	0.2065722	0.042281695	0.8767736	0.4322131	
1465370211709016	0.20557803	0.039450753	0.87735283	0.43177924	
1465370221718781	0.20430526	0.037453983	0.87799895	0.43124747	
1465370231728547	0.20367421	0.03617296	0.8784766	0.43068227	
1465370241707795	0.20397244	0.03550395	0.87865996	0.43022254	
1465370251687043	0.20508403	0.035437502	0.8785237	0.4299778	
1465370261696809	0.2066009	0.036050633	0.8781649	0.42993352	
1465370281716340	0.20827289	0.039575327	0.87752503	0.4301232	
1465370281716340	0.20827289	0.039575327	0.87752503	0.4301232	
1465370291695588	0.2073413	0.0424618	0.87764764	0.43004802	
1465370301705354	0.2052187	0.045863055	0.87822586	0.42953587	
1465370311684602	0.20216577	0.049349573	0.8793172	0.42836288	
1465370321694367	0.1986488	0.0524024	0.88086593	0.42645982	
1465370341683381	0.19112433	0.05625543	0.88468874	0.42146495	
1465370341683381	0.19112433	0.05625543	0.88468874	0.42146495	
1465370351662629	0.18841784	0.056652088	0.8863836	0.4190623	
1465370361672395	0.18740511	0.05602025	0.887606	0.4170091	
1465370371682160	0.18834884	0.05455621	0.8881923	0.4155271	
1465370381661408	0.1910741	0.052518755	0.8880526	0.41484374	
1465370391671174	0.1952292	0.050234605	0.88720345	0.4150084	
1465370401650422	0.20015284	0.04818357	0.88579226	0.41592002	
1465370411660188	0.20511816	0.04675617	0.8840761	0.4173124	
1465370421669953	0.20975712	0.046239346	0.882348	0.4187192	
1465370431649201	0.21383998	0.046915717	0.8808753	0.4196786	
1465370441658967	0.21736573	0.048956104	0.8797763	0.41993937	
1465370451668732	0.22099687	0.05157677	0.8788288	0.41971454	
1465370471657746	0.22781356	0.051090993	0.8768168	0.42033684	
1465370471657746	0.22781356	0.051090993	0.8768168	0.42033684	
1465370481667512	0.23010261	0.04798157	0.87581575	0.42154154	
1465370491646760	0.23317827	0.04474745	0.8748368	0.42223924	
1465370501656525	0.23590916	0.04192797	0.8740266	0.42268944	
1465370511635773	0.23813689	0.039499003	0.87329346	0.4231895	
1465370521645539	0.24013102	0.0374907	0.8727257	0.4234162	
1465370531624787	0.24172175	0.03617708	0.87255293	0.42298144	
1465370541634553	0.24287713	0.0355012	0.8728562	0.42174926	
1465370551613801	0.24376653	0.035545044	0.87360203	0.4196832	
1465370561623566	0.24478473	0.03643508	0.8745182	0.41709787	
1465370571633332	0.24649283	0.03801494	0.8751581	0.41460177	
1465370581612580	0.248969	0.04008382	0.875362	0.41249144	
1465370601601594	0.25574318	0.043884657	0.87492687	0.40886733	
1465370601601594	0.25574318	0.043884657	0.87492687	0.40886733	
1465370611611359	0.259249	0.04482492	0.8747266	0.4069816	
1465370631600373	0.26226407	0.04588563	0.8760562	0.40204182	
1465370631600373	0.26226407	0.04588563	0.8760562	0.40204182	
1465370641610139	0.26132914	0.046733245	0.8776839	0.39899147	
1465370651589387	0.25906974	0.047876094	0.87979203	0.39567274	
1465370661599152	0.25578377	0.04920881	0.88231105	0.39202115	
1465370671608918	0.25158304	0.050476387	0.8851549	0.38814813	
1465370681588166	0.24640326	0.05142213	0.8882705	0.384209	
1465370691597932	0.24021661	0.05209507	0.89161056	0.38027957	
1465370701607697	0.23344044	0.052483197	0.8950555	0.37633318	
1465370711617463	0.22699063	0.052130036	0.89848053	0.37214318	
1465370721596711	0.22210987	0.050518557	0.9016263	0.36767557	
1465370731575959	0.21939564	0.04800538	0.9042712	0.363118	
1465370741585725	0.21928564	0.045271955	0.90633434	0.3583606	
1465370751595490	0.22083499	0.043190185	0.908098	0.35316396	
1465370761574738	0.22267641	0.042321764	0.90979683	0.34769788	
1465370781563752	0.22656289	0.04372209	0.9128261	0.33690658	
1465370781563752	0.22656289	0.04372209	0.9128261	0.33690658	
1465370791573518	0.2272989	0.045557145	0.91434306	0.3320189	
1465370801552766	0.22714363	0.04749571	0.91591483	0.32749075	
1465370811532014	0.22685137	0.048679177	0.9173959	0.32334736	
1465370821541779	0.22540447	0.04943159	0.918888	0.31999117	
1465370831551545	0.22231087	0.049968977	0.92062765	0.31705785	
1465370841561311	0.21850033	0.05003887	0.92254966	0.31409523	
1465370851540559	0.21514419	0.049459647	0.9244126	0.31101078	
1465370861519807	0.21282157	0.048412535	0.9260821	0.3077909	
1465370871529572	0.21183962	0.047208752	0.9274874	0.30440554	
1465370881508820	0.21238388	0.044547856	0.92951584	0.2970983	
1465370891518586	0.21388793	0.044547856	0.92951584	0.2970983	
1465370901528352	0.21500981	0.043169543	0.93066025	0.29288048	
1465370911507600	0.21487327	0.041857485	0.9321866	0.28828058	
1465370921517365	0.21342185	0.040572762	0.9340975	0.2833136	
1465370931527131	0.21082895	0.03924627	0.9364091	0.27775767	
1465370941506379	0.2073673	0.03776758	0.9390653	0.2715304	
1465370951516145	0.20307894	0.036197975	0.942003	0.26472425	
1465370961495393	0.19807824	0.03462576	0.9451505	0.25740355	
1465370971505158	0.19280258	0.03308048	0.94838125	0.24961221	
1465370981484406	0.18825734	0.031716537	0.951403	0.24163142	
1465370991494172	0.18514328	0.03062258	0.95405746	0.23357745	
1465371001503938	0.18397234	0.029657029	0.95626	0.22548078	
1465371011483186	0.18474007	0.028932182	0.9579608	0.21758947	
1465371031472199	0.1883693	0.028372267	0.96055835	0.20258313	
1465371031472199	0.1883693	0.028372267	0.96055835	0.20258313	
1465371041481965	0.19020426	0.028438795	0.9616697	0.19546053	
1465371051491730	0.19161801	0.028641002	0.96279657	0.18837343	
1465371061470979	0.19231068	0.028886108	0.96400905	0.18129739	
1465371071480744	0.19235696	0.028800473	0.96531814	0.17415498	
1465371081459992	0.19199146	0.027874822	0.96669436	0.16692695	
1465371091469758	0.19071577	0.025872473	0.96822846	0.15966418	
1465371101449006	0.18751398	0.022770947	0.9700711	0.1525869	
1465371111458771	0.18174675	0.018341953	0.97230726	0.14577577	
1465371121468537	0.17348327	0.012277985	0.9748664	0.13924435	
1465371141457551	0.15236273	-0.005025783	0.98000455	0.1278691	
1465371141457551	0.15236273	-0.005025783	0.98000455	0.1278691	
1465371151467316	0.13879439	-0.012166246	0.9819082	0.12823607	
1465371161446564	0.124121405	-0.01693976	0.9831858	0.13286017	
1465371171456330	0.11369323	-0.022310369	0.9838536	0.13641968	
1465371181435578	0.10704017	-0.02795096	0.98412067	0.13880795	
1465371191445344	0.10249725	-0.032059252	0.98411685	0.14135262	
1465371201455109	0.09979429	-0.03444414	0.98396564	0.1437613	
1465371211434357	0.09923603	-0.035394978	0.9837551	0.14534715	
1465371221444123	0.101140745	-0.035186253	0.98347247	0.1459943	
1465371231453889	0.10497816	-0.034266826	0.983071	0.1462057	
1465371251473420	0.11479143	-0.032690387	0.9819179	0.14694244	
1465371251473420	0.11479143	-0.032690387	0.9819179	0.14694244	
1465371261452668	0.12005903	-0.032898854	0.9811642	0.14771415	
1465371271462434	0.12385801	-0.034183722	0.98047364	0.1488728	
1465371281441682	0.12525925	-0.036592122	0.9800023	0.15022159	
1465371291420930	0.12441131	-0.039968908	0.97975266	0.15168935	
1465371301430695	0.12194248	-0.04417698	0.97961897	0.1533776	
1465371311440461	0.1183031	-0.048952173	0.979548	0.15522477	
1465371321450227	0.114044696	-0.053829513	0.97950166	0.15707386	
1465371331429475	0.10961446	-0.05820927	0.97949743	0.15868746	
1465371341439240	0.10518786	-0.061623227	0.97960395	0.15973175	
1465371351418488	0.101563804	-0.06389788	0.979769	0.16017118	
1465371361428254	0.09962301	-0.06504078	0.97988254	0.16023304	
1465371371407502	0.09931624	-0.06492602	0.97992873	0.16018979	
1465371381417268	0.100033656	-0.06366321	0.9799545	0.16009134	
1465371401436799	0.10249913	-0.060134053	0.9799039	0.16021001	
1465371401436799	0.10249913	-0.060134053	0.9799039	0.16021001	
1465371411416047	0.10406857	-0.05890329	0.9797082	0.16084778	
1465371421395295	0.10640797	-0.05761055	0.9794084	0.16160887	
1465371431405061	0.10860855	-0.05631152	0.97913754	0.16224362	
1465371441384309	0.110562906	-0.05518297	0.9789129	0.16266733	
1465371451363557	0.112426415	-0.054317057	0.97872525	0.16280963	
1465371461373322	0.11390064	-0.053774733	0.97859544	0.16274871	
1465371471383088	0.11439634	-0.053398296	0.9785822	0.16260128	
1465371481392854	0.113876805	-0.052983105	0.9787039	0.16236976	
1465371491402619	0.11274107	-0.052330002	0.9789367	0.1619696	
1465371501381867	0.11145974	-0.051326986	0.97925144	0.16127484	
1465371511391633	0.110422194	-0.04995345	0.9796086	0.1602428	
1465371521370881	0.1097424	-0.04826143	0.97998273	0.15893883	
1465371531380646	0.10933609	-0.046242744	0.980361	0.15747747	
1465371541390412	0.109163776	-0.043833397	0.9807234	0.15602139	
1465371551369660	0.10905567	-0.04086676	0.9810839	0.15462941	
1465371561379426	0.10894998	-0.03723406	0.9814615	0.1532211	
1465371571389191	0.10929424	-0.033078913	0.9818311	0.151552	
1465371581368439	0.110500865	-0.028600832	0.98214996	0.14951226	
1465371601357453	0.114955716	-0.019548194	0.9825656	0.14480102	
1465371601357453	0.114955716	-0.019548194	0.9825656	0.14480102	
1465371611336701	0.117213316	-0.015401445	0.98271	0.14249277	
1465371621346467	0.11876963	-0.011592602	0.9828613	0.14050993	
1465371631356232	0.119271666	-0.008094136	0.9830945	0.1386881	
1465371641365998	0.11851023	-0.004813009	0.98347783	0.13676348	
1465371651375764	0.116605654	-0.0017097145	0.9840332	0.1344575	
1465371661355012	0.114192195	0.0011916622	0.9847128	0.13152565	
1465371671334260	0.112035945	0.0038013821	0.9854249	0.12794855	
1465371681344025	0.1105608	0.0058804164	0.9860792	0.12405479	
1465371691353791	0.109569564	0.007253729	0.98663896	0.12035644	
1465371701333039	0.10843982	0.0080844425	0.98712415	0.11730474	
1465371711342805	0.10666577	0.008847107	0.9875814	0.11500805	
1465371721322053	0.10434214	0.010022521	0.98802567	0.11321513	
1465371731331818	0.10187865	0.011920648	0.9884623	0.11144826	
1465371741341584	0.099293746	0.014751563	0.98894405	0.10916015	
1465371751320832	0.096672416	0.018594738	0.9894906	0.10590892	
1465371761330598	0.09459455	0.02299605	0.9900438	0.10166655	
1465371771340363	0.09349381	0.027305739	0.99052316	0.09684169	
1465371781319611	0.09340237	0.030919194	0.99087894	0.09207695	
1465371791329377	0.09371662	0.0333947	0.99114096	0.0879906	
1465371811318391	0.09314156	0.034333557	0.991576	0.08320881	
1465371811318391	0.09314156	0.034333557	0.991576	0.08320881	
1465371821297639	0.09204185	0.03334317	0.99177676	0.08244131	
1465371831307404	0.091120504	0.031999975	0.9919195	0.082280554	
1465371841317170	0.09102177	0.03069058	0.99195564	0.082444735	
1465371861306184	0.09393015	0.028853795	0.9917029	0.08288772	
1465371861306184	0.09393015	0.028853795	0.9917029	0.08288772	
1465371871285432	0.09657388	0.02860451	0.99143475	0.08313876	
1465371881295197	0.09925052	0.028869847	0.9911381	0.08343262	
1465371891304963	0.10137001	0.029598897	0.9908851	0.0836603	
1465371911263459	0.10454245	0.031464323	0.99047595	0.083864704	
1465371911263459	0.10454245	0.031464323	0.99047595	0.083864704	
1465371921273225	0.105984144	0.03201839	0.99028695	0.08409085	
1465371941262238	0.10817292	0.032316793	0.9899905	0.084692255	
1465371941262238	0.10817292	0.032316793	0.9899905	0.084692255	
1465371951272004	0.10903592	0.032343756	0.9898721	0.0849491	
1465371971261018	0.1111387	0.032525912	0.98958963	0.085453756	
1465371971261018	0.1111387	0.032525912	0.98958963	0.085453756	
1465371981270783	0.112364195	0.032591406	0.98941296	0.085883036	
1465371991280549	0.11320531	0.0326316	0.9892615	0.08651737	
1465372001290314	0.113244414	0.032743774	0.9891944	0.087165385	
1465372011269563	0.11283569	0.03298179	0.98918694	0.08767997	
1465372021279328	0.11239823	0.03338164	0.9891914	0.08805459	
1465372031258576	0.11176336	0.033978827	0.9892272	0.088241555	
1465372051247590	0.1094695	0.03602901	0.98945254	0.0877531	
1465372051247590	0.1094695	0.03602901	0.98945254	0.0877531	
1465372061257355	0.10852178	0.03740185	0.98957705	0.08695074	
1465372081246369	0.10761763	0.040520754	0.98979324	0.084174454	
1465372081246369	0.10761763	0.040520754	0.98979324	0.084174454	
1465372091225617	0.10743996	0.04203839	0.9898927	0.082461365	
1465372111214631	0.107360065	0.04433726	0.99007905	0.079066984	
1465372111214631	0.107360065	0.04433726	0.99007905	0.079066984	
1465372121224396	0.107843675	0.044771448	0.99010843	0.077779	
1465372131234162	0.1086844	0.044668067	0.990081	0.07700876	
1465372141243928	0.10966507	0.04395935	0.9900222	0.07677262	
1465372161202424	0.111070536	0.04137415	0.9899326	0.0773505	
1465372161202424	0.111070536	0.04137415	0.9899326	0.0773505	
1465372171181672	0.11126211	0.039932	0.98992324	0.07795812	
1465372181191438	0.11135681	0.03869665	0.98990124	0.07871652	
1465372191201203	0.11136784	0.03786523	0.9898593	0.079633266	
1465372201180451	0.11149281	0.037673317	0.9897702	0.08063204	
1465372211190217	0.11220543	0.038270935	0.98958236	0.081683196	
1465372221169465	0.11345725	0.039566264	0.9892978	0.08278194	
1465372231179230	0.11471677	0.04130093	0.98898405	0.08392944	
1465372241188996	0.115504965	0.04313994	0.98871255	0.08510945	
1465372261178010	0.11369935	0.04645043	0.98856944	0.087433964	
1465372261178010	0.11369935	0.04645043	0.98856944	0.087433964	
1465372271157258	0.11074845	0.04797947	0.9887569	0.08827304	
1465372281167023	0.106900856	0.04971956	0.9890686	0.08857713	
1465372291176789	0.103474334	0.05169208	0.9893551	0.08830089	
1465372311165803	0.10311628	0.05505615	0.9892653	0.087674536	
1465372311165803	0.10311628	0.05505615	0.9892653	0.087674536	
1465372321175568	0.10581075	0.05588255	0.9888737	0.08835808	
1465372331154816	0.10883165	0.05605236	0.9883892	0.08999869	
1465372341164582	0.1112516	0.055792134	0.9879094	0.09244536	
1465372351143830	0.11268392	0.05516046	0.9871186	0.098373525	
1465372361153596	0.11347429	0.05516046	0.9871186	0.098373525	
1465372371163361	0.11421791	0.05523071	0.98674625	0.10118171	
1465372381173127	0.115066156	0.055703484	0.98636883	0.103615046	
1465372391182893	0.11575386	0.05664946	0.98601234	0.105693504	
1465372411141389	0.115858406	0.060138427	0.98541784	0.10914513	
1465372411141389	0.115858406	0.060138427	0.98541784	0.10914513	
1465372421151154	0.1157146	0.06258635	0.985104	0.11073251	
1465372431160920	0.11600236	0.06527686	0.9847195	0.11229248	
1465372441170686	0.11705899	0.067943834	0.98423123	0.113884866	
1465372451149934	0.11896548	0.07035948	0.98295516	0.11739052	
1465372461129182	0.121570066	0.072390266	0.98295516	0.11739052	
1465372471138947	0.124536105	0.07391276	0.9822117	0.11953239	
1465372481148713	0.12741107	0.07489785	0.98145676	0.12206366	
1465372491127961	0.1299812	0.075360544	0.9807117	0.12502545	
1465372511116975	0.13424726	0.075048916	0.9792549	0.1319291	
1465372511116975	0.13424726	0.075048916	0.9792549	0.1319291	
1465372521126740	0.13584624	0.07452871	0.978574	0.13558736	
1465372531136506	0.13690802	0.07404093	0.9779682	0.13911416	
1465372541146271	0.13754745	0.0737923	0.9774331	0.1423389	
1465372561104768	0.13814327	0.07450066	0.97652274	0.14754559	
1465372561104768	0.13814327	0.07450066	0.97652274	0.14754559	
1465372571114533	0.13830453	0.075574376	0.97612053	0.14949553	
1465372581124299	0.13854986	0.07707467	0.9757292	0.15104705	
1465372591103547	0.13896313	0.07883425	0.9753434	0.15224615	
1465372611123078	0.1406579	0.08221345	0.97454906	0.15398158	
1465372611123078	0.1406579	0.08221345	0.97454906	0.15398158	
1465372621102326	0.14174266	0.08351228	0.9741643	0.15471983	
1465372631112092	0.14258684	0.0844893	0.9738475	0.1554074	
1465372641121857	0.1430491	0.08516546	0.973625	0.15601106	
1465372661110871	0.14250372	0.08594026	0.9735356	0.15663823	
1465372661110871	0.14250372	0.08594026	0.9735356	0.15663823	
1465372671090119	0.14137977	0.08618805	0.9737077	0.15644957	
1465372681099885	0.13982378	0.08639254	0.9740192	0.15579323	
1465372691109650	0.13800645	0.08658172	0.9744502	0.15460792	
1465372711119761	0.1337623	0.08672124	0.97559375	0.15101016	
1465372711119761	0.1337623	0.08672124	0.97559375	0.15101016	
1465372721099009	0.13115561	0.086530946	0.97630113	0.14881763	
1465372731078257	0.12808968	0.086049415	0.9770943	0.14654712	
1465372741088023	0.124295585	0.08532139	0.9779803	0.1443154	
1465372751097788	0.11950919	0.08443246	0.9789793	0.14208093	
1465372761107554	0.11375262	0.08347828	0.98009676	0.13964598	
1465372771086802	0.107405595	0.08259328	0.9812938	0.13676631	
1465372781096568	0.10079225	0.0819544	0.9825361	0.1332135	
1465372791075816	0.09429838	0.0816793	0.98377204	0.12895375	
1465372811064829	0.083813325	0.08156554	0.98596364	0.11915251	
1465372811064829	0.083813325	0.08156554	0.98596364	0.11915251	
1465372821074595	0.08077979	0.08096157	0.9868163	0.114516266	
1465372831084361	0.07928797	0.07969273	0.9874633	0.110812485	
1465372841063609	0.07905111	0.07785032	0.9879086	0.108282425	
1465372861083140	0.08069788	0.07304156	0.988361	0.10627979	
1465372861083140	0.08069788	0.07304156	0.988361	0.10627979	
1465372871092906	0.08213746	0.07067006	0.98839146	0.10648485	
1465372881072154	0.08408606	0.06863109	0.988301	0.107148185	
1465372891081919	0.086449474	0.067049086	0.9881049	0.10807167	
1465372911040415	0.09116831	0.065803714	0.98753023	0.11019839	
1465372911040415	0.09116831	0.065803714	0.98753023	0.11019839	
1465372921019663	0.093355656	0.06618721	0.9871772	0.111289166	
1465372931029429	0.09560076	0.067199685	0.986765	0.11242762	
1465372941039195	0.09799407	0.06874074	0.9862822	0.11365395	
1465372961028208	0.10258949	0.07299548	0.9851773	0.11650088	
1465372961028208	0.10258949	0.07299548	0.9851773	0.11650088	
1465372971037974	0.10441298	0.07537535	0.98461026	0.11814975	
1465372991057505	0.107614055	0.07925482	0.9835528	0.12149216	
1465372991057505	0.107614055	0.07925482	0.9835528	0.12149216	
1465373001036753	0.10944989	0.080273226	0.9830747	0.12304821	
1465373011046519	0.11124927	0.08052168	0.9826636	0.12455085	
1465373021025767	0.11259507	0.07998409	0.9823626	0.12605006	
1465373031005015	0.11304638	0.07878408	0.98220074	0.12764885	
1465373041014781	0.11231175	0.077226475	0.9821864	0.12935422	
1465373061003794	0.10833234	0.07451476	0.98238134	0.13280548	
1465373061003794	0.10833234	0.07451476	0.98238134	0.13280548	
1465373071013560	0.106323555	0.07378658	0.9824387	0.13440657	
1465373081023326	0.10477224	0.07367016	0.98241156	0.1358796	
1465373091002574	0.103804655	0.07426132	0.9822742	0.13728689	
1465373110991587	0.10349067	0.077627964	0.98164696	0.14011817	
1465373110991587	0.10349067	0.077627964	0.98164696	0.14011817	
1465373121001353	0.10368398	0.08020544	0.981228	0.14145306	
1465373131011118	0.10388609	0.08306072	0.9807926	0.1426685	
1465373140990367	0.1039991	0.08593073	0.98037493	0.14375307	
1465373151000132	0.10395265	0.08870621	0.9799999	0.14466028	
1465373160979380	0.10364544	0.09123015	0.9797091	0.1452763	
1465373170989146	0.10290566	0.09328894	0.9795516	0.14555624	
1465373180998911	0.101814836	0.094623454	0.97954077	0.1455329	
1465373190978160	0.1005767	0.095058754	0.97964424	0.1454108	
1465373210967173	0.09824158	0.09322975	0.9800082	0.14574148	
1465373210967173	0.09824158	0.09322975	0.9800082	0.14574148	
1465373220976939	0.097286984	0.091263935	0.9801826	0.14645217	
1465373230986704	0.09642546	0.088900834	0.9803315	0.1474759	
1465373240965952	0.09558463	0.08636603	0.9804635	0.1486454	
1465373260985484	0.09426874	0.0813293	0.9806461	0.15110426	
1465373260985484	0.09426874	0.0813293	0.9806461	0.15110426	
1465373270964732	0.09404619	0.07896505	0.9806783	0.15228178	
1465373280974497	0.094000526	0.07675145	0.9806803	0.15342557	
1465373290984263	0.09388232	0.0748114	0.98066926	0.15452346	
1465373310942759	0.09371024	0.07197145	0.98053753	0.15679607	
1465373310942759	0.09371024	0.07197145	0.98053753	0.15679607	
1465373320952525	0.093804605	0.071047336	0.98038197	0.15812817	
1465373330931773	0.09374951	0.07045133	0.9802288	0.15937316	
1465373340941538	0.09359452	0.07006419	0.9801053	0.16038729	
1465373350951304	0.09376031	0.06962208	0.9800193	0.16100635	
1465373360930552	0.09481216	0.06881547	0.9799391	0.16122264	
1465373370909800	0.09701596	0.06736794	0.9798062	0.16133682	
1465373380919566	0.10007635	0.065140605	0.9795957	0.16165677	
1465373390929331	0.10344448	0.062091734	0.9793333	0.16232525	
1465373400939097	0.10657797	0.05827302	0.97905064	0.1634176	
1465373410918345	0.108898394	0.053980052	0.9787707	0.16503116	
1465373420928111	0.10985248	0.049579117	0.9785493	0.16707939	
1465373430937876	0.109329656	0.045497905	0.9784089	0.16939323	
1465373440917124	0.10780956	0.042116974	0.97829956	0.17185003	
1465373450926890	0.10606989	0.039647657	0.9781595	0.17430474	
1465373460936656	0.10480658	0.03822274	0.97793067	0.17665274	
1465373470946421	0.10449754	0.037835248	0.9775772	0.17886367	
1465373480925669	0.10522065	0.038379036	0.97708625	0.18098989	
1465373490904917	0.10668835	0.039681755	0.97648513	0.18308683	
1465373500914683	0.10855249	0.041550502	0.9758108	0.18515643	
1465373510924449	0.110727616	0.043614924	0.97509193	0.18717201	
1465373520934214	0.113188	0.04548048	0.97432095	0.18925619	
1465373530913462	0.11581314	0.046869103	0.9734981	0.1915517	
1465373540892710	0.11840497	0.047722187	0.9726311	0.19414204	
1465373550902476	0.120678656	0.048051108	0.97175276	0.1970399	
1465373560881724	0.12258728	0.047878657	0.97087836	0.20018831	
1465373570891490	0.12418611	0.047249835	0.970005	0.20355736	
1465373580901255	0.12541503	0.04621444	0.96916157	0.20702927	
1465373590880503	0.12617962	0.044899575	0.9683844	0.21046247	
1465373600890269	0.12647232	0.0434669	0.9676961	0.21372916	
1465373610869517	0.12629071	0.042101473	0.9671157	0.21671414	
1465373620879283	0.12567714	0.04104151	0.9666345	0.21940626	
1465373630858531	0.12478163	0.040519714	0.9662411	0.22173245	
1465373640868296	0.12389481	0.0406942	0.9658961	0.22369218	
1465373650878062	0.1234189	0.041639175	0.9655523	0.2252616	
1465373660887827	0.12369004	0.043306135	0.96517986	0.22639193	
1465373670867076	0.12483825	0.045524128	0.9647636	0.22709927	
1465373680876841	0.1267638	0.048047785	0.9643064	0.2274543	
1465373690886607	0.12925078	0.050605256	0.96382403	0.22754374	
1465373700865855	0.13199	0.052951753	0.9633408	0.22748487	
1465373710845103	0.13470529	0.054917827	0.96288395	0.2273609	
1465373720854868	0.13720073	0.056417618	0.96248406	0.22719525	
1465373730864634	0.13938446	0.05737853	0.9621693	0.22695695	
1465373740843882	0.14114809	0.05781029	0.9619795	0.22656211	
1465373750853648	0.14241108	0.05770873	0.9619549	0.22590229	
1465373760832896	0.14307058	0.05704829	0.96212983	0.22490437	
1465373770842661	0.1431473	0.055861548	0.9625098	0.2235243	
1465373780852427	0.14274812	0.05426027	0.96306115	0.22179236	
1465373790831675	0.14188041	0.052482177	0.96375495	0.21975406	
1465373800841441	0.14057177	0.050830353	0.9645596	0.21744016	
1465373810851206	0.13907784	0.04955985	0.9654268	0.21483053	
1465373820830454	0.1378091	0.04871087	0.96632427	0.21178657	
1465373830840220	0.13707952	0.04812926	0.96722656	0.20824376	
1465373840849986	0.13681522	0.047646258	0.9681154	0.20436163	
1465373850829234	0.13655661	0.04715014	0.9690251	0.20029819	
1465373860808482	0.13611145	0.046491627	0.96996516	0.1961616	
1465373880797495	0.13603957	0.043953452	0.9716729	0.1881829	
1465373880797495	0.13603957	0.043953452	0.9716729	0.1881829	
1465373890807261	0.13694806	0.04183224	0.9723313	0.18457358	
1465373900817027	0.13852495	0.03909056	0.97283626	0.18130897	
