# OpenSignals Text File Format
# {"internal sensors":{"sensor":["xGyrUnc","yGyrUnc","zGyrUnc","xDrift","yDrift","zDrift"],"device name":"internal sensors","column":["nSeq","xGyrUnc","yGyrUnc","zGyrUnc","xDrift","yDrift","zDrift"],"sync interval":2,"time":"19:01:34","comments":"","keywords":"","device connection":"UNKNOWNinternal sensors","channels":[0,1,2,3,4,5],"date":"2020-07-28","mode":0,"digital IO":[],"firmware version":0,"device":"android","position":0,"sampling rate":100,"label":["xGyrUnc","yGyrUnc","zGyrUnc","xDrift","yDrift","zDrift"],"resolution":[1,1,1,1,1,1],"special":[{},{},{},{},{},{}],"sleeve color":["UNKNOWN","UNKNOWN","UNKNOWN","UNKNOWN","UNKNOWN","UNKNOWN"]}}
# EndOfHeader
1465354455790085	-0.31808472	0.32489014	0.38128662	3.9672852E-4	0.0014801025	-0.0033569336	
1465354465799108	-0.3404541	0.36643982	0.3983307	3.9672852E-4	0.0014801025	-0.0033569336	
1465354485813928	-0.53326416	0.63275146	0.48675537	3.9672852E-4	0.0014801025	-0.0033569336	
1465354495793176	-0.62594604	0.5826874	0.34187317	3.9672852E-4	0.0014801025	-0.0033569336	
1465354515782190	-0.58013916	0.28440857	0.14053345	3.9672852E-4	0.0014801025	-0.0033569336	
1465354535771204	-0.13166809	0.1565857	-0.29515076	3.9672852E-4	0.0014801025	-0.0033569336	
1465354565769983	0.44889832	0.5230408	-0.3718567	3.9672852E-4	0.0014801025	-0.0033569336	
1465354585758997	0.408432	0.73075867	-0.117248535	3.9672852E-4	0.0014801025	-0.0033569336	
1465354625767542	-0.3447113	0.44526672	-0.095947266	3.9672852E-4	0.0014801025	-0.0033569336	
1465354645726038	-0.5140991	0.13208008	-0.17904663	3.9672852E-4	0.0014801025	-0.0033569336	
1465354685734583	-0.1593628	-0.15234375	0.009506226	3.9672852E-4	0.0014801025	-0.0033569336	
1465354705754114	4.272461E-4	-0.14381409	0.09579468	3.9672852E-4	0.0014801025	-0.0033569336	
1465354745732141	0.054763794	-0.034103394	0.17462158	3.9672852E-4	0.0014801025	-0.0033569336	
1465354775730921	0.1612854	0.028747559	0.35891724	3.9672852E-4	0.0014801025	-0.0033569336	
1465354815708948	-0.05177307	-0.1640625	0.28967285	3.9672852E-4	0.0014801025	-0.0033569336	
1465354845677210	0.18151855	-0.20986938	0.2225647	3.9672852E-4	0.0014801025	-0.0033569336	
1465354885685755	0.36262512	0.029815674	0.16610718	3.9672852E-4	0.0014801025	-0.0033569336	
1465354915684534	0.18151855	-0.073516846	0.0063171387	3.9672852E-4	0.0014801025	-0.0033569336	
1465354965672327	0.037719727	-0.5081482	-0.16412354	3.9672852E-4	0.0014801025	-0.0033569336	
1465355005650354	-0.50982666	-0.29508972	-0.29089355	3.9672852E-4	0.0014801025	-0.0033569336	
1465355045628381	-0.29571533	0.22583008	-0.45814514	3.9672852E-4	0.0014801025	-0.0033569336	
1465355075627161	0.46594238	0.1331482	-0.14601135	3.9672852E-4	0.0014801025	-0.0033569336	
1465355075627161	0.46594238	0.1331482	-0.14601135	3.9672852E-4	0.0014801025	-0.0033569336	
1465355075627161	0.46594238	0.1331482	-0.14601135	3.9672852E-4	0.0014801025	-0.0033569336	
1465355075627161	0.46594238	0.1331482	-0.14601135	3.9672852E-4	0.0014801025	-0.0033569336	
1465355075627161	0.46594238	0.1331482	-0.14601135	3.9672852E-4	0.0014801025	-0.0033569336	
1465355075627161	0.46594238	0.1331482	-0.14601135	3.9672852E-4	0.0014801025	-0.0033569336	
1465355075627161	0.46594238	0.1331482	-0.14601135	3.9672852E-4	0.0014801025	-0.0033569336	
1465355075627161	0.46594238	0.1331482	-0.14601135	3.9672852E-4	0.0014801025	-0.0033569336	
1465355075627161	0.46594238	0.1331482	-0.14601135	3.9672852E-4	0.0014801025	-0.0033569336	
1465355075627161	0.46594238	0.1331482	-0.14601135	3.9672852E-4	0.0014801025	-0.0033569336	
1465355075627161	0.46594238	0.1331482	-0.14601135	3.9672852E-4	0.0014801025	-0.0033569336	
1465355075627161	0.46594238	0.1331482	-0.14601135	3.9672852E-4	0.0014801025	-0.0033569336	
1465355075627161	0.46594238	0.1331482	-0.14601135	3.9672852E-4	0.0014801025	-0.0033569336	
1465355075627161	0.46594238	0.1331482	-0.14601135	3.9672852E-4	0.0014801025	-0.0033569336	
1465355075627161	0.46594238	0.1331482	-0.14601135	3.9672852E-4	0.0014801025	-0.0033569336	
1465355075627161	0.46594238	0.1331482	-0.14601135	3.9672852E-4	0.0014801025	-0.0033569336	
1465355075627161	0.46594238	0.1331482	-0.14601135	3.9672852E-4	0.0014801025	-0.0033569336	
1465355075627161	0.46594238	0.1331482	-0.14601135	3.9672852E-4	0.0014801025	-0.0033569336	
1465355075627161	0.46594238	0.1331482	-0.14601135	3.9672852E-4	0.0014801025	-0.0033569336	
1465355075627161	0.46594238	0.1331482	-0.14601135	3.9672852E-4	0.0014801025	-0.0033569336	
1465355075627161	0.46594238	0.1331482	-0.14601135	3.9672852E-4	0.0014801025	-0.0033569336	
1465355075627161	0.46594238	0.1331482	-0.14601135	3.9672852E-4	0.0014801025	-0.0033569336	
1465355075627161	0.46594238	0.1331482	-0.14601135	3.9672852E-4	0.0014801025	-0.0033569336	
1465355075627161	0.46594238	0.1331482	-0.14601135	3.9672852E-4	0.0014801025	-0.0033569336	
1465355075627161	0.46594238	0.1331482	-0.14601135	3.9672852E-4	0.0014801025	-0.0033569336	
1465355075627161	0.46594238	0.1331482	-0.14601135	3.9672852E-4	0.0014801025	-0.0033569336	
1465355075627161	0.46594238	0.1331482	-0.14601135	3.9672852E-4	0.0014801025	-0.0033569336	
1465355075627161	0.46594238	0.1331482	-0.14601135	3.9672852E-4	0.0014801025	-0.0033569336	
1465355075627161	0.46594238	0.1331482	-0.14601135	3.9672852E-4	0.0014801025	-0.0033569336	
1465355075627161	0.46594238	0.1331482	-0.14601135	3.9672852E-4	0.0014801025	-0.0033569336	
1465355075627161	0.46594238	0.1331482	-0.14601135	3.9672852E-4	0.0014801025	-0.0033569336	
1465355075627161	0.46594238	0.1331482	-0.14601135	3.9672852E-4	0.0014801025	-0.0033569336	
1465355075627161	0.46594238	0.1331482	-0.14601135	3.9672852E-4	0.0014801025	-0.0033569336	
1465355075627161	0.46594238	0.1331482	-0.14601135	3.9672852E-4	0.0014801025	-0.0033569336	
1465355075627161	0.46594238	0.1331482	-0.14601135	3.9672852E-4	0.0014801025	-0.0033569336	
1465355075627161	0.46594238	0.1331482	-0.14601135	3.9672852E-4	0.0014801025	-0.0033569336	
1465355075627161	0.46594238	0.1331482	-0.14601135	3.9672852E-4	0.0014801025	-0.0033569336	
1465355075627161	0.46594238	0.1331482	-0.14601135	3.9672852E-4	0.0014801025	-0.0033569336	
1465355075627161	0.46594238	0.1331482	-0.14601135	3.9672852E-4	0.0014801025	-0.0033569336	
1465355075627161	0.46594238	0.1331482	-0.14601135	3.9672852E-4	0.0014801025	-0.0033569336	
1465355075627161	0.46594238	0.1331482	-0.14601135	3.9672852E-4	0.0014801025	-0.0033569336	
1465355075627161	0.46594238	0.1331482	-0.14601135	3.9672852E-4	0.0014801025	-0.0033569336	
1465355085636926	0.52986145	0.17149353	0.032943726	3.9672852E-4	0.0014801025	-0.0033569336	
1465355135594202	0.07392883	0.66578674	0.34933472	3.9672852E-4	0.0014801025	-0.0033569336	
1465355145603967	-0.008087158	0.6572571	0.40472412	3.9672852E-4	0.0014801025	-0.0033569336	
1465355145603967	-0.008087158	0.6572571	0.40472412	3.9672852E-4	0.0014801025	-0.0033569336	
1465355145603967	-0.008087158	0.6572571	0.40472412	3.9672852E-4	0.0014801025	-0.0033569336	
1465355145603967	-0.008087158	0.6572571	0.40472412	3.9672852E-4	0.0014801025	-0.0033569336	
1465355145603967	-0.008087158	0.6572571	0.40472412	3.9672852E-4	0.0014801025	-0.0033569336	
1465355155613733	-0.10076904	0.57203674	0.4494629	3.9672852E-4	0.0014801025	-0.0033569336	
1465355175602747	-0.34259033	0.18321228	0.51763916	3.9672852E-4	0.0014801025	-0.0033569336	
1465355175602747	-0.34259033	0.18321228	0.51763916	3.9672852E-4	0.0014801025	-0.0033569336	
1465355195591760	-0.52900696	-0.23223877	0.64334106	3.9672852E-4	0.0014801025	-0.0033569336	
1465355215580774	-0.44911194	-0.42825317	0.75839233	3.9672852E-4	0.0014801025	-0.0033569336	
1465355215580774	-0.44911194	-0.42825317	0.75839233	3.9672852E-4	0.0014801025	-0.0033569336	
1465355215580774	-0.44911194	-0.42825317	0.75839233	3.9672852E-4	0.0014801025	-0.0033569336	
1465355225590540	-0.3127594	-0.4474182	0.81910706	3.9672852E-4	0.0014801025	-0.0033569336	
1465355235569788	-0.17959595	-0.47299194	0.87983704	3.9672852E-4	0.0014801025	-0.0033569336	
1465355245549036	-0.09118652	-0.49855042	0.9064636	3.9672852E-4	0.0014801025	-0.0033569336	
1465355255558801	-0.069885254	-0.46020508	0.87983704	3.9672852E-4	0.0014801025	-0.0033569336	
1465355265538049	-0.12207031	-0.32810974	0.81484985	3.9672852E-4	0.0014801025	-0.0033569336	
1465355275547815	-0.21263123	-0.14381409	0.7296295	3.9672852E-4	0.0014801025	-0.0033569336	
1465355285527063	-0.28399658	0.076690674	0.64227295	3.9672852E-4	0.0014801025	-0.0033569336	
1465355295536829	-0.32234192	0.34725952	0.5613251	3.9672852E-4	0.0014801025	-0.0033569336	
1465355305516077	-0.33512878	0.5709686	0.5016632	3.9672852E-4	0.0014801025	-0.0033569336	
1465355315495325	-0.30317688	0.65086365	0.5240326	3.9672852E-4	0.0014801025	-0.0033569336	
1465355325505090	-0.17001343	0.34939575	0.73069763	3.9672852E-4	0.0014801025	-0.0033569336	
1465355335514856	0.20069885	-0.3408966	1.1386871	3.9672852E-4	0.0014801025	-0.0033569336	
1465355345494104	0.63319397	-0.6242523	1.2441559	3.9672852E-4	0.0014801025	-0.0033569336	
1465355355503870	1.046524	-0.5923004	1.0811615	3.9672852E-4	0.0014801025	-0.0033569336	
1465355365483118	1.4332123	-0.536911	0.90859985	3.9672852E-4	0.0014801025	-0.0033569336	
1465355375492883	1.7123108	-0.38882446	0.73176575	3.9672852E-4	0.0014801025	-0.0033569336	
1465355385502649	1.7559814	0.4814911	0.49526978	3.9672852E-4	0.0014801025	-0.0033569336	
1465355395481897	1.4949951	0.97257996	0.36317444	3.9672852E-4	0.0014801025	-0.0033569336	
1465355405491663	1.1594391	0.77763367	0.44734192	3.9672852E-4	0.0014801025	-0.0033569336	
1465355415501428	0.82814026	0.6306305	0.51231384	3.9672852E-4	0.0014801025	-0.0033569336	
1465355425480676	0.5053711	0.5091858	0.5432129	3.9672852E-4	0.0014801025	-0.0033569336	
1465355435490442	0.22732544	0.4772339	0.56877136	3.9672852E-4	0.0014801025	-0.0033569336	
1465355445469690	0.037719727	0.384552	0.6273651	3.9672852E-4	0.0014801025	-0.0033569336	
1465355455479456	-0.058166504	0.16191101	0.7733002	3.9672852E-4	0.0014801025	-0.0033569336	
1465355465458704	-0.08905029	-0.11186218	0.9011383	3.9672852E-4	0.0014801025	-0.0033569336	
1465355475468469	-0.074142456	-0.35580444	0.95866394	3.9672852E-4	0.0014801025	-0.0033569336	
1465355485478235	-0.04750061	-0.51452637	0.9522705	3.9672852E-4	0.0014801025	-0.0033569336	
1465355495457483	-0.008087158	-0.5305176	0.9096527	3.9672852E-4	0.0014801025	-0.0033569336	
1465355505467249	0.05795288	-0.36219788	0.8777008	3.9672852E-4	0.0014801025	-0.0033569336	
1465355515446497	0.17086792	-0.0660553	0.8830261	3.9672852E-4	0.0014801025	-0.0033569336	
1465355525456262	0.29763794	0.30252075	0.942688	3.9672852E-4	0.0014801025	-0.0033569336	
1465355535435510	0.30722046	0.80319214	1.057724	3.9672852E-4	0.0014801025	-0.0033569336	
1465355545445276	0.12399292	1.3092041	1.1173859	3.9672852E-4	0.0014801025	-0.0033569336	
1465355555455042	-0.06349182	1.4764404	1.1727753	3.9672852E-4	0.0014801025	-0.0033569336	
1465355565464807	-0.046447754	1.1408844	1.3038025	3.9672852E-4	0.0014801025	-0.0033569336	
1465355575444055	0.14956665	0.65193176	1.3698578	3.9672852E-4	0.0014801025	-0.0033569336	
1465355585453821	0.3977661	0.31744385	1.2718506	3.9672852E-4	0.0014801025	-0.0033569336	
1465355595433069	0.617218	0.1565857	1.038559	3.9672852E-4	0.0014801025	-0.0033569336	
1465355605442835	0.7642212	0.09585571	0.78289795	3.9672852E-4	0.0014801025	-0.0033569336	
1465355615452600	0.792984	0.11929321	0.68489075	3.9672852E-4	0.0014801025	-0.0033569336	
1465355645420862	0.31575012	0.4356842	0.6923523	3.9672852E-4	0.0014801025	-0.0033569336	
1465355675419641	-0.6653595	0.17149353	0.6092529	3.9672852E-4	0.0014801025	-0.0033569336	
1465355715428186	-1.26297	-0.40693665	0.81484985	3.9672852E-4	0.0014801025	-0.0033569336	
1465355735417200	-0.9167633	-0.37072754	0.9852905	3.9672852E-4	0.0014801025	-0.0033569336	
1465355735417200	-0.9167633	-0.37072754	0.9852905	3.9672852E-4	0.0014801025	-0.0033569336	
1465355735417200	-0.9167633	-0.37072754	0.9852905	3.9672852E-4	0.0014801025	-0.0033569336	
1465355735417200	-0.9167633	-0.37072754	0.9852905	3.9672852E-4	0.0014801025	-0.0033569336	
1465355735417200	-0.9167633	-0.37072754	0.9852905	3.9672852E-4	0.0014801025	-0.0033569336	
1465355735417200	-0.9167633	-0.37072754	0.9852905	3.9672852E-4	0.0014801025	-0.0033569336	
1465355735417200	-0.9167633	-0.37072754	0.9852905	3.9672852E-4	0.0014801025	-0.0033569336	
1465355745426965	-0.768692	-0.30467224	1.088623	3.9672852E-4	0.0014801025	-0.0033569336	
1465355745426965	-0.768692	-0.30467224	1.088623	3.9672852E-4	0.0014801025	-0.0033569336	
1465355745426965	-0.768692	-0.30467224	1.088623	3.9672852E-4	0.0014801025	-0.0033569336	
1465355755406214	-0.67282104	-0.31852722	1.1578674	3.9672852E-4	0.0014801025	-0.0033569336	
1465355765415979	-0.595047	-0.36112976	1.1504059	3.9672852E-4	0.0014801025	-0.0033569336	
1465355775395227	-0.5385895	-0.3920288	1.0460205	3.9672852E-4	0.0014801025	-0.0033569336	
1465355785374475	-0.52900696	-0.43997192	0.90859985	3.9672852E-4	0.0014801025	-0.0033569336	
1465355795384241	-0.559906	-0.51452637	0.799942	3.9672852E-4	0.0014801025	-0.0033569336	
1465355805394006	-0.6014404	-0.57525635	0.70832825	3.9672852E-4	0.0014801025	-0.0033569336	
1465355815373255	-0.655777	-0.4942932	0.64334106	3.9672852E-4	0.0014801025	-0.0033569336	
1465355825383020	-0.73779297	-0.4058838	0.63694763	3.9672852E-4	0.0014801025	-0.0033569336	
1465355835362268	-0.82196045	-0.45594788	0.6827545	3.9672852E-4	0.0014801025	-0.0033569336	
1465355845372034	-0.87841797	-0.47299194	0.7519989	3.9672852E-4	0.0014801025	-0.0033569336	
1465355855351282	-0.8986511	-0.38349915	0.79566956	3.9672852E-4	0.0014801025	-0.0033569336	
1465355865361047	-0.864563	-0.24502563	0.8233795	3.9672852E-4	0.0014801025	-0.0033569336	
1465355875370813	-0.75057983	-0.12571716	0.9852905	3.9672852E-4	0.0014801025	-0.0033569336	
1465355885350061	-0.5918579	-0.023452759	1.088623	3.9672852E-4	0.0014801025	-0.0033569336	
1465355895359827	-0.38093567	0.09906006	0.9554596	3.9672852E-4	0.0014801025	-0.0033569336	
1465355905339075	-0.15722656	0.25352478	0.61351013	3.9672852E-4	0.0014801025	-0.0033569336	
1465355915348840	0.049438477	0.25032043	0.1756897	3.9672852E-4	0.0014801025	-0.0033569336	
1465355925358606	0.26568604	0.09373474	-0.15986633	3.9672852E-4	0.0014801025	-0.0033569336	
1465355935337854	0.46488953	-0.03303528	-0.26531982	3.9672852E-4	0.0014801025	-0.0033569336	
1465355955326868	0.61935425	-0.06072998	-0.012863159	3.9672852E-4	0.0014801025	-0.0033569336	
1465355955326868	0.61935425	-0.06072998	-0.012863159	3.9672852E-4	0.0014801025	-0.0033569336	
1465355965336633	0.5341339	-0.023452759	0.093673706	3.9672852E-4	0.0014801025	-0.0033569336	
1465355975346399	0.41375732	-0.019180298	0.12030029	3.9672852E-4	0.0014801025	-0.0033569336	
1465355985325647	0.29231262	-0.010665894	0.058517456	3.9672852E-4	0.0014801025	-0.0033569336	
1465355995335413	0.18791199	0.059646606	-0.09915161	3.9672852E-4	0.0014801025	-0.0033569336	
1465356005314661	0.15275574	0.03514099	-0.29942322	3.9672852E-4	0.0014801025	-0.0033569336	
1465356015324426	0.19537354	-0.17897034	-0.45814514	3.9672852E-4	0.0014801025	-0.0033569336	
1465356025334192	0.25502014	-0.38349915	-0.539093	3.9672852E-4	0.0014801025	-0.0033569336	
1465356035343958	0.28059387	-0.4378357	-0.5305786	3.9672852E-4	0.0014801025	-0.0033569336	
1465356045323206	0.21987915	-0.3408966	-0.44215393	3.9672852E-4	0.0014801025	-0.0033569336	
1465356055332971	0.07499695	-0.1725769	-0.3026123	3.9672852E-4	0.0014801025	-0.0033569336	
1465356065342737	-0.08692932	-0.009597778	-0.12684631	3.9672852E-4	0.0014801025	-0.0033569336	
1465356075352503	-0.22007751	0.10971069	0.04359436	3.9672852E-4	0.0014801025	-0.0033569336	
1465356085331751	-0.28186035	0.14486694	0.14585876	3.9672852E-4	0.0014801025	-0.0033569336	
1465356095310999	-0.28825378	0.08947754	0.17036438	3.9672852E-4	0.0014801025	-0.0033569336	
1465356125309778	-0.11248779	-0.22052002	0.025497437	3.9672852E-4	0.0014801025	-0.0033569336	
1465356125309778	-0.11248779	-0.22052002	0.025497437	3.9672852E-4	0.0014801025	-0.0033569336	
1465356125309778	-0.11248779	-0.22052002	0.025497437	3.9672852E-4	0.0014801025	-0.0033569336	
1465356135319544	-0.014480591	-0.20561218	-0.007537842	3.9672852E-4	0.0014801025	-0.0033569336	
1465356145329309	0.06541443	-0.10227966	0.008453369	3.9672852E-4	0.0014801025	-0.0033569336	
1465356155308557	0.12294006	0.08947754	0.049987793	3.9672852E-4	0.0014801025	-0.0033569336	
1465356165287805	0.1570282	0.30891418	0.06916809	3.9672852E-4	0.0014801025	-0.0033569336	
1465356175297571	0.13891602	0.48788452	0.03401184	3.9672852E-4	0.0014801025	-0.0033569336	
1465356185307337	0.07392883	0.5975952	-0.06932068	3.9672852E-4	0.0014801025	-0.0033569336	
1465356195286585	-0.029403687	0.6178436	-0.20993042	3.9672852E-4	0.0014801025	-0.0033569336	
1465356205296350	-0.14871216	0.5880127	-0.35160828	3.9672852E-4	0.0014801025	-0.0033569336	
1465356215275598	-0.2893219	0.5315552	-0.52311707	3.9672852E-4	0.0014801025	-0.0033569336	
1465356225285364	-0.44485474	0.4356842	-0.71806335	3.9672852E-4	0.0014801025	-0.0033569336	
1465356235295130	-0.5726776	0.30145264	-0.8650665	3.9672852E-4	0.0014801025	-0.0033569336	
1465356255284143	-0.6611023	0.18641663	-0.89382935	3.9672852E-4	0.0014801025	-0.0033569336	
1465356255284143	-0.6611023	0.18641663	-0.89382935	3.9672852E-4	0.0014801025	-0.0033569336	
1465356265263391	-0.6238098	0.39094543	-0.76919556	3.9672852E-4	0.0014801025	-0.0033569336	
1465356285282922	-0.32554626	0.58161926	-0.50927734	3.9672852E-4	0.0014801025	-0.0033569336	
1465356285282922	-0.32554626	0.58161926	-0.50927734	3.9672852E-4	0.0014801025	-0.0033569336	
1465356295262171	-0.08692932	0.848999	-0.39315796	3.9672852E-4	0.0014801025	-0.0033569336	
1465356305271936	0.07392883	0.7094574	-0.2823639	3.9672852E-4	0.0014801025	-0.0033569336	
1465356315281702	0.043045044	0.38562012	-0.20993042	3.9672852E-4	0.0014801025	-0.0033569336	
1465356325260950	-0.025131226	0.37922668	-0.18009949	3.9672852E-4	0.0014801025	-0.0033569336	
1465356335270715	-0.062423706	0.39413452	-0.15240479	3.9672852E-4	0.0014801025	-0.0033569336	
1465356355259729	-0.08798218	0.45698547	-0.107666016	3.9672852E-4	0.0014801025	-0.0033569336	
1465356355259729	-0.08798218	0.45698547	-0.107666016	3.9672852E-4	0.0014801025	-0.0033569336	
1465356365269495	-0.029403687	0.4441986	-0.13110352	3.9672852E-4	0.0014801025	-0.0033569336	
1465356375248743	0.10269165	0.40052795	-0.2088623	3.9672852E-4	0.0014801025	-0.0033569336	
1465356385258508	0.26887512	0.36643982	-0.32817078	3.9672852E-4	0.0014801025	-0.0033569336	
1465356395237756	0.46168518	0.39733887	-0.4602661	3.9672852E-4	0.0014801025	-0.0033569336	
1465356405247522	0.6630249	0.4303589	-0.5848999	3.9672852E-4	0.0014801025	-0.0033569336	
1465356415226770	0.8718109	0.47296143	-0.68930054	3.9672852E-4	0.0014801025	-0.0033569336	
1465356425206018	1.0987244	0.58055115	-0.761734	3.9672852E-4	0.0014801025	-0.0033569336	
1465356435215784	1.3437347	0.6391449	-0.7628021	3.9672852E-4	0.0014801025	-0.0033569336	
1465356455204797	1.6569214	0.5518036	-0.66374207	3.9672852E-4	0.0014801025	-0.0033569336	
1465356455204797	1.6569214	0.5518036	-0.66374207	3.9672852E-4	0.0014801025	-0.0033569336	
1465356465214563	1.6462555	0.5848236	-0.63497925	3.9672852E-4	0.0014801025	-0.0033569336	
1465356475224329	1.5471954	0.6359558	-0.63923645	3.9672852E-4	0.0014801025	-0.0033569336	
1465356485203577	1.3756866	0.67430115	-0.67225647	3.9672852E-4	0.0014801025	-0.0033569336	
1465356495182825	1.1242828	0.7286377	-0.7159271	3.9672852E-4	0.0014801025	-0.0033569336	
1465356505192590	0.83239746	0.8639221	-0.7819824	3.9672852E-4	0.0014801025	-0.0033569336	
1465356525181604	0.37539673	1.3113251	-0.9300537	3.9672852E-4	0.0014801025	-0.0033569336	
1465356525181604	0.37539673	1.3113251	-0.9300537	3.9672852E-4	0.0014801025	-0.0033569336	
1465356535191370	0.30403137	1.4466248	-0.94496155	3.9672852E-4	0.0014801025	-0.0033569336	
1465356545201135	0.35195923	1.4924316	-0.9534912	3.9672852E-4	0.0014801025	-0.0033569336	
1465356555180383	0.4947052	1.4253082	-0.9588165	3.9672852E-4	0.0014801025	-0.0033569336	
1465356565190149	0.6726074	1.2868347	-0.9481659	3.9672852E-4	0.0014801025	-0.0033569336	
1465356575169397	0.8174896	1.2016144	-0.935379	3.9672852E-4	0.0014801025	-0.0033569336	
1465356585179163	0.88778687	1.2154541	-0.9534912	3.9672852E-4	0.0014801025	-0.0033569336	
1465356605168176	0.77593994	1.6777802	-1.0184631	3.9672852E-4	0.0014801025	-0.0033569336	
1465356615177942	0.67793274	2.043167	-1.0365753	3.9672852E-4	0.0014801025	-0.0033569336	
1465356615177942	0.67793274	2.043167	-1.0365753	3.9672852E-4	0.0014801025	-0.0033569336	
1465356625187708	0.60549927	2.3297272	-1.0056915	3.9672852E-4	0.0014801025	-0.0033569336	
1465356635197473	0.52986145	2.423462	-0.91619873	3.9672852E-4	0.0014801025	-0.0033569336	
1465356645207239	0.4361267	2.343567	-0.7990265	3.9672852E-4	0.0014801025	-0.0033569336	
1465356655186487	0.3413086	2.13797	-0.7074127	3.9672852E-4	0.0014801025	-0.0033569336	
1465356675206018	0.22413635	1.5020142	-0.63497925	3.9672852E-4	0.0014801025	-0.0033569336	
1465356675206018	0.22413635	1.5020142	-0.63497925	3.9672852E-4	0.0014801025	-0.0033569336	
1465356695164514	0.19430542	0.75419617	-0.5263214	3.9672852E-4	0.0014801025	-0.0033569336	
1465356695164514	0.19430542	0.75419617	-0.5263214	3.9672852E-4	0.0014801025	-0.0033569336	
1465356705143762	0.15489197	0.41970825	-0.4826355	3.9672852E-4	0.0014801025	-0.0033569336	
1465356725132776	-0.028335571	0.07987976	-0.4549408	3.9672852E-4	0.0014801025	-0.0033569336	
1465356725132776	-0.028335571	0.07987976	-0.4549408	3.9672852E-4	0.0014801025	-0.0033569336	
1465356735142542	-0.13485718	0.13101196	-0.46240234	3.9672852E-4	0.0014801025	-0.0033569336	
1465356745152307	-0.20835876	0.2354126	-0.46559143	3.9672852E-4	0.0014801025	-0.0033569336	
1465356755131555	-0.24032593	0.31744385	-0.45707703	3.9672852E-4	0.0014801025	-0.0033569336	
1465356765141321	-0.210495	0.35046387	-0.41766357	3.9672852E-4	0.0014801025	-0.0033569336	
1465356775120569	-0.13806152	0.3131714	-0.34735107	3.9672852E-4	0.0014801025	-0.0033569336	
1465356785130335	-0.029403687	0.22795105	-0.28024292	3.9672852E-4	0.0014801025	-0.0033569336	
1465356805119348	0.21881104	0.11503601	-0.21739197	3.9672852E-4	0.0014801025	-0.0033569336	
1465356805119348	0.21881104	0.11503601	-0.21739197	3.9672852E-4	0.0014801025	-0.0033569336	
1465356825138880	0.45635986	0.12782288	-0.23762512	3.9672852E-4	0.0014801025	-0.0033569336	
1465356825138880	0.45635986	0.12782288	-0.23762512	3.9672852E-4	0.0014801025	-0.0033569336	
1465356845127893	0.710968	0.22476196	-0.3292389	3.9672852E-4	0.0014801025	-0.0033569336	
1465356845127893	0.710968	0.22476196	-0.3292389	3.9672852E-4	0.0014801025	-0.0033569336	
1465356855137659	0.82388306	0.2865448	-0.3718567	3.9672852E-4	0.0014801025	-0.0033569336	
1465356865147424	0.919754	0.34513855	-0.39208984	3.9672852E-4	0.0014801025	-0.0033569336	
1465356875126672	0.9868622	0.39413452	-0.4187317	3.9672852E-4	0.0014801025	-0.0033569336	
1465356895115686	0.99539185	0.47296143	-0.53271484	3.9672852E-4	0.0014801025	-0.0033569336	
1465356895115686	0.99539185	0.47296143	-0.53271484	3.9672852E-4	0.0014801025	-0.0033569336	
1465356905094934	0.96235657	0.5049286	-0.5987549	3.9672852E-4	0.0014801025	-0.0033569336	
1465356925114465	0.85050964	0.574173	-0.64881897	3.9672852E-4	0.0014801025	-0.0033569336	
1465356925114465	0.85050964	0.574173	-0.64881897	3.9672852E-4	0.0014801025	-0.0033569336	
1465356935093714	0.70562744	0.6018677	-0.59661865	3.9672852E-4	0.0014801025	-0.0033569336	
1465356945103479	0.48832703	0.65193176	-0.5028839	3.9672852E-4	0.0014801025	-0.0033569336	
1465356955113245	0.2869873	0.689209	-0.41978455	3.9672852E-4	0.0014801025	-0.0033569336	
1465356965123010	0.15489197	0.6806946	-0.3803711	3.9672852E-4	0.0014801025	-0.0033569336	
1465356975102258	0.08885193	0.65618896	-0.40701294	3.9672852E-4	0.0014801025	-0.0033569336	
1465356985081506	0.08352661	0.5549927	-0.47731018	3.9672852E-4	0.0014801025	-0.0033569336	
1465356995091272	0.1144104	0.34725952	-0.54016113	3.9672852E-4	0.0014801025	-0.0033569336	
1465357015080286	0.21455383	-0.046875	-0.56040955	3.9672852E-4	0.0014801025	-0.0033569336	
1465357015080286	0.21455383	-0.046875	-0.56040955	3.9672852E-4	0.0014801025	-0.0033569336	
1465357025090051	0.314682	-0.18217468	-0.49435425	3.9672852E-4	0.0014801025	-0.0033569336	
1465357035069299	0.44996643	-0.21200562	-0.4048767	3.9672852E-4	0.0014801025	-0.0033569336	
1465357045079065	0.56715393	-0.21412659	-0.33244324	3.9672852E-4	0.0014801025	-0.0033569336	
1465357055058313	0.60549927	-0.19921875	-0.30793762	3.9672852E-4	0.0014801025	-0.0033569336	
1465357065068079	0.523468	-0.1875	-0.3484192	3.9672852E-4	0.0014801025	-0.0033569336	
1465357075047327	0.3647461	-0.19921875	-0.4315033	3.9672852E-4	0.0014801025	-0.0033569336	
1465357095066858	-0.10183716	-0.32385254	-0.56359863	3.9672852E-4	0.0014801025	-0.0033569336	
1465357095066858	-0.10183716	-0.32385254	-0.56359863	3.9672852E-4	0.0014801025	-0.0033569336	
1465357105076624	-0.40544128	-0.39842224	-0.5817108	3.9672852E-4	0.0014801025	-0.0033569336	
1465357115055872	-0.68026733	-0.4889679	-0.58384705	3.9672852E-4	0.0014801025	-0.0033569336	
1465357125065637	-0.89971924	-0.58270264	-0.585968	3.9672852E-4	0.0014801025	-0.0033569336	
1465357145054651	-1.2480621	-0.6562195	-0.60621643	3.9672852E-4	0.0014801025	-0.0033569336	
1465357145054651	-1.2480621	-0.6562195	-0.60621643	3.9672852E-4	0.0014801025	-0.0033569336	
1465357155064417	-1.4451294	-0.62745667	-0.6030121	3.9672852E-4	0.0014801025	-0.0033569336	
1465357175053430	-1.7316895	-0.42930603	-0.55934143	3.9672852E-4	0.0014801025	-0.0033569336	
1465357175053430	-1.7316895	-0.42930603	-0.55934143	3.9672852E-4	0.0014801025	-0.0033569336	
1465357185063196	-1.546341	-0.5731201	-0.344162	3.9672852E-4	0.0014801025	-0.0033569336	
1465357195042444	-1.546341	-0.5731201	-0.344162	3.9672852E-4	0.0014801025	-0.0033569336	
1465357205052210	-1.3023834	-0.7765808	-0.19502258	3.9672852E-4	0.0014801025	-0.0033569336	
1465357225010706	-0.8421936	-1.0823212	0.010574341	3.9672852E-4	0.0014801025	-0.0033569336	
1465357225010706	-0.8421936	-1.0823212	0.010574341	3.9672852E-4	0.0014801025	-0.0033569336	
1465357245030237	-0.76976013	-1.0663452	0.06384277	3.9672852E-4	0.0014801025	-0.0033569336	
1465357245030237	-0.76976013	-1.0663452	0.06384277	3.9672852E-4	0.0014801025	-0.0033569336	
1465357255009485	-0.8134308	-0.9694061	0.06916809	3.9672852E-4	0.0014801025	-0.0033569336	
1465357274998499	-0.80703735	-0.50387573	0.07342529	3.9672852E-4	0.0014801025	-0.0033569336	
1465357274998499	-0.80703735	-0.50387573	0.07342529	3.9672852E-4	0.0014801025	-0.0033569336	
1465357285008264	-0.73353577	-0.19815063	0.089401245	3.9672852E-4	0.0014801025	-0.0033569336	
1465357304997278	-0.4618988	0.28440857	0.15332031	3.9672852E-4	0.0014801025	-0.0033569336	
1465357304997278	-0.4618988	0.28440857	0.15332031	3.9672852E-4	0.0014801025	-0.0033569336	
1465357315007044	-0.2893219	0.43675232	0.18847656	3.9672852E-4	0.0014801025	-0.0033569336	
1465357325016809	-0.10076904	0.5230408	0.2183075	3.9672852E-4	0.0014801025	-0.0033569336	
1465357335026575	0.08885193	0.55818176	0.22470093	3.9672852E-4	0.0014801025	-0.0033569336	
1465357345005823	0.2624817	0.56884766	0.2033844	3.9672852E-4	0.0014801025	-0.0033569336	
1465357354985071	0.4126892	0.5635071	0.15971375	3.9672852E-4	0.0014801025	-0.0033569336	
1465357364964319	0.53092957	0.5592499	0.10751343	3.9672852E-4	0.0014801025	-0.0033569336	
1465357374943567	0.60868835	0.5645752	0.061706543	3.9672852E-4	0.0014801025	-0.0033569336	
1465357384953333	0.6630249	0.5624542	0.03933716	3.9672852E-4	0.0014801025	-0.0033569336	
1465357404972864	0.7652893	0.4591217	0.06491089	3.9672852E-4	0.0014801025	-0.0033569336	
1465357404972864	0.7652893	0.4591217	0.06491089	3.9672852E-4	0.0014801025	-0.0033569336	
1465357414982630	0.8142853	0.36750793	0.10432434	3.9672852E-4	0.0014801025	-0.0033569336	
1465357424961878	0.85583496	0.25564575	0.15332031	3.9672852E-4	0.0014801025	-0.0033569336	
1465357444950891	0.888855	0.03302002	0.23321533	3.9672852E-4	0.0014801025	-0.0033569336	
1465357444950891	0.888855	0.03302002	0.23321533	3.9672852E-4	0.0014801025	-0.0033569336	
1465357454960657	0.87927246	-0.055404663	0.24386597	3.9672852E-4	0.0014801025	-0.0033569336	
1465357464970422	0.8451843	-0.10334778	0.24812317	3.9672852E-4	0.0014801025	-0.0033569336	
1465357474949671	0.792984	-0.12464905	0.24812317	3.9672852E-4	0.0014801025	-0.0033569336	
1465357484959436	0.72161865	-0.116119385	0.24279785	3.9672852E-4	0.0014801025	-0.0033569336	
1465357494938684	0.6395874	-0.06498718	0.22470093	3.9672852E-4	0.0014801025	-0.0033569336	
1465357504948450	0.5469055	0.019165039	0.18421936	3.9672852E-4	0.0014801025	-0.0033569336	
1465357514958215	0.4446411	0.14273071	0.13841248	3.9672852E-4	0.0014801025	-0.0033569336	
1465357524937464	0.3381195	0.28547668	0.10751343	3.9672852E-4	0.0014801025	-0.0033569336	
1465357534947229	0.23692322	0.43782043	0.10218811	3.9672852E-4	0.0014801025	-0.0033569336	
1465357544956995	0.15914917	0.57629395	0.13520813	3.9672852E-4	0.0014801025	-0.0033569336	
1465357554936243	0.11654663	0.67749023	0.19380188	3.9672852E-4	0.0014801025	-0.0033569336	
1465357564946008	0.09950256	0.75738525	0.2694397	3.9672852E-4	0.0014801025	-0.0033569336	
1465357574925256	0.094177246	0.8095856	0.36531067	3.9672852E-4	0.0014801025	-0.0033569336	
1465357584935022	0.08139038	0.8149109	0.45159912	3.9672852E-4	0.0014801025	-0.0033569336	
1465357594914270	0.050491333	0.75738525	0.5048523	3.9672852E-4	0.0014801025	-0.0033569336	
1465357604924036	-0.0048980713	0.6125183	0.50912476	3.9672852E-4	0.0014801025	-0.0033569336	
1465357624913049	-0.19451904	0.13528442	0.38128662	3.9672852E-4	0.0014801025	-0.0033569336	
1465357624913049	-0.19451904	0.13528442	0.38128662	3.9672852E-4	0.0014801025	-0.0033569336	
1465357634922815	-0.3361969	-0.07991028	0.29393005	3.9672852E-4	0.0014801025	-0.0033569336	
1465357644932581	-0.513031	-0.24075317	0.2268219	3.9672852E-4	0.0014801025	-0.0033569336	
1465357654911829	-0.72288513	-0.3366394	0.19273376	3.9672852E-4	0.0014801025	-0.0033569336	
1465357674900842	-1.1905365	-0.40374756	0.21937561	3.9672852E-4	0.0014801025	-0.0033569336	
1465357674900842	-1.1905365	-0.40374756	0.21937561	3.9672852E-4	0.0014801025	-0.0033569336	
1465357684910608	-1.3705597	-0.4974823	0.25772095	3.9672852E-4	0.0014801025	-0.0033569336	
1465357694889856	-1.4792175	-0.6455536	0.2545166	3.9672852E-4	0.0014801025	-0.0033569336	
1465357704899622	-1.5420685	-0.7712555	0.1991272	3.9672852E-4	0.0014801025	-0.0033569336	
1465357714878870	-1.5889435	-0.8468933	0.13734436	3.9672852E-4	0.0014801025	-0.0033569336	
1465357724888635	-1.6304932	-0.8607483	0.12988281	3.9672852E-4	0.0014801025	-0.0033569336	
1465357734898401	-1.6752319	-0.7872467	0.22149658	3.9672852E-4	0.0014801025	-0.0033569336	
1465357744877649	-1.7125092	-0.59976196	0.38874817	3.9672852E-4	0.0014801025	-0.0033569336	
1465357754887415	-1.7146454	-0.3398285	0.59114075	3.9672852E-4	0.0014801025	-0.0033569336	
1465357764866663	-1.6645813	-0.120391846	0.7807617	3.9672852E-4	0.0014801025	-0.0033569336	
1465357784886194	-1.3460693	-0.043685913	1.0545349	3.9672852E-4	0.0014801025	-0.0033569336	
1465357784886194	-1.3460693	-0.043685913	1.0545349	3.9672852E-4	0.0014801025	-0.0033569336	
1465357794895960	-1.087204	-0.18536377	1.1003418	3.9672852E-4	0.0014801025	-0.0033569336	
1465357804905725	-0.8049164	-0.39416504	1.0928802	3.9672852E-4	0.0014801025	-0.0033569336	
1465357824864221	-0.27973938	-0.8873749	1.0566711	3.9672852E-4	0.0014801025	-0.0033569336	
1465357824864221	-0.27973938	-0.8873749	1.0566711	3.9672852E-4	0.0014801025	-0.0033569336	
1465357834843469	-0.052841187	-1.128128	1.055603	3.9672852E-4	0.0014801025	-0.0033569336	
1465357844853235	0.14103699	-1.3060303	1.0470734	3.9672852E-4	0.0014801025	-0.0033569336	
1465357854863001	0.2901764	-1.3806	1.0215149	3.9672852E-4	0.0014801025	-0.0033569336	
1465357864872766	0.3924408	-1.3475647	0.97250366	3.9672852E-4	0.0014801025	-0.0033569336	
1465357874852014	0.45317078	-1.2282562	0.8990021	3.9672852E-4	0.0014801025	-0.0033569336	
1465357884861780	0.4819336	-1.034378	0.799942	3.9672852E-4	0.0014801025	-0.0033569336	
1465357894841028	0.48937988	-0.7872467	0.6912842	3.9672852E-4	0.0014801025	-0.0033569336	
1465357904820276	0.504303	-0.5187988	0.59646606	3.9672852E-4	0.0014801025	-0.0033569336	
1465357914830042	0.54797363	-0.29722595	0.51763916	3.9672852E-4	0.0014801025	-0.0033569336	
1465357924809290	0.62680054	-0.16299438	0.45692444	3.9672852E-4	0.0014801025	-0.0033569336	
1465357934819055	0.7322693	-0.085235596	0.40472412	3.9672852E-4	0.0014801025	-0.0033569336	
1465357944828821	0.84732056	-0.008529663	0.36424255	3.9672852E-4	0.0014801025	-0.0033569336	
1465357954808069	0.96235657	0.078811646	0.323761	3.9672852E-4	0.0014801025	-0.0033569336	
1465357964817835	1.0529175	0.18109131	0.28115845	3.9672852E-4	0.0014801025	-0.0033569336	
1465357974797083	1.0933838	0.28440857	0.23214722	3.9672852E-4	0.0014801025	-0.0033569336	
1465357984806848	1.0827332	0.37922668	0.17356873	3.9672852E-4	0.0014801025	-0.0033569336	
1465357994786096	1.0422516	0.44952393	0.10858154	3.9672852E-4	0.0014801025	-0.0033569336	
1465358004795862	0.9889984	0.49320984	0.04573059	3.9672852E-4	0.0014801025	-0.0033569336	
1465358014805628	0.9176178	0.49320984	0.004180908	3.9672852E-4	0.0014801025	-0.0033569336	
1465358024784876	0.8249512	0.45059204	-0.004333496	3.9672852E-4	0.0014801025	-0.0033569336	
1465358034794641	0.7045746	0.34939575	0.032943726	3.9672852E-4	0.0014801025	-0.0033569336	
1465358044804407	0.5554352	0.17681885	0.10964966	3.9672852E-4	0.0014801025	-0.0033569336	
1465358054783655	0.38711548	-0.059661865	0.20233154	3.9672852E-4	0.0014801025	-0.0033569336	
1465358064793421	0.21348572	-0.3313141	0.28648376	3.9672852E-4	0.0014801025	-0.0033569336	
1465358074772669	0.045166016	-0.5965576	0.33761597	3.9672852E-4	0.0014801025	-0.0033569336	
1465358084782434	-0.11248779	-0.79896545	0.33973694	3.9672852E-4	0.0014801025	-0.0033569336	
1465358094761682	-0.25842285	-0.9065552	0.30245972	3.9672852E-4	0.0014801025	-0.0033569336	
1465358104771448	-0.37879944	-0.9406433	0.2502594	3.9672852E-4	0.0014801025	-0.0033569336	
1465358114781214	-0.5226135	-0.8916321	0.24919128	3.9672852E-4	0.0014801025	-0.0033569336	
1465358124790979	-0.5226135	-0.8916321	0.24919128	3.9672852E-4	0.0014801025	-0.0033569336	
1465358134770227	-0.5630951	-0.8650055	0.32696533	3.9672852E-4	0.0014801025	-0.0033569336	
1465358144779993	-0.59825134	-0.88523865	0.4270935	3.9672852E-4	0.0014801025	-0.0033569336	
1465358154759241	-0.65257263	-0.9459686	0.49313354	3.9672852E-4	0.0014801025	-0.0033569336	
1465358164769006	-0.72927856	-0.970459	0.5101929	3.9672852E-4	0.0014801025	-0.0033569336	
1465358184758020	-0.90185547	-0.8713989	0.4590454	3.9672852E-4	0.0014801025	-0.0033569336	
1465358194767786	-0.944458	-0.745697	0.39726257	3.9672852E-4	0.0014801025	-0.0033569336	
1465358194767786	-0.944458	-0.745697	0.39726257	3.9672852E-4	0.0014801025	-0.0033569336	
1465358204777551	-0.9433899	-0.59869385	0.31950378	3.9672852E-4	0.0014801025	-0.0033569336	
1465358214756799	-0.89653015	-0.4239807	0.24386597	3.9672852E-4	0.0014801025	-0.0033569336	
1465358224766565	-0.8187561	-0.20561218	0.17250061	3.9672852E-4	0.0014801025	-0.0033569336	
1465358234745813	-0.7303467	0.05432129	0.11923218	3.9672852E-4	0.0014801025	-0.0033569336	
1465358244755579	-0.65896606	0.34088135	0.08728027	3.9672852E-4	0.0014801025	-0.0033569336	
1465358254765344	-0.6152954	0.6572571	0.068099976	3.9672852E-4	0.0014801025	-0.0033569336	
1465358264744592	-0.5769501	0.942749	0.046798706	3.9672852E-4	0.0014801025	-0.0033569336	
1465358274754358	-0.5737457	1.1419525	-0.028839111	3.9672852E-4	0.0014801025	-0.0033569336	
1465358284733606	-0.6206207	1.2974854	-0.16625977	3.9672852E-4	0.0014801025	-0.0033569336	
1465358294743372	-0.67282104	1.2804413	-0.29408264	3.9672852E-4	0.0014801025	-0.0033569336	
1465358304753137	-0.66322327	0.9747009	-0.35588074	3.9672852E-4	0.0014801025	-0.0033569336	
1465358314762903	-0.5876007	0.4356842	-0.35906982	3.9672852E-4	0.0014801025	-0.0033569336	
1465358324742151	-0.47148132	-0.1640625	-0.32817078	3.9672852E-4	0.0014801025	-0.0033569336	
1465358334721399	-0.34684753	-0.60614014	-0.30047607	3.9672852E-4	0.0014801025	-0.0033569336	
1465358344731165	-0.24777222	-0.7819214	-0.2823639	3.9672852E-4	0.0014801025	-0.0033569336	
1465358354710413	-0.18173218	-0.7499542	-0.26213074	3.9672852E-4	0.0014801025	-0.0033569336	
1465358364720178	-0.12313843	-0.6104126	-0.23869324	3.9672852E-4	0.0014801025	-0.0033569336	
1465358374729944	-0.072006226	-0.3920288	-0.23443604	3.9672852E-4	0.0014801025	-0.0033569336	
1465358384739710	-0.020874023	-0.13743591	-0.25361633	3.9672852E-4	0.0014801025	-0.0033569336	
1465358394718958	0.013214111	0.04472351	-0.26852417	3.9672852E-4	0.0014801025	-0.0033569336	
1465358404728723	0.016403198	0.11929321	-0.28024292	3.9672852E-4	0.0014801025	-0.0033569336	
1465358414738489	0.0025634766	0.11717224	-0.27703857	3.9672852E-4	0.0014801025	-0.0033569336	
1465358424717737	-0.029403687	0.045791626	-0.23976135	3.9672852E-4	0.0014801025	-0.0033569336	
1465358434696985	-0.07946777	-0.04475403	-0.18862915	3.9672852E-4	0.0014801025	-0.0033569336	
1465358444706751	-0.12527466	-0.12358093	-0.13217163	3.9672852E-4	0.0014801025	-0.0033569336	
1465358454685999	-0.15190125	-0.18003845	-0.0831604	3.9672852E-4	0.0014801025	-0.0033569336	
1465358464695764	-0.15722656	-0.21838379	-0.05227661	3.9672852E-4	0.0014801025	-0.0033569336	
1465358484684778	-0.12420654	-0.21626282	-0.049072266	3.9672852E-4	0.0014801025	-0.0033569336	
1465358484684778	-0.12420654	-0.21626282	-0.049072266	3.9672852E-4	0.0014801025	-0.0033569336	
1465358494694544	-0.10076904	-0.1960144	-0.06825256	3.9672852E-4	0.0014801025	-0.0033569336	
1465358504673792	-0.083724976	-0.16192627	-0.086364746	3.9672852E-4	0.0014801025	-0.0033569336	
1465358514683557	-0.074142456	-0.14595032	-0.0789032	3.9672852E-4	0.0014801025	-0.0033569336	
1465358524693323	-0.07307434	-0.1640625	-0.04588318	3.9672852E-4	0.0014801025	-0.0033569336	
1465358534703089	-0.06561279	-0.17790222	-0.0096588135	3.9672852E-4	0.0014801025	-0.0033569336	
1465358544682337	-0.03579712	-0.1640625	0.024429321	3.9672852E-4	0.0014801025	-0.0033569336	
1465358554661585	0.0068206787	-0.11186218	0.05744934	3.9672852E-4	0.0014801025	-0.0033569336	
1465358564671350	0.03239441	-0.041549683	0.08407593	3.9672852E-4	0.0014801025	-0.0033569336	
1465358574650598	0.03451538	-1.5258789E-5	0.105392456	3.9672852E-4	0.0014801025	-0.0033569336	
1465358584629846	0.028121948	0.0010528564	0.13627625	3.9672852E-4	0.0014801025	-0.0033569336	
1465358594639612	0.007888794	-0.012786865	0.16822815	3.9672852E-4	0.0014801025	-0.0033569336	
1465358604649378	-0.023010254	-0.005340576	0.17889404	3.9672852E-4	0.0014801025	-0.0033569336	
1465358614628626	-0.032592773	-0.0064086914	0.15971375	3.9672852E-4	0.0014801025	-0.0033569336	
1465358634648157	0.06967163	-0.15873718	0.17782593	3.9672852E-4	0.0014801025	-0.0033569336	
1465358634648157	0.06967163	-0.15873718	0.17782593	3.9672852E-4	0.0014801025	-0.0033569336	
1465358644627405	0.1421051	-0.316391	0.23535156	3.9672852E-4	0.0014801025	-0.0033569336	
1465358654637171	0.20495605	-0.42185974	0.28327942	3.9672852E-4	0.0014801025	-0.0033569336	
1465358664616419	0.2443695	-0.4378357	0.33547974	3.9672852E-4	0.0014801025	-0.0033569336	
1465358674626184	0.25715637	-0.37817383	0.3993988	3.9672852E-4	0.0014801025	-0.0033569336	
1465358694615198	0.24118042	-0.17790222	0.53256226	3.9672852E-4	0.0014801025	-0.0033569336	
1465358694615198	0.24118042	-0.17790222	0.53256226	3.9672852E-4	0.0014801025	-0.0033569336	
1465358704624964	0.21134949	-0.07670593	0.579422	3.9672852E-4	0.0014801025	-0.0033569336	
1465358714604212	0.1570282	0.015975952	0.6028595	3.9672852E-4	0.0014801025	-0.0033569336	
1465358724613977	0.078186035	0.050064087	0.61564636	3.9672852E-4	0.0014801025	-0.0033569336	
1465358744602991	-0.15296936	-0.0660553	0.61138916	3.9672852E-4	0.0014801025	-0.0033569336	
1465358744602991	-0.15296936	-0.0660553	0.61138916	3.9672852E-4	0.0014801025	-0.0033569336	
1465358754612756	-0.28718567	-0.11399841	0.60606384	3.9672852E-4	0.0014801025	-0.0033569336	
1465358764592005	-0.40863037	-0.09802246	0.59646606	3.9672852E-4	0.0014801025	-0.0033569336	
1465358774601770	-0.5258179	0.003189087	0.56025696	3.9672852E-4	0.0014801025	-0.0033569336	
1465358784581018	-0.67601013	0.19493103	0.49313354	3.9672852E-4	0.0014801025	-0.0033569336	
1465358794590784	-0.87628174	0.38241577	0.42816162	3.9672852E-4	0.0014801025	-0.0033569336	
1465358804600549	-1.0914612	0.47509766	0.3951416	3.9672852E-4	0.0014801025	-0.0033569336	
1465358814610315	-1.2576447	0.44526672	0.40153503	3.9672852E-4	0.0014801025	-0.0033569336	
1465358824589563	-1.3151703	0.25564575	0.4079132	3.9672852E-4	0.0014801025	-0.0033569336	
1465358834599329	-1.2384796	-0.042617798	0.38342285	3.9672852E-4	0.0014801025	-0.0033569336	
1465358844609094	-1.0477905	-0.3398285	0.3205719	3.9672852E-4	0.0014801025	-0.0033569336	
1465358854588342	-0.7772064	-0.5432892	0.22895813	3.9672852E-4	0.0014801025	-0.0033569336	
1465358864598108	-0.45976257	-0.61146545	0.14266968	3.9672852E-4	0.0014801025	-0.0033569336	
1465358874577356	-0.12846375	-0.56565857	0.07556152	3.9672852E-4	0.0014801025	-0.0033569336	
1465358884587122	0.18258667	-0.4474182	0.035079956	3.9672852E-4	0.0014801025	-0.0033569336	
1465358894596887	0.4361267	-0.29934692	0.029754639	3.9672852E-4	0.0014801025	-0.0033569336	
1465358904576135	0.60443115	-0.1832428	0.05105591	3.9672852E-4	0.0014801025	-0.0033569336	
1465358914585901	0.6608887	-0.083099365	0.08088684	3.9672852E-4	0.0014801025	-0.0033569336	
1465358924565149	0.6108246	0.017028809	0.093673706	3.9672852E-4	0.0014801025	-0.0033569336	
1465358934574915	0.48512268	0.13421631	0.07556152	3.9672852E-4	0.0014801025	-0.0033569336	
1465358944584680	0.3093567	0.26203918	0.027618408	3.9672852E-4	0.0014801025	-0.0033569336	
1465358954594446	0.0909729	0.37069702	-0.039489746	3.9672852E-4	0.0014801025	-0.0033569336	
1465358964573694	-0.1359253	0.39413452	-0.095947266	3.9672852E-4	0.0014801025	-0.0033569336	
1465358974552942	-0.34152222	0.30784607	-0.12364197	3.9672852E-4	0.0014801025	-0.0033569336	
1465358984562708	-0.50131226	0.15338135	-0.121520996	3.9672852E-4	0.0014801025	-0.0033569336	
1465358994572473	-0.5812073	-0.363266	-0.011795044	3.9672852E-4	0.0014801025	-0.0033569336	
1465359004582239	-0.57588196	-0.363266	-0.011795044	3.9672852E-4	0.0014801025	-0.0033569336	
1465359014561487	-0.50982666	-0.6050873	0.09260559	3.9672852E-4	0.0014801025	-0.0033569336	
1465359024540735	-0.40544128	-0.75209045	0.2183075	3.9672852E-4	0.0014801025	-0.0033569336	
1465359034550501	-0.27227783	-0.8149414	0.33122253	3.9672852E-4	0.0014801025	-0.0033569336	
1465359044560266	-0.12846375	-0.8096161	0.38449097	3.9672852E-4	0.0014801025	-0.0033569336	
1465359054539514	0.0025634766	-0.7638092	0.3759613	3.9672852E-4	0.0014801025	-0.0033569336	
1465359064549280	0.105895996	-0.69670105	0.32164	3.9672852E-4	0.0014801025	-0.0033569336	
1465359074528528	0.16342163	-0.6199951	0.241745	3.9672852E-4	0.0014801025	-0.0033569336	
1465359084538294	0.17726135	-0.55075073	0.18101501	3.9672852E-4	0.0014801025	-0.0033569336	
1465359094548059	0.14424133	-0.4942932	0.15013123	3.9672852E-4	0.0014801025	-0.0033569336	
1465359114537073	-0.038986206	-0.4112091	0.14160156	3.9672852E-4	0.0014801025	-0.0033569336	
1465359114537073	-0.038986206	-0.4112091	0.14160156	3.9672852E-4	0.0014801025	-0.0033569336	
1465359124516321	-0.12953186	-0.40161133	0.14692688	3.9672852E-4	0.0014801025	-0.0033569336	
1465359144535852	-0.19238281	-0.40800476	0.105392456	3.9672852E-4	0.0014801025	-0.0033569336	
1465359144535852	-0.19238281	-0.40800476	0.105392456	3.9672852E-4	0.0014801025	-0.0033569336	
1465359164524866	-0.08265686	-0.40693665	-0.021377563	3.9672852E-4	0.0014801025	-0.0033569336	
1465359164524866	-0.08265686	-0.40693665	-0.021377563	3.9672852E-4	0.0014801025	-0.0033569336	
1465359174504114	0.02279663	-0.39949036	-0.1300354	3.9672852E-4	0.0014801025	-0.0033569336	
1465359194493128	0.2358551	-0.28123474	-0.3718567	3.9672852E-4	0.0014801025	-0.0033569336	
1465359194493128	0.2358551	-0.28123474	-0.3718567	3.9672852E-4	0.0014801025	-0.0033569336	
1465359204502893	0.28485107	-0.16085815	-0.45387268	3.9672852E-4	0.0014801025	-0.0033569336	
1465359214512659	0.2912445	-0.046875	-0.48158264	3.9672852E-4	0.0014801025	-0.0033569336	
1465359224491907	0.26887512	-0.022384644	-0.47091675	3.9672852E-4	0.0014801025	-0.0033569336	
1465359244511438	0.15489197	-0.3174591	-0.41020203	3.9672852E-4	0.0014801025	-0.0033569336	
1465359244511438	0.15489197	-0.3174591	-0.41020203	3.9672852E-4	0.0014801025	-0.0033569336	
1465359254490686	0.10269165	-0.5155945	-0.39315796	3.9672852E-4	0.0014801025	-0.0033569336	
1465359264500452	0.080322266	-0.651947	-0.39422607	3.9672852E-4	0.0014801025	-0.0033569336	
1465359274510217	0.07180786	-0.65089417	-0.4091339	3.9672852E-4	0.0014801025	-0.0033569336	
1465359284489465	0.056884766	-0.5454254	-0.4283142	3.9672852E-4	0.0014801025	-0.0033569336	
1465359294468714	0.026000977	-0.4112091	-0.42938232	3.9672852E-4	0.0014801025	-0.0033569336	
1465359304447962	-0.03366089	-0.25247192	-0.4080658	3.9672852E-4	0.0014801025	-0.0033569336	
1465359314457727	-0.13166809	-0.011734009	-0.38996887	3.9672852E-4	0.0014801025	-0.0033569336	
1465359324467493	-0.25842285	0.24926758	-0.39848328	3.9672852E-4	0.0014801025	-0.0033569336	
1465359334477258	-0.37774658	0.43354797	-0.45387268	3.9672852E-4	0.0014801025	-0.0033569336	
1465359344456506	-0.4650879	0.4623108	-0.5252533	3.9672852E-4	0.0014801025	-0.0033569336	
1465359354466272	-0.5087738	0.28015137	-0.59661865	3.9672852E-4	0.0014801025	-0.0033569336	
1465359364445520	-0.480011	-0.038360596	-0.6552124	3.9672852E-4	0.0014801025	-0.0033569336	
1465359374455286	-0.3638916	-0.41226196	-0.6647949	3.9672852E-4	0.0014801025	-0.0033569336	
1465359394444299	-0.0027618408	-0.7669983	-0.55081177	3.9672852E-4	0.0014801025	-0.0033569336	
1465359394444299	-0.0027618408	-0.7669983	-0.55081177	3.9672852E-4	0.0014801025	-0.0033569336	
1465359404454065	0.15596008	-0.62532043	-0.49542236	3.9672852E-4	0.0014801025	-0.0033569336	
1465359424443079	0.30296326	0.014907837	-0.47091675	3.9672852E-4	0.0014801025	-0.0033569336	
1465359424443079	0.30296326	0.014907837	-0.47091675	3.9672852E-4	0.0014801025	-0.0033569336	
1465359434452844	0.2859192	0.28121948	-0.4837036	3.9672852E-4	0.0014801025	-0.0033569336	
1465359454441858	0.15382385	0.33448792	-0.4986267	3.9672852E-4	0.0014801025	-0.0033569336	
1465359454441858	0.15382385	0.33448792	-0.4986267	3.9672852E-4	0.0014801025	-0.0033569336	
1465359464451624	0.043045044	0.16616821	-0.4986267	3.9672852E-4	0.0014801025	-0.0033569336	
1465359474430872	-0.08905029	-0.001083374	-0.5156708	3.9672852E-4	0.0014801025	-0.0033569336	
1465359484440637	-0.1870575	-0.09588623	-0.53697205	3.9672852E-4	0.0014801025	-0.0033569336	
1465359494419885	-0.22647095	-0.13529968	-0.53697205	3.9672852E-4	0.0014801025	-0.0033569336	
1465359504429651	-0.210495	-0.140625	-0.503952	3.9672852E-4	0.0014801025	-0.0033569336	
1465359514439417	-0.14125061	-0.140625	-0.44961548	3.9672852E-4	0.0014801025	-0.0033569336	
1465359524418665	-0.04324341	-0.15341187	-0.39102173	3.9672852E-4	0.0014801025	-0.0033569336	
1465359534428430	0.061141968	-0.15447998	-0.344162	3.9672852E-4	0.0014801025	-0.0033569336	
1465359554417444	0.25502014	-0.09375	-0.30900574	3.9672852E-4	0.0014801025	-0.0033569336	
1465359554417444	0.25502014	-0.09375	-0.30900574	3.9672852E-4	0.0014801025	-0.0033569336	
1465359564427210	0.3572998	-0.057540894	-0.3260498	3.9672852E-4	0.0014801025	-0.0033569336	
1465359574406458	0.44252014	-0.027709961	-0.3537445	3.9672852E-4	0.0014801025	-0.0033569336	
1465359584416223	0.48298645	0.015975952	-0.3718567	3.9672852E-4	0.0014801025	-0.0033569336	
1465359594425989	0.46914673	0.08520508	-0.36013794	3.9672852E-4	0.0014801025	-0.0033569336	
1465359604405237	0.4073639	0.15338135	-0.3217926	3.9672852E-4	0.0014801025	-0.0033569336	
1465359614384485	0.3061676	0.20132446	-0.26106262	3.9672852E-4	0.0014801025	-0.0033569336	
1465359624394251	0.17512512	0.23648071	-0.19502258	3.9672852E-4	0.0014801025	-0.0033569336	
1465359634404016	0.047302246	0.25564575	-0.1577301	3.9672852E-4	0.0014801025	-0.0033569336	
1465359644383264	-0.04324341	0.19813538	-0.1492157	3.9672852E-4	0.0014801025	-0.0033569336	
1465359654393030	-0.10290527	0.04260254	-0.15667725	3.9672852E-4	0.0014801025	-0.0033569336	
1465359664372278	-0.1444397	-0.16725159	-0.1811676	3.9672852E-4	0.0014801025	-0.0033569336	
1465359674382044	-0.14764404	-0.32917786	-0.2195282	3.9672852E-4	0.0014801025	-0.0033569336	
1465359684391809	-0.09651184	-0.3867035	-0.24082947	3.9672852E-4	0.0014801025	-0.0033569336	
1465359694371057	-0.0017089844	-0.34729004	-0.22697449	3.9672852E-4	0.0014801025	-0.0033569336	
1465359704380823	0.12612915	-0.24928284	-0.18437195	3.9672852E-4	0.0014801025	-0.0033569336	
1465359714360071	0.28485107	-0.14595032	-0.1257782	3.9672852E-4	0.0014801025	-0.0033569336	
1465359724369837	0.4627533	-0.06925964	-0.07144165	3.9672852E-4	0.0014801025	-0.0033569336	
1465359734349085	0.6257324	-0.026641846	-0.0320282	3.9672852E-4	0.0014801025	-0.0033569336	
1465359744358850	0.7631531	-0.009597778	-0.017120361	3.9672852E-4	0.0014801025	-0.0033569336	
1465359754368616	0.8920593	-0.024505615	-0.0096588135	3.9672852E-4	0.0014801025	-0.0033569336	
1465359764347864	1.0049744	-0.052215576	0.0052490234	3.9672852E-4	0.0014801025	-0.0033569336	
1465359784367395	1.0603638	-0.055404663	0.027618408	3.9672852E-4	0.0014801025	-0.0033569336	
1465359784367395	1.0603638	-0.055404663	0.027618408	3.9672852E-4	0.0014801025	-0.0033569336	
1465359794346643	0.9889984	-0.008529663	0.05744934	3.9672852E-4	0.0014801025	-0.0033569336	
1465359814335657	0.66516113	0.23327637	0.12669373	3.9672852E-4	0.0014801025	-0.0033569336	
1465359814335657	0.66516113	0.23327637	0.12669373	3.9672852E-4	0.0014801025	-0.0033569336	
1465359824345422	0.42440796	0.38134766	0.12243652	3.9672852E-4	0.0014801025	-0.0033569336	
1465359834355188	0.1655426	0.4676361	0.08621216	3.9672852E-4	0.0014801025	-0.0033569336	
1465359844334436	-0.07093811	0.4772339	0.046798706	3.9672852E-4	0.0014801025	-0.0033569336	
1465359864323450	-0.36602783	0.42289734	-0.06399536	3.9672852E-4	0.0014801025	-0.0033569336	
1465359864323450	-0.36602783	0.42289734	-0.06399536	3.9672852E-4	0.0014801025	-0.0033569336	
1465359874333215	-0.40756226	0.40266418	-0.11512756	3.9672852E-4	0.0014801025	-0.0033569336	
1465359884312464	-0.37561035	0.38987732	-0.13642883	3.9672852E-4	0.0014801025	-0.0033569336	
1465359894322229	-0.28825378	0.41970825	-0.14175415	3.9672852E-4	0.0014801025	-0.0033569336	
1465359904331995	-0.1678772	0.47935486	-0.16200256	3.9672852E-4	0.0014801025	-0.0033569336	
1465359914311243	-0.05921936	0.546463	-0.21418762	3.9672852E-4	0.0014801025	-0.0033569336	
1465359924290491	-0.003829956	0.61465454	-0.2930298	3.9672852E-4	0.0014801025	-0.0033569336	
1465359934300256	0.010009766	0.66578674	-0.39315796	3.9672852E-4	0.0014801025	-0.0033569336	
1465359944310022	0.0057525635	0.6806946	-0.5018158	3.9672852E-4	0.0014801025	-0.0033569336	
1465359964329553	0.05369568	0.6625824	-0.74468994	3.9672852E-4	0.0014801025	-0.0033569336	
1465359964329553	0.05369568	0.6625824	-0.74468994	3.9672852E-4	0.0014801025	-0.0033569336	
1465359974308801	0.14743042	0.69348145	-0.8778534	3.9672852E-4	0.0014801025	-0.0033569336	
1465359984288049	0.26887512	0.77124023	-1.0142059	3.9672852E-4	0.0014801025	-0.0033569336	
1465359994297815	0.38711548	0.9054718	-1.1367188	3.9672852E-4	0.0014801025	-0.0033569336	
1465360014286829	0.5607605	1.2495422	-1.3199463	3.9672852E-4	0.0014801025	-0.0033569336	
1465360014286829	0.5607605	1.2495422	-1.3199463	3.9672852E-4	0.0014801025	-0.0033569336	
1465360024296594	0.6385193	1.437027	-1.4019623	3.9672852E-4	0.0014801025	-0.0033569336	
1465360034306360	0.7184143	1.610672	-1.4743958	3.9672852E-4	0.0014801025	-0.0033569336	
1465360044316126	0.82388306	1.7789764	-1.5244751	3.9672852E-4	0.0014801025	-0.0033569336	
1465360054295374	0.9879303	1.9163971	-1.5521698	3.9672852E-4	0.0014801025	-0.0033569336	
1465360064305139	1.2095032	1.9813843	-1.5383148	3.9672852E-4	0.0014801025	-0.0033569336	
1465360084294153	1.6430664	1.8535461	-1.4850616	3.9672852E-4	0.0014801025	-0.0033569336	
1465360084294153	1.6430664	1.8535461	-1.4850616	3.9672852E-4	0.0014801025	-0.0033569336	
1465360094273401	1.7059174	1.6948242	-1.4669495	3.9672852E-4	0.0014801025	-0.0033569336	
1465360114262415	1.431076	1.4604645	-1.4392548	3.9672852E-4	0.0014801025	-0.0033569336	
1465360114262415	1.431076	1.4604645	-1.4392548	3.9672852E-4	0.0014801025	-0.0033569336	
1465360124272180	1.1839447	1.3763123	-1.3209991	3.9672852E-4	0.0014801025	-0.0033569336	
1465360134281946	0.92614746	1.3017426	-1.1452332	3.9672852E-4	0.0014801025	-0.0033569336	
1465360144261194	0.6672821	1.2463531	-0.9747925	3.9672852E-4	0.0014801025	-0.0033569336	
1465360164250208	0.16767883	0.99494934	-0.8096771	3.9672852E-4	0.0014801025	-0.0033569336	
1465360164250208	0.16767883	0.99494934	-0.8096771	3.9672852E-4	0.0014801025	-0.0033569336	
1465360174259973	-0.09970093	0.77337646	-0.8320465	3.9672852E-4	0.0014801025	-0.0033569336	
1465360184269739	-0.38093567	0.5155792	-0.9002228	3.9672852E-4	0.0014801025	-0.0033569336	
1465360194248987	-0.65789795	0.24606323	-0.9854431	3.9672852E-4	0.0014801025	-0.0033569336	
1465360214268518	-1.1255493	-0.05647278	-1.0802612	3.9672852E-4	0.0014801025	-0.0033569336	
1465360214268518	-1.1255493	-0.05647278	-1.0802612	3.9672852E-4	0.0014801025	-0.0033569336	
1465360224247766	-1.2810822	-0.021316528	-1.012085	3.9672852E-4	0.0014801025	-0.0033569336	
1465360234257532	-1.3865509	0.113967896	-0.869339	3.9672852E-4	0.0014801025	-0.0033569336	
1465360244236780	-1.4717712	0.24819946	-0.6967621	3.9672852E-4	0.0014801025	-0.0033569336	
1465360264225794	-1.7316895	0.4537964	-0.32391357	3.9672852E-4	0.0014801025	-0.0033569336	
1465360264225794	-1.7316895	0.4537964	-0.32391357	3.9672852E-4	0.0014801025	-0.0033569336	
1465360274235559	-1.6560516	0.52197266	-0.17477417	3.9672852E-4	0.0014801025	-0.0033569336	
1465360284214807	-1.5111847	0.4069214	-0.13536072	3.9672852E-4	0.0014801025	-0.0033569336	
1465360294224573	-1.3609772	0.30145264	-0.1577301	3.9672852E-4	0.0014801025	-0.0033569336	
1465360304203821	-1.2065125	0.22901917	-0.21099854	3.9672852E-4	0.0014801025	-0.0033569336	
1465360314213587	-1.0626984	0.12249756	-0.23550415	3.9672852E-4	0.0014801025	-0.0033569336	
1465360324223352	-0.9668274	0.012771606	-0.19714355	3.9672852E-4	0.0014801025	-0.0033569336	
1465360334233118	-0.92422485	-0.06391907	-0.12471008	3.9672852E-4	0.0014801025	-0.0033569336	
1465360344212366	-0.8933258	-0.106536865	-0.051208496	3.9672852E-4	0.0014801025	-0.0033569336	
1465360364201380	-0.67707825	-0.020248413	0.0052490234	3.9672852E-4	0.0014801025	-0.0033569336	
1465360364201380	-0.67707825	-0.020248413	0.0052490234	3.9672852E-4	0.0014801025	-0.0033569336	
1465360374211145	-0.513031	-0.008529663	-0.030975342	3.9672852E-4	0.0014801025	-0.0033569336	
1465360384220911	-0.34898376	-0.023452759	-0.07997131	3.9672852E-4	0.0014801025	-0.0033569336	
1465360394200159	-0.19558716	-0.07777405	-0.13856506	3.9672852E-4	0.0014801025	-0.0033569336	
1465360404209924	-0.07733154	-0.13848877	-0.21099854	3.9672852E-4	0.0014801025	-0.0033569336	
1465360414219690	-0.029403687	-0.15660095	-0.2823639	3.9672852E-4	0.0014801025	-0.0033569336	
1465360424198938	-0.06454468	-0.07884216	-0.33351135	3.9672852E-4	0.0014801025	-0.0033569336	
1465360434178186	-0.15615845	0.113967896	-0.35588074	3.9672852E-4	0.0014801025	-0.0033569336	
1465360444187952	-0.25309753	0.38562012	-0.35481262	3.9672852E-4	0.0014801025	-0.0033569336	
1465360454197717	-0.31062317	0.67004395	-0.31752014	3.9672852E-4	0.0014801025	-0.0033569336	
1465360464207483	-0.29997253	0.8713684	-0.23550415	3.9672852E-4	0.0014801025	-0.0033569336	
1465360474186731	-0.22860718	0.9470062	-0.13110352	3.9672852E-4	0.0014801025	-0.0033569336	
1465360484165979	-0.12207031	0.9278412	-0.017120361	3.9672852E-4	0.0014801025	-0.0033569336	
1465360494175745	-0.003829956	0.8394165	0.09686279	3.9672852E-4	0.0014801025	-0.0033569336	
1465360504154993	0.10482788	0.70625305	0.21723938	3.9672852E-4	0.0014801025	-0.0033569336	
1465360524144006	0.267807	0.40478516	0.42922974	3.9672852E-4	0.0014801025	-0.0033569336	
1465360524144006	0.267807	0.40478516	0.42922974	3.9672852E-4	0.0014801025	-0.0033569336	
1465360534153772	0.3061676	0.30358887	0.5059204	3.9672852E-4	0.0014801025	-0.0033569336	
1465360544163538	0.29870605	0.27589417	0.5538635	3.9672852E-4	0.0014801025	-0.0033569336	
1465360554173303	0.24331665	0.32702637	0.5740967	3.9672852E-4	0.0014801025	-0.0033569336	
1465360564152551	0.1570282	0.42289734	0.5719757	3.9672852E-4	0.0014801025	-0.0033569336	
1465360584141565	-0.010223389	0.60505676	0.52189636	3.9672852E-4	0.0014801025	-0.0033569336	
1465360584141565	-0.010223389	0.60505676	0.52189636	3.9672852E-4	0.0014801025	-0.0033569336	
1465360594151331	-0.06135559	0.6434021	0.5005951	3.9672852E-4	0.0014801025	-0.0033569336	
1465360604161096	-0.09437561	0.62849426	0.4920807	3.9672852E-4	0.0014801025	-0.0033569336	
1465360614170862	-0.095443726	0.5613861	0.48568726	3.9672852E-4	0.0014801025	-0.0033569336	
1465360624150110	-0.052841187	0.43247986	0.4729004	3.9672852E-4	0.0014801025	-0.0033569336	
1465360634129358	0.027053833	0.27056885	0.4409485	3.9672852E-4	0.0014801025	-0.0033569336	
1465360644108606	0.12612915	0.10652161	0.38128662	3.9672852E-4	0.0014801025	-0.0033569336	
1465360664097620	0.30722046	-0.10972595	0.2268219	3.9672852E-4	0.0014801025	-0.0033569336	
1465360664097620	0.30722046	-0.10972595	0.2268219	3.9672852E-4	0.0014801025	-0.0033569336	
1465360674107385	0.35942078	-0.12571716	0.16503906	3.9672852E-4	0.0014801025	-0.0033569336	
1465360694096399	0.39883423	0.0010528564	0.10964966	3.9672852E-4	0.0014801025	-0.0033569336	
1465360694096399	0.39883423	0.0010528564	0.10964966	3.9672852E-4	0.0014801025	-0.0033569336	
1465360704106165	0.39990234	0.10971069	0.10858154	3.9672852E-4	0.0014801025	-0.0033569336	
1465360714115930	0.39564514	0.22155762	0.10858154	3.9672852E-4	0.0014801025	-0.0033569336	
1465360724095178	0.38285828	0.3142395	0.10432434	3.9672852E-4	0.0014801025	-0.0033569336	
1465360734104944	0.3604889	0.37283325	0.10644531	3.9672852E-4	0.0014801025	-0.0033569336	
1465360744084192	0.33172607	0.38987732	0.114974976	3.9672852E-4	0.0014801025	-0.0033569336	
1465360764073206	0.2635498	0.32276917	0.124557495	3.9672852E-4	0.0014801025	-0.0033569336	
1465360764073206	0.2635498	0.32276917	0.124557495	3.9672852E-4	0.0014801025	-0.0033569336	
1465360774082971	0.21987915	0.2822876	0.124557495	3.9672852E-4	0.0014801025	-0.0033569336	
1465360784062219	0.16874695	0.26950073	0.114974976	3.9672852E-4	0.0014801025	-0.0033569336	
1465360794071985	0.11973572	0.27482605	0.103256226	3.9672852E-4	0.0014801025	-0.0033569336	
1465360804081751	0.07286072	0.28440857	0.091537476	3.9672852E-4	0.0014801025	-0.0033569336	
1465360814060999	0.037719727	0.30784607	0.08088684	3.9672852E-4	0.0014801025	-0.0033569336	
1465360824070764	0.014282227	0.33554077	0.06491089	3.9672852E-4	0.0014801025	-0.0033569336	
1465360834050012	-0.009155273	0.36643982	0.04147339	3.9672852E-4	0.0014801025	-0.0033569336	
1465360844059778	-0.03791809	0.4154358	0.009506226	3.9672852E-4	0.0014801025	-0.0033569336	
1465360854069544	-0.072006226	0.48468018	-0.0320282	3.9672852E-4	0.0014801025	-0.0033569336	
1465360874058557	-0.1828003	0.6881561	-0.12684631	3.9672852E-4	0.0014801025	-0.0033569336	
1465360874058557	-0.1828003	0.6881561	-0.12684631	3.9672852E-4	0.0014801025	-0.0033569336	
1465360884068323	-0.26481628	0.8106537	-0.16732788	3.9672852E-4	0.0014801025	-0.0033569336	
1465360894047571	-0.3596344	0.9331665	-0.1960907	3.9672852E-4	0.0014801025	-0.0033569336	
1465360904057337	-0.47787476	1.0396881	-0.21099854	3.9672852E-4	0.0014801025	-0.0033569336	
1465360914067102	-0.6238098	1.1078644	-0.19927979	3.9672852E-4	0.0014801025	-0.0033569336	
1465360924046350	-0.7910614	1.134491	-0.16093445	3.9672852E-4	0.0014801025	-0.0033569336	
1465360934025598	-0.95510864	1.1174469	-0.1065979	3.9672852E-4	0.0014801025	-0.0033569336	
1465360944035364	-1.0722961	1.0301056	-0.070388794	3.9672852E-4	0.0014801025	-0.0033569336	
1465360964024378	-1.1319427	0.69348145	-0.1577301	3.9672852E-4	0.0014801025	-0.0033569336	
1465360964024378	-1.1319427	0.69348145	-0.1577301	3.9672852E-4	0.0014801025	-0.0033569336	
1465360974034143	-1.1255493	0.50704956	-0.24934387	3.9672852E-4	0.0014801025	-0.0033569336	
1465360984013391	-1.1021271	0.33235168	-0.344162	3.9672852E-4	0.0014801025	-0.0033569336	
1465360994023157	-1.0648346	0.21090698	-0.42617798	3.9672852E-4	0.0014801025	-0.0033569336	
1465361004032922	-1.0413971	0.15765381	-0.4602661	3.9672852E-4	0.0014801025	-0.0033569336	
1465361014012171	-1.0552521	0.13208008	-0.41766357	3.9672852E-4	0.0014801025	-0.0033569336	
1465361024021936	-1.0882721	0.08415222	-0.30047607	3.9672852E-4	0.0014801025	-0.0033569336	
1465361044010950	-1.057373	-0.07777405	0.11709595	3.9672852E-4	0.0014801025	-0.0033569336	
1465361044010950	-1.057373	-0.07777405	0.11709595	3.9672852E-4	0.0014801025	-0.0033569336	
1465361054020715	-0.9433899	-0.14915466	0.35359192	3.9672852E-4	0.0014801025	-0.0033569336	
1465361064030481	-0.77615356	-0.17684937	0.5421448	3.9672852E-4	0.0014801025	-0.0033569336	
1465361074009729	-0.5780029	-0.1640625	0.6508026	3.9672852E-4	0.0014801025	-0.0033569336	
1465361084019495	-0.37774658	-0.13955688	0.6870117	3.9672852E-4	0.0014801025	-0.0033569336	
1465361094029260	-0.18919373	-0.106536865	0.6742401	3.9672852E-4	0.0014801025	-0.0033569336	
1465361104008508	-0.020874023	-0.06286621	0.6252289	3.9672852E-4	0.0014801025	-0.0033569336	
1465361114018274	0.115478516	-0.009597778	0.5559845	3.9672852E-4	0.0014801025	-0.0033569336	
1465361123997522	0.21560669	0.057510376	0.48036194	3.9672852E-4	0.0014801025	-0.0033569336	
1465361134007288	0.29763794	0.11291504	0.40153503	3.9672852E-4	0.0014801025	-0.0033569336	
1465361144017053	0.37434387	0.1299591	0.33547974	3.9672852E-4	0.0014801025	-0.0033569336	
1465361153996301	0.44784546	0.11824036	0.28967285	3.9672852E-4	0.0014801025	-0.0033569336	
1465361164006067	0.5128174	0.08520508	0.26091003	3.9672852E-4	0.0014801025	-0.0033569336	
1465361173985315	0.5596924	0.038345337	0.25239563	3.9672852E-4	0.0014801025	-0.0033569336	
1465361183995081	0.584198	-0.02557373	0.26730347	3.9672852E-4	0.0014801025	-0.0033569336	
1465361194004846	0.59484863	-0.10334778	0.29606628	3.9672852E-4	0.0014801025	-0.0033569336	
1465361203984094	0.61402893	-0.20240784	0.33122253	3.9672852E-4	0.0014801025	-0.0033569336	
1465361213963342	0.6385193	-0.31959534	0.370636	3.9672852E-4	0.0014801025	-0.0033569336	
1465361223973108	0.6630249	-0.44529724	0.42390442	3.9672852E-4	0.0014801025	-0.0033569336	
1465361233982874	0.6907196	-0.5688629	0.46543884	3.9672852E-4	0.0014801025	-0.0033569336	
1465361243992639	0.7098999	-0.6668701	0.48461914	3.9672852E-4	0.0014801025	-0.0033569336	
1465361254002405	0.72694397	-0.7393036	0.48568726	3.9672852E-4	0.0014801025	-0.0033569336	
1465361263981653	0.7365265	-0.8000183	0.48675537	3.9672852E-4	0.0014801025	-0.0033569336	
1465361273960901	0.7141571	-0.8437042	0.49420166	3.9672852E-4	0.0014801025	-0.0033569336	
1465361283970667	0.64704895	-0.85435486	0.5016632	3.9672852E-4	0.0014801025	-0.0033569336	
1465361293980432	0.5394592	-0.8223877	0.50912476	3.9672852E-4	0.0014801025	-0.0033569336	
1465361303959680	0.4116211	-0.745697	0.5197754	3.9672852E-4	0.0014801025	-0.0033569336	
1465361313969446	0.281662	-0.63490295	0.5282898	3.9672852E-4	0.0014801025	-0.0033569336	
1465361323948694	0.15170288	-0.49110413	0.52723694	3.9672852E-4	0.0014801025	-0.0033569336	
1465361333958460	0.026000977	-0.36112976	0.4920807	3.9672852E-4	0.0014801025	-0.0033569336	
1465361343968225	-0.08692932	-0.27272034	0.41963196	3.9672852E-4	0.0014801025	-0.0033569336	
1465361353947473	-0.1828003	-0.21412659	0.3248291	3.9672852E-4	0.0014801025	-0.0033569336	
1465361373967005	-0.30743408	-0.19708252	0.12669373	3.9672852E-4	0.0014801025	-0.0033569336	
1465361373967005	-0.30743408	-0.19708252	0.12669373	3.9672852E-4	0.0014801025	-0.0033569336	
1465361383946253	-0.35003662	-0.21412659	0.04786682	3.9672852E-4	0.0014801025	-0.0033569336	
1465361393956018	-0.3873291	-0.22158813	-0.019256592	3.9672852E-4	0.0014801025	-0.0033569336	
1465361403935266	-0.42248535	-0.20454407	-0.082107544	3.9672852E-4	0.0014801025	-0.0033569336	
1465361423924280	-0.5311432	-0.083099365	-0.15454102	3.9672852E-4	0.0014801025	-0.0033569336	
1465361423924280	-0.5311432	-0.083099365	-0.15454102	3.9672852E-4	0.0014801025	-0.0033569336	
1465361433934046	-0.60676575	0.017028809	-0.17051697	3.9672852E-4	0.0014801025	-0.0033569336	
1465361443943811	-0.6792145	0.12568665	-0.19395447	3.9672852E-4	0.0014801025	-0.0033569336	
1465361453953577	-0.73246765	0.22795105	-0.23762512	3.9672852E-4	0.0014801025	-0.0033569336	
1465361463932825	-0.7676239	0.337677	-0.3058014	3.9672852E-4	0.0014801025	-0.0033569336	
1465361473912073	-0.7878723	0.45698547	-0.39422607	3.9672852E-4	0.0014801025	-0.0033569336	
1465361483921839	-0.7899933	0.5794983	-0.49116516	3.9672852E-4	0.0014801025	-0.0033569336	
1465361493931604	-0.77615356	0.6668396	-0.56999207	3.9672852E-4	0.0014801025	-0.0033569336	
1465361503910852	-0.7665558	0.70625305	-0.62005615	3.9672852E-4	0.0014801025	-0.0033569336	
1465361513920618	-0.7889252	0.69241333	-0.66267395	3.9672852E-4	0.0014801025	-0.0033569336	
1465361523899866	-0.85072327	0.65618896	-0.7052765	3.9672852E-4	0.0014801025	-0.0033569336	
1465361533909631	-0.92315674	0.607193	-0.7766571	3.9672852E-4	0.0014801025	-0.0033569336	
1465361543888880	-0.958313	0.52516174	-0.8821106	3.9672852E-4	0.0014801025	-0.0033569336	
1465361553898645	-0.93273926	0.43354797	-1.012085	3.9672852E-4	0.0014801025	-0.0033569336	
1465361573918176	-0.5737457	0.19493103	-1.2507019	3.9672852E-4	0.0014801025	-0.0033569336	
1465361573918176	-0.5737457	0.19493103	-1.2507019	3.9672852E-4	0.0014801025	-0.0033569336	
1465361583927942	-0.19877625	0.008514404	-1.3092804	3.9672852E-4	0.0014801025	-0.0033569336	
1465361593907190	0.24757385	-0.21200562	-1.316742	3.9672852E-4	0.0014801025	-0.0033569336	
1465361603886438	0.6843262	-0.4112091	-1.2602844	3.9672852E-4	0.0014801025	-0.0033569336	
1465361613896204	1.0497131	-0.539032	-1.1420441	3.9672852E-4	0.0014801025	-0.0033569336	
1465361623875452	1.2957916	-0.55500793	-0.98332214	3.9672852E-4	0.0014801025	-0.0033569336	
1465361633885217	1.427887	-0.47406006	-0.81925964	3.9672852E-4	0.0014801025	-0.0033569336	
1465361643864465	1.477951	-0.33236694	-0.67118835	3.9672852E-4	0.0014801025	-0.0033569336	
1465361653874231	1.4587708	-0.13743591	-0.5572052	3.9672852E-4	0.0014801025	-0.0033569336	
1465361663883997	1.3895264	0.07775879	-0.49542236	3.9672852E-4	0.0014801025	-0.0033569336	
1465361673863245	1.2723541	0.27375793	-0.47091675	3.9672852E-4	0.0014801025	-0.0033569336	
1465361683873010	1.142395	0.39839172	-0.4783783	3.9672852E-4	0.0014801025	-0.0033569336	
1465361693882776	1.0113678	0.43354797	-0.48690796	3.9672852E-4	0.0014801025	-0.0033569336	
1465361703862024	0.8814087	0.40266418	-0.47091675	3.9672852E-4	0.0014801025	-0.0033569336	
1465361713871790	0.7695465	0.31956482	-0.4283142	3.9672852E-4	0.0014801025	-0.0033569336	
1465361723851038	0.6875305	0.19493103	-0.3569336	3.9672852E-4	0.0014801025	-0.0033569336	
1465361733860803	0.6395874	0.045791626	-0.250412	3.9672852E-4	0.0014801025	-0.0033569336	
1465361743840051	0.6214752	-0.092681885	-0.12045288	3.9672852E-4	0.0014801025	-0.0033569336	
1465361753849817	0.62786865	-0.20561218	0.0063171387	3.9672852E-4	0.0014801025	-0.0033569336	
1465361773838831	0.7045746	-0.3313141	0.17036438	3.9672852E-4	0.0014801025	-0.0033569336	
1465361773838831	0.7045746	-0.3313141	0.17036438	3.9672852E-4	0.0014801025	-0.0033569336	
1465361783848596	0.7557068	-0.37498474	0.2268219	3.9672852E-4	0.0014801025	-0.0033569336	
1465361793858362	0.8100281	-0.39842224	0.26623535	3.9672852E-4	0.0014801025	-0.0033569336	
1465361803837610	0.8686218	-0.42185974	0.29927063	3.9672852E-4	0.0014801025	-0.0033569336	
1465361813816858	0.9122925	-0.43569946	0.3280182	3.9672852E-4	0.0014801025	-0.0033569336	
1465361823826624	0.92826843	-0.410141	0.34506226	3.9672852E-4	0.0014801025	-0.0033569336	
1465361833836389	0.91122437	-0.33876038	0.3514557	3.9672852E-4	0.0014801025	-0.0033569336	
1465361843815637	0.8675537	-0.23649597	0.35784912	3.9672852E-4	0.0014801025	-0.0033569336	
1465361853794885	0.8025665	-0.1171875	0.36531067	3.9672852E-4	0.0014801025	-0.0033569336	
1465361863804651	0.7237396	-0.004272461	0.38235474	3.9672852E-4	0.0014801025	-0.0033569336	
1465361873814417	0.6406555	0.08520508	0.40472412	3.9672852E-4	0.0014801025	-0.0033569336	
1465361883824182	0.55862427	0.14593506	0.42495728	3.9672852E-4	0.0014801025	-0.0033569336	
1465361893833948	0.47766113	0.18109131	0.45266724	3.9672852E-4	0.0014801025	-0.0033569336	
1465361903813196	0.40097046	0.18746948	0.48568726	3.9672852E-4	0.0014801025	-0.0033569336	
1465361923802210	0.23371887	0.1885376	0.5059204	3.9672852E-4	0.0014801025	-0.0033569336	
1465361923802210	0.23371887	0.1885376	0.5059204	3.9672852E-4	0.0014801025	-0.0033569336	
1465361933811975	0.13145447	0.21090698	0.49420166	3.9672852E-4	0.0014801025	-0.0033569336	
1465361943821741	0.018539429	0.24180603	0.48780823	3.9672852E-4	0.0014801025	-0.0033569336	
1465361953800989	-0.10183716	0.27908325	0.48355103	3.9672852E-4	0.0014801025	-0.0033569336	
1465361963780237	-0.22433472	0.32063293	0.48036194	3.9672852E-4	0.0014801025	-0.0033569336	
1465361973790003	-0.34898376	0.37390137	0.4824829	3.9672852E-4	0.0014801025	-0.0033569336	
1465361983799768	-0.4895935	0.43782043	0.48887634	3.9672852E-4	0.0014801025	-0.0033569336	
1465361993809534	-0.6429901	0.49960327	0.48461914	3.9672852E-4	0.0014801025	-0.0033569336	
1465362003788782	-0.80171204	0.5336914	0.4547882	3.9672852E-4	0.0014801025	-0.0033569336	
1465362013798547	-0.9647064	0.5336914	0.3983307	3.9672852E-4	0.0014801025	-0.0033569336	
1465362023777796	-1.1351471	0.52197266	0.33441162	3.9672852E-4	0.0014801025	-0.0033569336	
1465362033787561	-1.3119812	0.511322	0.26623535	3.9672852E-4	0.0014801025	-0.0033569336	
1465362043766809	-1.4845428	0.51664734	0.17462158	3.9672852E-4	0.0014801025	-0.0033569336	
1465362053776575	-1.6443329	0.5123749	0.037200928	3.9672852E-4	0.0014801025	-0.0033569336	
1465362063786340	-1.8105164	0.4772339	-0.121520996	3.9672852E-4	0.0014801025	-0.0033569336	
1465362083775354	-2.2408905	0.25032043	-0.31539917	3.9672852E-4	0.0014801025	-0.0033569336	
1465362083775354	-2.2408905	0.25032043	-0.31539917	3.9672852E-4	0.0014801025	-0.0033569336	
1465362093785120	-2.459259	0.080947876	-0.29196167	3.9672852E-4	0.0014801025	-0.0033569336	
1465362103764368	-2.645691	-0.10121155	-0.15879822	3.9672852E-4	0.0014801025	-0.0033569336	
1465362113774133	-2.7362366	-0.2940216	0.04786682	3.9672852E-4	0.0014801025	-0.0033569336	
1465362133763147	-2.3985443	-0.7627411	0.4547882	3.9672852E-4	0.0014801025	-0.0033569336	
1465362133763147	-2.3985443	-0.7627411	0.4547882	3.9672852E-4	0.0014801025	-0.0033569336	
1465362143772913	-2.0352936	-0.9960327	0.58688354	3.9672852E-4	0.0014801025	-0.0033569336	
1465362153782678	-1.626236	-1.1462402	0.6444092	3.9672852E-4	0.0014801025	-0.0033569336	
1465362163761926	-1.2033234	-1.1994934	0.626297	3.9672852E-4	0.0014801025	-0.0033569336	
1465362173741174	-0.8134308	-1.1664734	0.5666504	3.9672852E-4	0.0014801025	-0.0033569336	
1465362183750940	-0.48213196	-1.0727386	0.5005951	3.9672852E-4	0.0014801025	-0.0033569336	
1465362193730188	-0.2062378	-0.935318	0.46757507	3.9672852E-4	0.0014801025	-0.0033569336	
1465362203739954	0.014282227	-0.7691345	0.4462738	3.9672852E-4	0.0014801025	-0.0033569336	
1465362213749719	0.18258667	-0.61253357	0.4270935	3.9672852E-4	0.0014801025	-0.0033569336	
1465362233738733	0.4116211	-0.36645508	0.38874817	3.9672852E-4	0.0014801025	-0.0033569336	
1465362233738733	0.4116211	-0.36645508	0.38874817	3.9672852E-4	0.0014801025	-0.0033569336	
1465362243717981	0.47447205	-0.25141907	0.35466003	3.9672852E-4	0.0014801025	-0.0033569336	
1465362253727747	0.5053711	-0.15341187	0.31736755	3.9672852E-4	0.0014801025	-0.0033569336	
1465362263737512	0.5085602	-0.09907532	0.2971344	3.9672852E-4	0.0014801025	-0.0033569336	
1465362273716760	0.48937988	-0.10546875	0.2982025	3.9672852E-4	0.0014801025	-0.0033569336	
1465362283696008	0.45742798	-0.15553284	0.3248291	3.9672852E-4	0.0014801025	-0.0033569336	
1465362293705774	0.4308014	-0.24395752	0.35784912	3.9672852E-4	0.0014801025	-0.0033569336	
1465362313694788	0.44252014	-0.46339417	0.41644287	3.9672852E-4	0.0014801025	-0.0033569336	
1465362313694788	0.44252014	-0.46339417	0.41644287	3.9672852E-4	0.0014801025	-0.0033569336	
1465362323704553	0.46488953	-0.56140137	0.44734192	3.9672852E-4	0.0014801025	-0.0033569336	
1465362333714319	0.48937988	-0.6242523	0.46543884	3.9672852E-4	0.0014801025	-0.0033569336	
1465362343693567	0.504303	-0.6338501	0.4686432	3.9672852E-4	0.0014801025	-0.0033569336	
1465362353703333	0.50749207	-0.6157379	0.46650696	3.9672852E-4	0.0014801025	-0.0033569336	
1465362363682581	0.504303	-0.57951355	0.46543884	3.9672852E-4	0.0014801025	-0.0033569336	
1465362373692346	0.48086548	-0.5209198	0.47503662	3.9672852E-4	0.0014801025	-0.0033569336	
1465362393681360	0.40309143	-0.349411	0.579422	3.9672852E-4	0.0014801025	-0.0033569336	
1465362393681360	0.40309143	-0.349411	0.579422	3.9672852E-4	0.0014801025	-0.0033569336	
1465362403691126	0.41055298	-0.2897644	0.70726013	3.9672852E-4	0.0014801025	-0.0033569336	
1465362413670374	0.45529175	-0.28123474	0.9022064	3.9672852E-4	0.0014801025	-0.0033569336	
1465362423680139	0.49790955	-0.3089447	1.184494	3.9672852E-4	0.0014801025	-0.0033569336	
1465362433659387	0.52560425	-0.31959534	1.48703	3.9672852E-4	0.0014801025	-0.0033569336	
1465362443669153	0.55436707	-0.30041504	1.7064819	3.9672852E-4	0.0014801025	-0.0033569336	
1465362453678919	0.5937805	-0.31532288	1.7799835	3.9672852E-4	0.0014801025	-0.0033569336	
1465362463658167	0.6395874	-0.38882446	1.7341766	3.9672852E-4	0.0014801025	-0.0033569336	
1465362473667932	0.6822052	-0.5070801	1.5999451	3.9672852E-4	0.0014801025	-0.0033569336	
1465362483677698	0.6896515	-0.63171387	1.4241791	3.9672852E-4	0.0014801025	-0.0033569336	
1465362493656946	0.6534424	-0.7403717	1.2814331	3.9672852E-4	0.0014801025	-0.0033569336	
1465362503666712	0.57141113	-0.8703308	1.2058105	3.9672852E-4	0.0014801025	-0.0033569336	
1465362513676477	0.47872925	-1.0279846	1.1482849	3.9672852E-4	0.0014801025	-0.0033569336	
1465362533665491	0.29656982	-1.2474365	1.0097961	3.9672852E-4	0.0014801025	-0.0033569336	
1465362533665491	0.29656982	-1.2474365	1.0097961	3.9672852E-4	0.0014801025	-0.0033569336	
1465362543675256	0.2081604	-1.2495728	0.93629456	3.9672852E-4	0.0014801025	-0.0033569336	
1465362553654505	0.12294006	-1.1920471	0.85746765	3.9672852E-4	0.0014801025	-0.0033569336	
1465362563664270	0.06967163	-1.0706024	0.7519989	3.9672852E-4	0.0014801025	-0.0033569336	
1465362573674036	0.068603516	-0.95236206	0.6326904	3.9672852E-4	0.0014801025	-0.0033569336	
1465362593663049	0.18258667	-0.8223877	0.42816162	3.9672852E-4	0.0014801025	-0.0033569336	
1465362593663049	0.18258667	-0.8223877	0.42816162	3.9672852E-4	0.0014801025	-0.0033569336	
1465362603642297	0.22839355	-0.7723236	0.34933472	3.9672852E-4	0.0014801025	-0.0033569336	
1465362613621546	0.21881104	-0.6934967	0.2502594	3.9672852E-4	0.0014801025	-0.0033569336	
1465362623631311	0.14530945	-0.59976196	0.13201904	3.9672852E-4	0.0014801025	-0.0033569336	
1465362633641077	0.008956909	-0.48043823	0.0137786865	3.9672852E-4	0.0014801025	-0.0033569336	
1465362643650842	-0.17214966	-0.349411	-0.09701538	3.9672852E-4	0.0014801025	-0.0033569336	
1465362653630090	-0.3638916	-0.25354004	-0.19395447	3.9672852E-4	0.0014801025	-0.0033569336	
1465362663609339	-0.515152	-0.21305847	-0.2695923	3.9672852E-4	0.0014801025	-0.0033569336	
1465362673619104	-0.5907898	-0.23970032	-0.31326294	3.9672852E-4	0.0014801025	-0.0033569336	
1465362693608118	-0.48213196	-0.5209198	-0.33137512	3.9672852E-4	0.0014801025	-0.0033569336	
1465362693608118	-0.48213196	-0.5209198	-0.33137512	3.9672852E-4	0.0014801025	-0.0033569336	
1465362703617883	-0.3447113	-0.70947266	-0.33244324	3.9672852E-4	0.0014801025	-0.0033569336	
1465362713601105	-0.20091248	-0.8373108	-0.33563232	3.9672852E-4	0.0014801025	-0.0033569336	
1465362723610871	-0.093307495	-0.8458252	-0.34628296	3.9672852E-4	0.0014801025	-0.0033569336	
1465362743599885	-0.025131226	-0.58270264	-0.39848328	3.9672852E-4	0.0014801025	-0.0033569336	
1465362743599885	-0.025131226	-0.58270264	-0.39848328	3.9672852E-4	0.0014801025	-0.0033569336	
1465362753609650	-0.04537964	-0.40161133	-0.4549408	3.9672852E-4	0.0014801025	-0.0033569336	
1465362763619416	-0.09011841	-0.25354004	-0.52311707	3.9672852E-4	0.0014801025	-0.0033569336	
1465362773598664	-0.15722656	-0.15234375	-0.59661865	3.9672852E-4	0.0014801025	-0.0033569336	
1465362783577912	-0.23500061	-0.09056091	-0.65841675	3.9672852E-4	0.0014801025	-0.0033569336	
1465362793587678	-0.30422974	-0.053268433	-0.69036865	3.9672852E-4	0.0014801025	-0.0033569336	
1465362803597443	-0.33299255	-0.09907532	-0.6765137	3.9672852E-4	0.0014801025	-0.0033569336	
1465362823586457	-0.28825378	-0.4058838	-0.5763855	3.9672852E-4	0.0014801025	-0.0033569336	
1465362823586457	-0.28825378	-0.4058838	-0.5763855	3.9672852E-4	0.0014801025	-0.0033569336	
1465362833596223	-0.22114563	-0.5166626	-0.519928	3.9672852E-4	0.0014801025	-0.0033569336	
1465362853585236	-0.04537964	-0.65940857	-0.44003296	3.9672852E-4	0.0014801025	-0.0033569336	
1465362853585236	-0.04537964	-0.65940857	-0.44003296	3.9672852E-4	0.0014801025	-0.0033569336	
1465362863564484	0.028121948	-0.63171387	-0.42510986	3.9672852E-4	0.0014801025	-0.0033569336	
1465362873574250	0.07180786	-0.53796387	-0.4038086	3.9672852E-4	0.0014801025	-0.0033569336	
1465362883584016	0.08885193	-0.3909607	-0.37930298	3.9672852E-4	0.0014801025	-0.0033569336	
1465362903573029	0.03665161	-0.092681885	-0.35588074	3.9672852E-4	0.0014801025	-0.0033569336	
1465362903573029	0.03665161	-0.092681885	-0.35588074	3.9672852E-4	0.0014801025	-0.0033569336	
1465362913552277	-0.027267456	0.04046631	-0.33563232	3.9672852E-4	0.0014801025	-0.0033569336	
1465362933541291	-0.1678772	0.23008728	-0.3015442	3.9672852E-4	0.0014801025	-0.0033569336	
1465362933541291	-0.1678772	0.23008728	-0.3015442	3.9672852E-4	0.0014801025	-0.0033569336	
1465362943551057	-0.22860718	0.2865448	-0.2749176	3.9672852E-4	0.0014801025	-0.0033569336	
1465362953530305	-0.27441406	0.337677	-0.24401855	3.9672852E-4	0.0014801025	-0.0033569336	
1465362963540070	-0.30317688	0.40478516	-0.2195282	3.9672852E-4	0.0014801025	-0.0033569336	
1465362973549836	-0.29464722	0.5123749	-0.21525574	3.9672852E-4	0.0014801025	-0.0033569336	
1465362983529084	-0.20835876	0.5848236	-0.24082947	3.9672852E-4	0.0014801025	-0.0033569336	
1465362993538850	-0.027267456	0.57736206	-0.29515076	3.9672852E-4	0.0014801025	-0.0033569336	
1465363003548615	0.21348572	0.5347595	-0.3526764	3.9672852E-4	0.0014801025	-0.0033569336	
1465363013527863	0.46168518	0.513443	-0.41020203	3.9672852E-4	0.0014801025	-0.0033569336	
1465363023537629	0.6630249	0.5347595	-0.43470764	3.9672852E-4	0.0014801025	-0.0033569336	
1465363033516877	0.7983093	0.5922699	-0.39848328	3.9672852E-4	0.0014801025	-0.0033569336	
1465363053536408	0.9091034	0.77124023	-0.24401855	3.9672852E-4	0.0014801025	-0.0033569336	
1465363053536408	0.9091034	0.77124023	-0.24401855	3.9672852E-4	0.0014801025	-0.0033569336	
1465363063546174	0.84625244	0.8202362	-0.15879822	3.9672852E-4	0.0014801025	-0.0033569336	
1465363073525422	0.6875305	0.85006714	-0.10020447	3.9672852E-4	0.0014801025	-0.0033569336	
1465363083504670	0.4542389	0.8436737	-0.08743286	3.9672852E-4	0.0014801025	-0.0033569336	
1465363103493684	-0.09011841	0.51771545	-0.18009949	3.9672852E-4	0.0014801025	-0.0033569336	
1465363103493684	-0.09011841	0.51771545	-0.18009949	3.9672852E-4	0.0014801025	-0.0033569336	
1465363113503449	-0.40756226	0.3184967	-0.25680542	3.9672852E-4	0.0014801025	-0.0033569336	
1465363123482697	-0.7399292	0.18321228	-0.3111267	3.9672852E-4	0.0014801025	-0.0033569336	
1465363133492463	-1.0456543	0.07987976	-0.31965637	3.9672852E-4	0.0014801025	-0.0033569336	
1465363143502229	-1.3183746	-0.011734009	-0.28982544	3.9672852E-4	0.0014801025	-0.0033569336	
1465363153511994	-1.5569916	-0.059661865	-0.23762512	3.9672852E-4	0.0014801025	-0.0033569336	
1465363163491242	-1.7444763	-0.040496826	-0.16305542	3.9672852E-4	0.0014801025	-0.0033569336	
1465363173501008	-1.8616486	-0.004272461	-0.098083496	3.9672852E-4	0.0014801025	-0.0033569336	
1465363183480256	-1.8925476	-0.024505615	-0.072509766	3.9672852E-4	0.0014801025	-0.0033569336	
1465363203499787	-1.6805573	-0.30467224	-0.07997131	3.9672852E-4	0.0014801025	-0.0033569336	
1465363203499787	-1.6805573	-0.30467224	-0.07997131	3.9672852E-4	0.0014801025	-0.0033569336	
1465363213509553	-1.4632416	-0.60827637	-0.06932068	3.9672852E-4	0.0014801025	-0.0033569336	
1465363223488801	-1.2192993	-0.970459	-0.07678223	3.9672852E-4	0.0014801025	-0.0033569336	
1465363233498566	-0.991333	-1.2836609	-0.12471008	3.9672852E-4	0.0014801025	-0.0033569336	
1465363243508332	-0.817688	-1.4775391	-0.19927979	3.9672852E-4	0.0014801025	-0.0033569336	
1465363253487580	-0.69944763	-1.5350494	-0.26213074	3.9672852E-4	0.0014801025	-0.0033569336	
1465363263466828	-0.6238098	-1.4594269	-0.30793762	3.9672852E-4	0.0014801025	-0.0033569336	
1465363273476594	-0.5780029	-1.270874	-0.34309387	3.9672852E-4	0.0014801025	-0.0033569336	
1465363283455842	-0.5396576	-1.0365143	-0.35160828	3.9672852E-4	0.0014801025	-0.0033569336	
1465363303444855	-0.3915863	-0.6402283	-0.21846008	3.9672852E-4	0.0014801025	-0.0033569336	
1465363303444855	-0.3915863	-0.6402283	-0.21846008	3.9672852E-4	0.0014801025	-0.0033569336	
1465363313454621	-0.2296753	-0.4655304	-0.07357788	3.9672852E-4	0.0014801025	-0.0033569336	
1465363323464387	0.0046844482	-0.35261536	0.10751343	3.9672852E-4	0.0014801025	-0.0033569336	
1465363333443635	0.2667389	-0.33343506	0.29074097	3.9672852E-4	0.0014801025	-0.0033569336	
1465363343453400	0.48832703	-0.33876038	0.4452057	3.9672852E-4	0.0014801025	-0.0033569336	
1465363353463166	0.61828613	-0.3440857	0.5496063	3.9672852E-4	0.0014801025	-0.0033569336	
1465363363442414	0.6672821	-0.35047913	0.58262634	3.9672852E-4	0.0014801025	-0.0033569336	
1465363373421662	0.664093	-0.41226196	0.53256226	3.9672852E-4	0.0014801025	-0.0033569336	
1465363383431428	0.6204071	-0.57525635	0.42070007	3.9672852E-4	0.0014801025	-0.0033569336	
1465363393441193	0.5596924	-0.7904358	0.28755188	3.9672852E-4	0.0014801025	-0.0033569336	
1465363403420441	0.50216675	-1.0056152	0.16184998	3.9672852E-4	0.0014801025	-0.0033569336	
1465363413430207	0.4542389	-1.2218628	0.06703186	3.9672852E-4	0.0014801025	-0.0033569336	
1465363423439973	0.3977661	-1.4562225	0.007385254	3.9672852E-4	0.0014801025	-0.0033569336	
1465363433449738	0.31254578	-1.6234741	-0.033096313	3.9672852E-4	0.0014801025	-0.0033569336	
1465363443428986	0.21455383	-1.6735382	-0.06506348	3.9672852E-4	0.0014801025	-0.0033569336	
1465363453438752	0.12080383	-1.5499725	-0.09487915	3.9672852E-4	0.0014801025	-0.0033569336	
1465363463418000	0.05155945	-1.2655487	-0.12364197	3.9672852E-4	0.0014801025	-0.0033569336	
1465363473427766	0.018539429	-0.9150696	-0.13963318	3.9672852E-4	0.0014801025	-0.0033569336	
1465363483407014	0.0025634766	-0.5486145	-0.12471008	3.9672852E-4	0.0014801025	-0.0033569336	
1465363503426545	0.038772583	0.18109131	0.038269043	3.9672852E-4	0.0014801025	-0.0033569336	
1465363503426545	0.038772583	0.18109131	0.038269043	3.9672852E-4	0.0014801025	-0.0033569336	
1465363513405793	0.10057068	0.47616577	0.17036438	3.9672852E-4	0.0014801025	-0.0033569336	
1465363523415559	0.17512512	0.6806946	0.3013916	3.9672852E-4	0.0014801025	-0.0033569336	
1465363533425324	0.2720642	0.7872162	0.41218567	3.9672852E-4	0.0014801025	-0.0033569336	
1465363553414338	0.49684143	0.65512085	0.56877136	3.9672852E-4	0.0014801025	-0.0033569336	
1465363553414338	0.49684143	0.65512085	0.56877136	3.9672852E-4	0.0014801025	-0.0033569336	
1465363563393586	0.55223083	0.4346161	0.5975342	3.9672852E-4	0.0014801025	-0.0033569336	
1465363573403352	0.51708984	0.17575073	0.5485382	3.9672852E-4	0.0014801025	-0.0033569336	
1465363583382600	0.37753296	-0.06072998	0.43029785	3.9672852E-4	0.0014801025	-0.0033569336	
1465363593392365	0.1847229	-0.24821472	0.276886	3.9672852E-4	0.0014801025	-0.0033569336	
1465363603402131	0.0036315918	-0.42718506	0.12988281	3.9672852E-4	0.0014801025	-0.0033569336	
1465363613381379	-0.14657593	-0.5923004	0.016967773	3.9672852E-4	0.0014801025	-0.0033569336	
1465363623391145	-0.25309753	-0.64875793	-0.060791016	3.9672852E-4	0.0014801025	-0.0033569336	
1465363633370393	-0.30636597	-0.5624695	-0.11512756	3.9672852E-4	0.0014801025	-0.0033569336	
1465363643380158	-0.30743408	-0.35794067	-0.12258911	3.9672852E-4	0.0014801025	-0.0033569336	
1465363653389924	-0.25309753	-0.16513062	-0.084228516	3.9672852E-4	0.0014801025	-0.0033569336	
1465363663369172	-0.15403748	-0.061798096	-0.021377563	3.9672852E-4	0.0014801025	-0.0033569336	
1465363673378938	-0.06135559	-0.036224365	0.048919678	3.9672852E-4	0.0014801025	-0.0033569336	
1465363693367951	-0.15190125	-0.03942871	0.13627625	3.9672852E-4	0.0014801025	-0.0033569336	
1465363693367951	-0.15190125	-0.03942871	0.13627625	3.9672852E-4	0.0014801025	-0.0033569336	
1465363703377717	-0.35536194	0.025558472	0.12988281	3.9672852E-4	0.0014801025	-0.0033569336	
1465363723336213	-0.73246765	0.2354126	0.0020599365	3.9672852E-4	0.0014801025	-0.0033569336	
1465363723336213	-0.73246765	0.2354126	0.0020599365	3.9672852E-4	0.0014801025	-0.0033569336	
1465363733345979	-0.7452545	0.31211853	-0.09701538	3.9672852E-4	0.0014801025	-0.0033569336	
1465363753334992	-0.33406067	0.15977478	-0.29515076	3.9672852E-4	0.0014801025	-0.0033569336	
1465363753334992	-0.33406067	0.15977478	-0.29515076	3.9672852E-4	0.0014801025	-0.0033569336	
1465363763314240	-0.018753052	-0.059661865	-0.39102173	3.9672852E-4	0.0014801025	-0.0033569336	
1465363773324006	0.2667389	-0.28018188	-0.48796082	3.9672852E-4	0.0014801025	-0.0033569336	
1465363783333771	0.47660828	-0.42718506	-0.5721283	3.9672852E-4	0.0014801025	-0.0033569336	
1465363803322785	0.62680054	-0.43037415	-0.7106018	3.9672852E-4	0.0014801025	-0.0033569336	
1465363803322785	0.62680054	-0.43037415	-0.7106018	3.9672852E-4	0.0014801025	-0.0033569336	
1465363813332551	0.5937805	-0.3366394	-0.7745209	3.9672852E-4	0.0014801025	-0.0033569336	
1465363833321564	0.41055298	-0.08630371	-0.88638306	3.9672852E-4	0.0014801025	-0.0033569336	
1465363833321564	0.41055298	-0.08630371	-0.88638306	3.9672852E-4	0.0014801025	-0.0033569336	
1465363843331330	0.29977417	0.04046631	-0.9151459	3.9672852E-4	0.0014801025	-0.0033569336	
1465363853310578	0.20283508	0.15977478	-0.91619873	3.9672852E-4	0.0014801025	-0.0033569336	
1465363863320344	0.13038635	0.2119751	-0.9257965	3.9672852E-4	0.0014801025	-0.0033569336	
1465363873330109	0.089904785	0.22901917	-0.9556122	3.9672852E-4	0.0014801025	-0.0033569336	
1465363883309357	0.094177246	0.25245667	-0.9854431	3.9672852E-4	0.0014801025	-0.0033569336	
1465363893319123	0.14637756	0.2599182	-1.0003662	3.9672852E-4	0.0014801025	-0.0033569336	
1465363903298371	0.24118042	0.2354126	-1.015274	3.9672852E-4	0.0014801025	-0.0033569336	
1465363913308137	0.3690033	0.19067383	-1.0323181	3.9672852E-4	0.0014801025	-0.0033569336	
1465363923317902	0.5128174	0.12461853	-1.029129	3.9672852E-4	0.0014801025	-0.0033569336	
1465363933297150	0.6449127	0.027679443	-0.99716187	3.9672852E-4	0.0014801025	-0.0033569336	
1465363943306916	0.7141571	-0.06391907	-0.9311218	3.9672852E-4	0.0014801025	-0.0033569336	
1465363963295930	0.5692749	-0.094818115	-0.74256897	3.9672852E-4	0.0014801025	-0.0033569336	
1465363963295930	0.5692749	-0.094818115	-0.74256897	3.9672852E-4	0.0014801025	-0.0033569336	
1465363973305695	0.42652893	-0.08630371	-0.6509552	3.9672852E-4	0.0014801025	-0.0033569336	
1465363983284943	0.30082703	-0.07563782	-0.57318115	3.9672852E-4	0.0014801025	-0.0033569336	
1465363993294709	0.26461792	-0.12251282	-0.519928	3.9672852E-4	0.0014801025	-0.0033569336	
1465364003304475	0.38179016	-0.316391	-0.48690796	3.9672852E-4	0.0014801025	-0.0033569336	
1465364013283723	0.59484863	-0.5187988	-0.5305786	3.9672852E-4	0.0014801025	-0.0033569336	
1465364023262971	0.7983093	-0.5635376	-0.66267395	3.9672852E-4	0.0014801025	-0.0033569336	
1465364033272736	0.9144287	-0.52519226	-0.822464	3.9672852E-4	0.0014801025	-0.0033569336	
1465364043282502	0.9229431	-0.45167542	-0.94389343	3.9672852E-4	0.0014801025	-0.0033569336	
1465364053261750	0.85050964	-0.3408966	-0.97798157	3.9672852E-4	0.0014801025	-0.0033569336	
1465364063271516	0.73439026	-0.3174591	-0.902359	3.9672852E-4	0.0014801025	-0.0033569336	
1465364073281281	0.5980377	-0.3408966	-0.7766571	3.9672852E-4	0.0014801025	-0.0033569336	
1465364093270295	0.36688232	-0.1129303	-0.64030457	3.9672852E-4	0.0014801025	-0.0033569336	
1465364093270295	0.36688232	-0.1129303	-0.64030457	3.9672852E-4	0.0014801025	-0.0033569336	
1465364103280061	0.3104248	-0.017059326	-0.5987549	3.9672852E-4	0.0014801025	-0.0033569336	
1465364113259309	0.28059387	0.011703491	-0.54548645	3.9672852E-4	0.0014801025	-0.0033569336	
1465364123238557	0.24224854	-0.009597778	-0.46879578	3.9672852E-4	0.0014801025	-0.0033569336	
1465364143258088	-0.0059661865	-0.23970032	-0.32284546	3.9672852E-4	0.0014801025	-0.0033569336	
1465364143258088	-0.0059661865	-0.23970032	-0.32284546	3.9672852E-4	0.0014801025	-0.0033569336	
1465364153267854	-0.24565125	-0.2844391	-0.26106262	3.9672852E-4	0.0014801025	-0.0033569336	
1465364163247102	-0.4895935	-0.2471466	-0.20141602	3.9672852E-4	0.0014801025	-0.0033569336	
1465364173226350	-0.6706848	-0.18429565	-0.105545044	3.9672852E-4	0.0014801025	-0.0033569336	
1465364193245881	-0.8613739	-0.33450317	0.18954468	3.9672852E-4	0.0014801025	-0.0033569336	
1465364193245881	-0.8613739	-0.33450317	0.18954468	3.9672852E-4	0.0014801025	-0.0033569336	
1465364203225129	-0.9061127	-0.36540222	0.31204224	3.9672852E-4	0.0014801025	-0.0033569336	
1465364213234895	-0.94766235	-0.35473633	0.38128662	3.9672852E-4	0.0014801025	-0.0033569336	
1465364223244660	-1.040329	-0.3398285	0.40153503	3.9672852E-4	0.0014801025	-0.0033569336	
1465364243233674	-1.3354187	-0.33769226	0.39086914	3.9672852E-4	0.0014801025	-0.0033569336	
1465364243233674	-1.3354187	-0.33769226	0.39086914	3.9672852E-4	0.0014801025	-0.0033569336	
1465364253212922	-1.4824219	-0.35047913	0.39619446	3.9672852E-4	0.0014801025	-0.0033569336	
1465364263222688	-1.6475372	-0.28018188	0.4270935	3.9672852E-4	0.0014801025	-0.0033569336	
1465364273232453	-1.8296967	-0.12890625	0.51338196	3.9672852E-4	0.0014801025	-0.0033569336	
1465364283211701	-1.9372864	-0.043685913	0.66252136	3.9672852E-4	0.0014801025	-0.0033569336	
1465364293190949	-1.9660492	-0.06819153	0.8787689	3.9672852E-4	0.0014801025	-0.0033569336	
1465364303200715	-1.9234314	-0.20561218	1.1131287	3.9672852E-4	0.0014801025	-0.0033569336	
1465364313210480	-1.8158417	-0.4974823	1.2654572	3.9672852E-4	0.0014801025	-0.0033569336	
1465364323220246	-1.6624451	-0.9662018	1.2622681	3.9672852E-4	0.0014801025	-0.0033569336	
1465364343178742	-1.4142456	-1.6000366	0.81166077	3.9672852E-4	0.0014801025	-0.0033569336	
1465364343178742	-1.4142456	-1.6000366	0.81166077	3.9672852E-4	0.0014801025	-0.0033569336	
1465364353188508	-1.3204956	-1.603241	0.5101929	3.9672852E-4	0.0014801025	-0.0033569336	
1465364363198273	-1.1852112	-1.4700775	0.25772095	3.9672852E-4	0.0014801025	-0.0033569336	
1465364373177521	-0.991333	-1.2197418	0.03614807	3.9672852E-4	0.0014801025	-0.0033569336	
1465364383187287	-0.75164795	-0.9076233	-0.16093445	3.9672852E-4	0.0014801025	-0.0033569336	
1465364393197053	-0.49917603	-0.5582123	-0.31433105	3.9672852E-4	0.0014801025	-0.0033569336	
1465364403176301	-0.2424469	-0.12890625	-0.41233826	3.9672852E-4	0.0014801025	-0.0033569336	
1465364413155549	0.035583496	0.2822876	-0.44003296	3.9672852E-4	0.0014801025	-0.0033569336	
1465364423165314	0.28910828	0.5155792	-0.4283142	3.9672852E-4	0.0014801025	-0.0033569336	
1465364443184846	0.5831299	0.8447418	-0.3718567	3.9672852E-4	0.0014801025	-0.0033569336	
1465364443184846	0.5831299	0.8447418	-0.3718567	3.9672852E-4	0.0014801025	-0.0033569336	
1465364453164094	0.6353302	0.89907837	-0.32391357	3.9672852E-4	0.0014801025	-0.0033569336	
1465364463173859	0.6395874	0.8309021	-0.29196167	3.9672852E-4	0.0014801025	-0.0033569336	
1465364473183625	0.60124207	0.6902771	-0.250412	3.9672852E-4	0.0014801025	-0.0033569336	
1465364483162873	0.52560425	0.5230408	-0.20248413	3.9672852E-4	0.0014801025	-0.0033569336	
1465364493172639	0.42015076	0.3184967	-0.15560913	3.9672852E-4	0.0014801025	-0.0033569336	
1465364503151887	0.30189514	0.10652161	-0.13749695	3.9672852E-4	0.0014801025	-0.0033569336	
1465364513161652	0.17512512	-0.05647278	-0.15879822	3.9672852E-4	0.0014801025	-0.0033569336	
1465364523171418	0.038772583	-0.18962097	-0.19927979	3.9672852E-4	0.0014801025	-0.0033569336	
1465364543160432	-0.22433472	-0.38456726	-0.2738495	3.9672852E-4	0.0014801025	-0.0033569336	
1465364543160432	-0.22433472	-0.38456726	-0.2738495	3.9672852E-4	0.0014801025	-0.0033569336	
1465364553139680	-0.32341003	-0.3867035	-0.27703857	3.9672852E-4	0.0014801025	-0.0033569336	
1465364563149445	-0.372406	-0.3217163	-0.26213074	3.9672852E-4	0.0014801025	-0.0033569336	
1465364573159211	-0.37986755	-0.20347595	-0.22164917	3.9672852E-4	0.0014801025	-0.0033569336	
1465364593117707	-0.34152222	0.003189087	-0.03416443	3.9672852E-4	0.0014801025	-0.0033569336	
1465364593117707	-0.34152222	0.003189087	-0.03416443	3.9672852E-4	0.0014801025	-0.0033569336	
1465364603127473	-0.3095703	0.09159851	0.079818726	3.9672852E-4	0.0014801025	-0.0033569336	
1465364613137238	-0.27120972	0.09692383	0.15652466	3.9672852E-4	0.0014801025	-0.0033569336	
1465364623116486	-0.29252625	-0.07563782	0.15757751	3.9672852E-4	0.0014801025	-0.0033569336	
1465364643105500	-0.6919861	-0.6093445	0.035079956	3.9672852E-4	0.0014801025	-0.0033569336	
1465364643105500	-0.6919861	-0.6093445	0.035079956	3.9672852E-4	0.0014801025	-0.0033569336	
1465364653115266	-0.9412689	-0.6370392	0.028686523	3.9672852E-4	0.0014801025	-0.0033569336	
1465364663125031	-1.1223602	-0.50068665	0.093673706	3.9672852E-4	0.0014801025	-0.0033569336	
1465364673134797	-1.183075	-0.2151947	0.22575378	3.9672852E-4	0.0014801025	-0.0033569336	
1465364683114045	-1.1479187	0.061767578	0.35891724	3.9672852E-4	0.0014801025	-0.0033569336	
1465364693123811	-1.0733643	0.113967896	0.45799255	3.9672852E-4	0.0014801025	-0.0033569336	
1465364703103059	-0.9721527	-0.034103394	0.46757507	3.9672852E-4	0.0014801025	-0.0033569336	
1465364713082307	-0.8752136	-0.30255127	0.36210632	3.9672852E-4	0.0014801025	-0.0033569336	
1465364723092072	-0.8006439	-0.23330688	0.20765686	3.9672852E-4	0.0014801025	-0.0033569336	
1465364733101838	-0.68666077	-0.20773315	0.04573059	3.9672852E-4	0.0014801025	-0.0033569336	
1465364753090852	-0.515152	-0.55075073	-0.22590637	3.9672852E-4	0.0014801025	-0.0033569336	
1465364753090852	-0.515152	-0.55075073	-0.22590637	3.9672852E-4	0.0014801025	-0.0033569336	
1465364763100617	-0.48213196	-0.63597107	-0.33351135	3.9672852E-4	0.0014801025	-0.0033569336	
1465364773110383	-0.4895935	-0.7680664	-0.39741516	3.9672852E-4	0.0014801025	-0.0033569336	
1465364783120148	-0.52793884	-0.91400146	-0.41127014	3.9672852E-4	0.0014801025	-0.0033569336	
1465364793099396	-0.5918579	-0.9449005	-0.39741516	3.9672852E-4	0.0014801025	-0.0033569336	
1465364803078645	-0.69944763	-0.8692627	-0.38250732	3.9672852E-4	0.0014801025	-0.0033569336	
1465364813088410	-0.815567	-0.7957611	-0.3675995	3.9672852E-4	0.0014801025	-0.0033569336	
1465364823067658	-0.92529297	-0.698822	-0.3526764	3.9672852E-4	0.0014801025	-0.0033569336	
1465364843056672	-1.0371399	-0.4239807	-0.28770447	3.9672852E-4	0.0014801025	-0.0033569336	
1465364843056672	-1.0371399	-0.4239807	-0.28770447	3.9672852E-4	0.0014801025	-0.0033569336	
1465364853066438	-0.9497833	-0.30680847	-0.2706604	3.9672852E-4	0.0014801025	-0.0033569336	
1465364863076203	-0.74632263	-0.2237091	-0.2823639	3.9672852E-4	0.0014801025	-0.0033569336	
1465364873055451	-0.45230103	-0.15341187	-0.31007385	3.9672852E-4	0.0014801025	-0.0033569336	
1465364883065217	-0.08692932	-0.10121155	-0.34521484	3.9672852E-4	0.0014801025	-0.0033569336	
1465364893044465	0.3136139	-0.09162903	-0.38357544	3.9672852E-4	0.0014801025	-0.0033569336	
1465364903054230	0.70562744	-0.07244873	-0.42085266	3.9672852E-4	0.0014801025	-0.0033569336	
1465364913063996	1.0326691	-0.028778076	-0.4474945	3.9672852E-4	0.0014801025	-0.0033569336	
1465364923043244	1.2659607	0.013839722	-0.46240234	3.9672852E-4	0.0014801025	-0.0033569336	
1465364943032258	1.4001923	0.21836853	-0.46240234	3.9672852E-4	0.0014801025	-0.0033569336	
1465364943032258	1.4001923	0.21836853	-0.46240234	3.9672852E-4	0.0014801025	-0.0033569336	
1465364963051789	1.2510529	0.4111786	-0.36972046	3.9672852E-4	0.0014801025	-0.0033569336	
1465364963051789	1.2510529	0.4111786	-0.36972046	3.9672852E-4	0.0014801025	-0.0033569336	
1465364973031037	1.1455841	0.47296143	-0.29196167	3.9672852E-4	0.0014801025	-0.0033569336	
1465364983040803	1.0326691	0.51771545	-0.19181824	3.9672852E-4	0.0014801025	-0.0033569336	
1465364993050568	0.9272156	0.49746704	-0.07144165	3.9672852E-4	0.0014801025	-0.0033569336	
1465365003060334	0.87927246	0.34513855	0.05531311	3.9672852E-4	0.0014801025	-0.0033569336	
1465365013039582	0.92189026	0.10545349	0.1714325	3.9672852E-4	0.0014801025	-0.0033569336	
1465365023018830	1.02948	-0.046875	0.25878906	3.9672852E-4	0.0014801025	-0.0033569336	
1465365033028596	1.1381378	-0.019180298	0.29606628	3.9672852E-4	0.0014801025	-0.0033569336	
1465365043007844	1.2105713	0.053253174	0.27902222	3.9672852E-4	0.0014801025	-0.0033569336	
1465365052987092	1.2393341	0.055389404	0.23002625	3.9672852E-4	0.0014801025	-0.0033569336	
1465365073006623	1.18927	-0.020248413	0.18315125	3.9672852E-4	0.0014801025	-0.0033569336	
1465365073006623	1.18927	-0.020248413	0.18315125	3.9672852E-4	0.0014801025	-0.0033569336	
1465365083016389	1.1157684	-0.03517151	0.22149658	3.9672852E-4	0.0014801025	-0.0033569336	
1465365092995637	1.0177612	-0.038360596	0.3013916	3.9672852E-4	0.0014801025	-0.0033569336	
1465365103005402	0.8941803	-0.009597778	0.40579224	3.9672852E-4	0.0014801025	-0.0033569336	
1465365112984650	0.73439026	0.11824036	0.49952698	3.9672852E-4	0.0014801025	-0.0033569336	
1465365122994416	0.55010986	0.23434448	0.5538635	3.9672852E-4	0.0014801025	-0.0033569336	
1465365133004182	0.3690033	0.24073792	0.5698395	3.9672852E-4	0.0014801025	-0.0033569336	
1465365142983430	0.21560669	0.18746948	0.546402	3.9672852E-4	0.0014801025	-0.0033569336	
1465365152993195	0.09736633	0.1299591	0.49420166	3.9672852E-4	0.0014801025	-0.0033569336	
1465365162972443	0.014282227	0.08627319	0.43241882	3.9672852E-4	0.0014801025	-0.0033569336	
1465365172982209	-0.04324341	0.06604004	0.38449097	3.9672852E-4	0.0014801025	-0.0033569336	
1465365182991975	-0.09225464	0.102249146	0.37809753	3.9672852E-4	0.0014801025	-0.0033569336	
1465365192971223	-0.13806152	0.1800232	0.41218567	3.9672852E-4	0.0014801025	-0.0033569336	
1465365202980988	-0.17747498	0.24713135	0.4697113	3.9672852E-4	0.0014801025	-0.0033569336	
1465365212990754	-0.20942688	0.27268982	0.5144501	3.9672852E-4	0.0014801025	-0.0033569336	
1465365222970002	-0.25842285	0.22050476	0.51657104	3.9672852E-4	0.0014801025	-0.0033569336	
1465365232979768	-0.3319397	0.07348633	0.4824829	3.9672852E-4	0.0014801025	-0.0033569336	
1465365242959016	-0.4342041	-0.1598053	0.42390442	3.9672852E-4	0.0014801025	-0.0033569336	
1465365252968781	-0.546051	-0.49961853	0.35998535	3.9672852E-4	0.0014801025	-0.0033569336	
1465365262978547	-0.65896606	-0.82984924	0.26837158	3.9672852E-4	0.0014801025	-0.0033569336	
1465365272957795	-0.7367401	-0.8895111	0.18101501	3.9672852E-4	0.0014801025	-0.0033569336	
1465365282967561	-0.74739075	-0.77552795	0.16610718	3.9672852E-4	0.0014801025	-0.0033569336	
1465365292946809	-0.6951904	-0.6466217	0.25239563	3.9672852E-4	0.0014801025	-0.0033569336	
1465365302956574	-0.6195526	-0.54756165	0.42070007	3.9672852E-4	0.0014801025	-0.0033569336	
1465365312966340	-0.5385895	-0.49215698	0.6273651	3.9672852E-4	0.0014801025	-0.0033569336	
1465365322945588	-0.47573853	-0.4378357	0.8073883	3.9672852E-4	0.0014801025	-0.0033569336	
1465365332955354	-0.44911194	-0.349411	0.91604614	3.9672852E-4	0.0014801025	-0.0033569336	
1465365342934602	-0.4618988	-0.21412659	0.9575958	3.9672852E-4	0.0014801025	-0.0033569336	
1465365352944367	-0.49917603	-0.06925964	0.9575958	3.9672852E-4	0.0014801025	-0.0033569336	
1465365362954133	-0.55244446	0.06071472	0.9458771	3.9672852E-4	0.0014801025	-0.0033569336	
1465365372963898	-0.59931946	0.15019226	0.9512024	3.9672852E-4	0.0014801025	-0.0033569336	
1465365382943146	-0.62594604	0.18534851	0.9810333	3.9672852E-4	0.0014801025	-0.0033569336	
1465365402932160	-0.5652313	-0.022384644	1.0044708	3.9672852E-4	0.0014801025	-0.0033569336	
1465365402932160	-0.5652313	-0.022384644	1.0044708	3.9672852E-4	0.0014801025	-0.0033569336	
1465365412941926	-0.48745728	-0.15766907	0.9245758	3.9672852E-4	0.0014801025	-0.0033569336	
1465365422951691	-0.3830719	-0.20880127	0.8073883	3.9672852E-4	0.0014801025	-0.0033569336	
1465365432930939	-0.25416565	-0.32278442	0.66571045	3.9672852E-4	0.0014801025	-0.0033569336	
1465365442940705	-0.10290527	-0.37072754	0.5144501	3.9672852E-4	0.0014801025	-0.0033569336	
1465365452919953	0.06434631	-0.35154724	0.36105347	3.9672852E-4	0.0014801025	-0.0033569336	
1465365462899201	0.25183105	-0.2929535	0.22149658	3.9672852E-4	0.0014801025	-0.0033569336	
1465365472908967	0.4542389	-0.22265625	0.11390686	3.9672852E-4	0.0014801025	-0.0033569336	
1465365482918732	0.65663147	-0.140625	0.04573059	3.9672852E-4	0.0014801025	-0.0033569336	
1465365492897980	0.84199524	-0.03517151	0.007385254	3.9672852E-4	0.0014801025	-0.0033569336	
1465365502907746	0.9879303	0.10757446	-0.020309448	3.9672852E-4	0.0014801025	-0.0033569336	
1465365512917512	1.0752869	0.29612732	-0.04269409	3.9672852E-4	0.0014801025	-0.0033569336	
1465365522896760	1.1040497	0.51771545	-0.058670044	3.9672852E-4	0.0014801025	-0.0033569336	
1465365532876008	1.1072388	0.7041321	-0.07357788	3.9672852E-4	0.0014801025	-0.0033569336	
1465365542885773	1.0976562	0.81918335	-0.06718445	3.9672852E-4	0.0014801025	-0.0033569336	
1465365552895539	1.0731506	0.8671112	-0.023513794	3.9672852E-4	0.0014801025	-0.0033569336	
1465365562874787	1.031601	0.84580994	0.052124023	3.9672852E-4	0.0014801025	-0.0033569336	
1465365582863801	0.9410553	0.5379486	0.23535156	3.9672852E-4	0.0014801025	-0.0033569336	
1465365582863801	0.9410553	0.5379486	0.23535156	3.9672852E-4	0.0014801025	-0.0033569336	
1465365592873566	0.9048462	0.3419342	0.30885315	3.9672852E-4	0.0014801025	-0.0033569336	
1465365602883332	0.87713623	0.14273071	0.38128662	3.9672852E-4	0.0014801025	-0.0033569336	
1465365612862580	0.85476685	-0.046875	0.45692444	3.9672852E-4	0.0014801025	-0.0033569336	
1465365622872346	0.839859	-0.19389343	0.5187073	3.9672852E-4	0.0014801025	-0.0033569336	
1465365632882111	0.8334656	-0.29615784	0.59114075	3.9672852E-4	0.0014801025	-0.0033569336	
1465365642861359	0.82388306	-0.363266	0.70407104	3.9672852E-4	0.0014801025	-0.0033569336	
1465365662850373	0.7194824	-0.49215698	1.0438843	3.9672852E-4	0.0014801025	-0.0033569336	
1465365662850373	0.7194824	-0.49215698	1.0438843	3.9672852E-4	0.0014801025	-0.0033569336	
1465365672860139	0.61935425	-0.7403717	1.2462769	3.9672852E-4	0.0014801025	-0.0033569336	
1465365682839387	0.5650177	-1.1345215	1.4177856	3.9672852E-4	0.0014801025	-0.0033569336	
1465365692849152	0.5469055	-1.1760559	1.483841	3.9672852E-4	0.0014801025	-0.0033569336	
1465365702828400	0.51174927	-0.9417114	1.4550781	3.9672852E-4	0.0014801025	-0.0033569336	
1465365762825959	-0.10290527	-1.0365143	1.0630646	3.9672852E-4	0.0014801025	-0.0033569336	
1465365762825959	-0.10290527	-1.0365143	1.0630646	3.9672852E-4	0.0014801025	-0.0033569336	
1465365762825959	-0.10290527	-1.0365143	1.0630646	3.9672852E-4	0.0014801025	-0.0033569336	
1465365762825959	-0.10290527	-1.0365143	1.0630646	3.9672852E-4	0.0014801025	-0.0033569336	
1465365762825959	-0.10290527	-1.0365143	1.0630646	3.9672852E-4	0.0014801025	-0.0033569336	
1465365762825959	-0.10290527	-1.0365143	1.0630646	3.9672852E-4	0.0014801025	-0.0033569336	
1465365782814973	-0.052841187	-1.0301208	0.96717834	3.9672852E-4	0.0014801025	-0.0033569336	
1465365782814973	-0.052841187	-1.0301208	0.96717834	3.9672852E-4	0.0014801025	-0.0033569336	
1465365792794221	0.0046844482	-0.9960327	0.9416199	3.9672852E-4	0.0014801025	-0.0033569336	
1465365802803986	0.023864746	-0.93211365	0.90859985	3.9672852E-4	0.0014801025	-0.0033569336	
1465365812813752	0.0046844482	-0.8650055	0.8553314	3.9672852E-4	0.0014801025	-0.0033569336	
1465365822793000	-0.021942139	-0.808548	0.7733002	3.9672852E-4	0.0014801025	-0.0033569336	
1465365832802766	-0.04537964	-0.78404236	0.65719604	3.9672852E-4	0.0014801025	-0.0033569336	
1465365842782014	-0.06349182	-0.7851105	0.5112457	3.9672852E-4	0.0014801025	-0.0033569336	
1465365852791779	-0.06881714	-0.7712555	0.36317444	3.9672852E-4	0.0014801025	-0.0033569336	
1465365862771027	-0.05496216	-0.69563293	0.23960876	3.9672852E-4	0.0014801025	-0.0033569336	
1465365872780793	-0.017684937	-0.5582123	0.1671753	3.9672852E-4	0.0014801025	-0.0033569336	
1465365882790559	0.05795288	-0.39309692	0.14585876	3.9672852E-4	0.0014801025	-0.0033569336	
1465365892769807	0.15914917	-0.22798157	0.1522522	3.9672852E-4	0.0014801025	-0.0033569336	
1465365902779572	0.23692322	-0.047943115	0.1671753	3.9672852E-4	0.0014801025	-0.0033569336	
1465365912789338	0.24650574	0.21517944	0.16822815	3.9672852E-4	0.0014801025	-0.0033569336	
1465365922768586	0.16447449	0.43675232	0.15118408	3.9672852E-4	0.0014801025	-0.0033569336	
1465365932778352	0.04197693	0.49960327	0.12669373	3.9672852E-4	0.0014801025	-0.0033569336	
1465365942757600	-0.062423706	0.62423706	0.09260559	3.9672852E-4	0.0014801025	-0.0033569336	
1465365952767365	-0.09864807	0.7893524	0.054244995	3.9672852E-4	0.0014801025	-0.0033569336	
1465365962746613	-0.08053589	0.87564087	0.028686523	3.9672852E-4	0.0014801025	-0.0033569336	
1465365982766145	0.03239441	0.5283661	0.012710571	3.9672852E-4	0.0014801025	-0.0033569336	
1465365982766145	0.03239441	0.5283661	0.012710571	3.9672852E-4	0.0014801025	-0.0033569336	
1465365992745393	0.13891602	0.21836853	-0.018188477	3.9672852E-4	0.0014801025	-0.0033569336	
1465366012764924	0.36795044	-0.14701843	-0.13642883	3.9672852E-4	0.0014801025	-0.0033569336	
1465366012764924	0.36795044	-0.14701843	-0.13642883	3.9672852E-4	0.0014801025	-0.0033569336	
1465366022744172	0.44570923	-0.13529968	-0.18437195	3.9672852E-4	0.0014801025	-0.0033569336	
1465366042763703	0.5096283	0.30252075	-0.26426697	3.9672852E-4	0.0014801025	-0.0033569336	
1465366042763703	0.5096283	0.30252075	-0.26426697	3.9672852E-4	0.0014801025	-0.0033569336	
1465366052773469	0.5000305	0.70092773	-0.3068695	3.9672852E-4	0.0014801025	-0.0033569336	
1465366062752717	0.47554016	1.0759125	-0.31858826	3.9672852E-4	0.0014801025	-0.0033569336	
1465366072762482	0.4403839	1.4231873	-0.27703857	3.9672852E-4	0.0014801025	-0.0033569336	
1465366092751496	0.23265076	1.7970886	-0.1257782	3.9672852E-4	0.0014801025	-0.0033569336	
1465366092751496	0.23265076	1.7970886	-0.1257782	3.9672852E-4	0.0014801025	-0.0033569336	
1465366102761262	0.070739746	1.390152	-0.10447693	3.9672852E-4	0.0014801025	-0.0033569336	
1465366112771027	-0.10183716	1.2346344	-0.19076538	3.9672852E-4	0.0014801025	-0.0033569336	
1465366122750275	-0.2147522	0.9320984	-0.3260498	3.9672852E-4	0.0014801025	-0.0033569336	
1465366132729523	-0.27973938	0.69241333	-0.41233826	3.9672852E-4	0.0014801025	-0.0033569336	
1465366142739289	-0.29571533	0.5507355	-0.44429016	3.9672852E-4	0.0014801025	-0.0033569336	
1465366152749055	-0.26908875	0.44207764	-0.44322205	3.9672852E-4	0.0014801025	-0.0033569336	
1465366162728303	-0.21582031	0.42715454	-0.41233826	3.9672852E-4	0.0014801025	-0.0033569336	
1465366172738068	-0.17001343	0.4900055	-0.3484192	3.9672852E-4	0.0014801025	-0.0033569336	
1465366182717316	-0.1401825	0.58161926	-0.250412	3.9672852E-4	0.0014801025	-0.0033569336	
1465366192727082	-0.1359253	0.67749023	-0.14175415	3.9672852E-4	0.0014801025	-0.0033569336	
1465366202706330	-0.16148376	0.7563324	-0.056533813	3.9672852E-4	0.0014801025	-0.0033569336	
1465366212716096	-0.19984436	0.79467773	-0.023513794	3.9672852E-4	0.0014801025	-0.0033569336	
1465366222725861	-0.2424469	0.81385803	-0.046951294	3.9672852E-4	0.0014801025	-0.0033569336	
1465366232705109	-0.27653503	0.8085327	-0.09701538	3.9672852E-4	0.0014801025	-0.0033569336	
1465366242714875	-0.29464722	0.7595215	-0.15133667	3.9672852E-4	0.0014801025	-0.0033569336	
1465366252694123	-0.2861328	0.6434021	-0.1960907	3.9672852E-4	0.0014801025	-0.0033569336	
1465366262703889	-0.27227783	0.5049286	-0.21739197	3.9672852E-4	0.0014801025	-0.0033569336	
1465366272713654	-0.25097656	0.37922668	-0.21099854	3.9672852E-4	0.0014801025	-0.0033569336	
1465366282692902	-0.20729065	0.31956482	-0.17477417	3.9672852E-4	0.0014801025	-0.0033569336	
1465366292702668	-0.14231873	0.39839172	-0.10020447	3.9672852E-4	0.0014801025	-0.0033569336	
1465366302712434	-0.06881714	0.6210327	0.016967773	3.9672852E-4	0.0014801025	-0.0033569336	
1465366312722199	0.02279663	0.85432434	0.15971375	3.9672852E-4	0.0014801025	-0.0033569336	
1465366322701447	0.1144104	1.0418243	0.32164	3.9672852E-4	0.0014801025	-0.0033569336	
1465366332680695	0.1570282	1.4093323	0.5336151	3.9672852E-4	0.0014801025	-0.0033569336	
1465366342690461	0.33918762	1.4444885	0.61032104	3.9672852E-4	0.0014801025	-0.0033569336	
1465366352669709	0.5341339	0.97576904	0.5251007	3.9672852E-4	0.0014801025	-0.0033569336	
1465366362679475	0.42866516	0.8255768	0.41537476	3.9672852E-4	0.0014801025	-0.0033569336	
1465366372689240	0.13252258	0.84687805	0.2822113	3.9672852E-4	0.0014801025	-0.0033569336	
1465366382668488	-0.1327362	0.8639221	0.22042847	3.9672852E-4	0.0014801025	-0.0033569336	
1465366392678254	-0.32873535	0.85220337	0.28115845	3.9672852E-4	0.0014801025	-0.0033569336	
1465366402657502	-0.44592285	0.7659149	0.38449097	3.9672852E-4	0.0014801025	-0.0033569336	
1465366412667268	-0.48638916	0.62210083	0.45799255	3.9672852E-4	0.0014801025	-0.0033569336	
1465366422677033	-0.48745728	0.49427795	0.40898132	3.9672852E-4	0.0014801025	-0.0033569336	
1465366432656281	-0.47680664	0.49427795	0.40898132	3.9672852E-4	0.0014801025	-0.0033569336	
1465366442666047	-0.4608307	0.5869446	0.3248291	3.9672852E-4	0.0014801025	-0.0033569336	
1465366452675813	-0.44059753	0.6945343	0.25665283	3.9672852E-4	0.0014801025	-0.0033569336	
1465366462655061	-0.41609192	0.72543335	0.23535156	3.9672852E-4	0.0014801025	-0.0033569336	
1465366472664826	-0.38945007	0.72543335	0.25665283	3.9672852E-4	0.0014801025	-0.0033569336	
1465366482644074	-0.34577942	0.7371521	0.29393005	3.9672852E-4	0.0014801025	-0.0033569336	
1465366492653840	-0.2616272	0.72010803	0.323761	3.9672852E-4	0.0014801025	-0.0033569336	
1465366502633088	-0.14550781	0.61891174	0.33335876	3.9672852E-4	0.0014801025	-0.0033569336	
1465366512642854	0.0036315918	0.4825592	0.31843567	3.9672852E-4	0.0014801025	-0.0033569336	
1465366522652619	0.20069885	0.33554077	0.26837158	3.9672852E-4	0.0014801025	-0.0033569336	
1465366532631867	0.42440796	0.15765381	0.20019531	3.9672852E-4	0.0014801025	-0.0033569336	
1465366542641633	0.6438446	-0.0032043457	0.13201904	3.9672852E-4	0.0014801025	-0.0033569336	
1465366552651398	0.83239746	-0.13423157	0.06916809	3.9672852E-4	0.0014801025	-0.0033569336	
1465366562661164	0.9634247	-0.20986938	0.02015686	3.9672852E-4	0.0014801025	-0.0033569336	
1465366572640412	1.0273438	-0.19708252	-0.013931274	3.9672852E-4	0.0014801025	-0.0033569336	
1465366592629426	0.97195435	-0.0021362305	-0.051208496	3.9672852E-4	0.0014801025	-0.0033569336	
1465366592629426	0.97195435	-0.0021362305	-0.051208496	3.9672852E-4	0.0014801025	-0.0033569336	
1465366602608674	0.8803406	0.090530396	-0.062927246	3.9672852E-4	0.0014801025	-0.0033569336	
1465366622628205	0.64172363	0.07987976	-0.0789032	3.9672852E-4	0.0014801025	-0.0033569336	
1465366622628205	0.64172363	0.07987976	-0.0789032	3.9672852E-4	0.0014801025	-0.0033569336	
1465366632607453	0.50749207	-0.0064086914	-0.08103943	3.9672852E-4	0.0014801025	-0.0033569336	
1465366652626984	0.2635498	-0.1960144	-0.056533813	3.9672852E-4	0.0014801025	-0.0033569336	
1465366652626984	0.2635498	-0.1960144	-0.056533813	3.9672852E-4	0.0014801025	-0.0033569336	
1465366662636750	0.18365479	-0.27272034	-0.021377563	3.9672852E-4	0.0014801025	-0.0033569336	
1465366672615998	0.13677979	-0.3408966	0.028686523	3.9672852E-4	0.0014801025	-0.0033569336	
1465366682625764	0.12612915	-0.39309692	0.08407593	3.9672852E-4	0.0014801025	-0.0033569336	
1465366692605012	0.13571167	-0.4378357	0.13414001	3.9672852E-4	0.0014801025	-0.0033569336	
1465366702614777	0.14424133	-0.4655304	0.15545654	3.9672852E-4	0.0014801025	-0.0033569336	
1465366712624543	0.14103699	-0.44955444	0.14053345	3.9672852E-4	0.0014801025	-0.0033569336	
1465366722603791	0.13252258	-0.39309692	0.11816406	3.9672852E-4	0.0014801025	-0.0033569336	
1465366732613557	0.1378479	-0.3206482	0.14160156	3.9672852E-4	0.0014801025	-0.0033569336	
1465366742592805	0.1335907	-0.24928284	0.21298218	3.9672852E-4	0.0014801025	-0.0033569336	
1465366752572053	0.101623535	-0.14701843	0.28755188	3.9672852E-4	0.0014801025	-0.0033569336	
1465366762581818	0.054763794	-0.03303528	0.33441162	3.9672852E-4	0.0014801025	-0.0033569336	
1465366772591584	0.017471313	0.06390381	0.35784912	3.9672852E-4	0.0014801025	-0.0033569336	
1465366782570832	0.0068206787	0.07775879	0.36424255	3.9672852E-4	0.0014801025	-0.0033569336	
1465366792580598	0.0036315918	0.007446289	0.33335876	3.9672852E-4	0.0014801025	-0.0033569336	
1465366802559846	0.0068206787	-0.108673096	0.2705078	3.9672852E-4	0.0014801025	-0.0033569336	
1465366812569611	0.019607544	-0.25141907	0.19699097	3.9672852E-4	0.0014801025	-0.0033569336	
1465366822548859	0.031326294	-0.37391663	0.13201904	3.9672852E-4	0.0014801025	-0.0033569336	
1465366832558625	0.026000977	-0.44529724	0.079818726	3.9672852E-4	0.0014801025	-0.0033569336	
1465366842568391	0.018539429	-0.536911	0.029754639	3.9672852E-4	0.0014801025	-0.0033569336	
1465366852578156	0.030258179	-0.67752075	-0.02458191	3.9672852E-4	0.0014801025	-0.0033569336	
1465366862587922	0.061141968	-0.8096161	-0.072509766	3.9672852E-4	0.0014801025	-0.0033569336	
1465366872567170	0.10694885	-0.8703308	-0.09701538	3.9672852E-4	0.0014801025	-0.0033569336	
1465366882546418	0.15275574	-0.855423	-0.105545044	3.9672852E-4	0.0014801025	-0.0033569336	
1465366892556184	0.1889801	-0.79896545	-0.109802246	3.9672852E-4	0.0014801025	-0.0033569336	
1465366902535432	0.19111633	-0.70414734	-0.11831665	3.9672852E-4	0.0014801025	-0.0033569336	
1465366912545197	0.13677979	-0.5454254	-0.12791443	3.9672852E-4	0.0014801025	-0.0033569336	
1465366922554963	0.027053833	-0.32598877	-0.13217163	3.9672852E-4	0.0014801025	-0.0033569336	
1465366932564729	-0.11355591	-0.08842468	-0.12045288	3.9672852E-4	0.0014801025	-0.0033569336	
1465366942543977	-0.24884033	0.11077881	-0.09701538	3.9672852E-4	0.0014801025	-0.0033569336	
1465366952553742	-0.35749817	0.25778198	-0.06825256	3.9672852E-4	0.0014801025	-0.0033569336	
1465366962532990	-0.45976257	0.39839172	-0.039489746	3.9672852E-4	0.0014801025	-0.0033569336	
1465366972512238	-0.57055664	0.5411377	-0.025650024	3.9672852E-4	0.0014801025	-0.0033569336	
1465366982522004	-0.6792145	0.6444702	-0.013931274	3.9672852E-4	0.0014801025	-0.0033569336	
1465366992531770	-0.77827454	0.6817627	0.0137786865	3.9672852E-4	0.0014801025	-0.0033569336	
1465367002541535	-0.8432617	0.6370239	0.035079956	3.9672852E-4	0.0014801025	-0.0033569336	
1465367012520783	-0.8144989	0.46551514	0.025497437	3.9672852E-4	0.0014801025	-0.0033569336	
1465367032540314	-0.4139557	-0.12783813	-0.10127258	3.9672852E-4	0.0014801025	-0.0033569336	
1465367032540314	-0.4139557	-0.12783813	-0.10127258	3.9672852E-4	0.0014801025	-0.0033569336	
1465367042519563	-0.09651184	-0.38031006	-0.19288635	3.9672852E-4	0.0014801025	-0.0033569336	
1465367052498811	0.21560669	-0.50601196	-0.2930298	3.9672852E-4	0.0014801025	-0.0033569336	
1465367062508576	0.46488953	-0.47938538	-0.39315796	3.9672852E-4	0.0014801025	-0.0033569336	
1465367072518342	0.61828613	-0.33450317	-0.48158264	3.9672852E-4	0.0014801025	-0.0033569336	
1465367082528107	0.6715393	-0.12571716	-0.5486908	3.9672852E-4	0.0014801025	-0.0033569336	
1465367092507355	0.6427765	0.111846924	-0.5902252	3.9672852E-4	0.0014801025	-0.0033569336	
1465367102517121	0.55010986	0.35153198	-0.6094055	3.9672852E-4	0.0014801025	-0.0033569336	
1465367112496369	0.4169464	0.54008484	-0.60194397	3.9672852E-4	0.0014801025	-0.0033569336	
1465367122506135	0.281662	0.6370239	-0.5795746	3.9672852E-4	0.0014801025	-0.0033569336	
1465367132485383	0.17086792	0.6359558	-0.5550842	3.9672852E-4	0.0014801025	-0.0033569336	
1465367152474396	0.080322266	0.40905762	-0.519928	3.9672852E-4	0.0014801025	-0.0033569336	
1465367152474396	0.080322266	0.40905762	-0.519928	3.9672852E-4	0.0014801025	-0.0033569336	
1465367162484162	0.11228943	0.24287415	-0.5007477	3.9672852E-4	0.0014801025	-0.0033569336	
1465367172493928	0.19111633	0.080947876	-0.4794464	3.9672852E-4	0.0014801025	-0.0033569336	
1465367182503693	0.2912445	-0.059661865	-0.46772766	3.9672852E-4	0.0014801025	-0.0033569336	
1465367192482941	0.39990234	-0.14808655	-0.47198486	3.9672852E-4	0.0014801025	-0.0033569336	
1465367202462189	0.50109863	-0.18536377	-0.49649048	3.9672852E-4	0.0014801025	-0.0033569336	
1465367212471955	0.57992554	-0.18643188	-0.5273895	3.9672852E-4	0.0014801025	-0.0033569336	
1465367222481721	0.61402893	-0.1640625	-0.5625305	3.9672852E-4	0.0014801025	-0.0033569336	
1465367232460969	0.5980377	-0.118255615	-0.59129333	3.9672852E-4	0.0014801025	-0.0033569336	
1465367252480500	0.47340393	-0.06712341	-0.51353455	3.9672852E-4	0.0014801025	-0.0033569336	
1465367252480500	0.47340393	-0.06712341	-0.51353455	3.9672852E-4	0.0014801025	-0.0033569336	
1465367262490266	0.32958984	-0.06391907	-0.41552734	3.9672852E-4	0.0014801025	-0.0033569336	
1465367282448762	-0.056030273	0.10864258	-0.23976135	3.9672852E-4	0.0014801025	-0.0033569336	
1465367282448762	-0.056030273	0.10864258	-0.23976135	3.9672852E-4	0.0014801025	-0.0033569336	
1465367302437775	-0.25630188	0.30252075	-0.13642883	3.9672852E-4	0.0014801025	-0.0033569336	
1465367302437775	-0.25630188	0.30252075	-0.13642883	3.9672852E-4	0.0014801025	-0.0033569336	
1465367312447541	-0.25204468	0.3611145	-0.12791443	3.9672852E-4	0.0014801025	-0.0033569336	
1465367332467072	-0.10397339	0.3291626	-0.19181824	3.9672852E-4	0.0014801025	-0.0033569336	
1465367332467072	-0.10397339	0.3291626	-0.19181824	3.9672852E-4	0.0014801025	-0.0033569336	
1465367342446320	0.011077881	0.21090698	-0.23762512	3.9672852E-4	0.0014801025	-0.0033569336	
1465367362435334	0.17193604	0.0010528564	-0.26106262	3.9672852E-4	0.0014801025	-0.0033569336	
1465367362435334	0.17193604	0.0010528564	-0.26106262	3.9672852E-4	0.0014801025	-0.0033569336	
1465367372414582	0.20922852	-0.07244873	-0.20248413	3.9672852E-4	0.0014801025	-0.0033569336	
1465367382424348	0.21455383	-0.140625	-0.109802246	3.9672852E-4	0.0014801025	-0.0033569336	
1465367392434113	0.16235352	-0.15127563	-0.0022125244	3.9672852E-4	0.0014801025	-0.0033569336	
1465367402443879	0.052627563	-0.07670593	0.114974976	3.9672852E-4	0.0014801025	-0.0033569336	
1465367412423127	-0.109298706	0.069229126	0.23747253	3.9672852E-4	0.0014801025	-0.0033569336	
1465367422432893	-0.29997253	0.2396698	0.3471985	3.9672852E-4	0.0014801025	-0.0033569336	
1465367442391389	-0.6611023	0.42822266	0.45159912	3.9672852E-4	0.0014801025	-0.0033569336	
1465367442391389	-0.6611023	0.42822266	0.45159912	3.9672852E-4	0.0014801025	-0.0033569336	
1465367452401154	-0.78359985	0.43354797	0.47076416	3.9672852E-4	0.0014801025	-0.0033569336	
1465367462380402	-0.85284424	0.39413452	0.5112457	3.9672852E-4	0.0014801025	-0.0033569336	
