# OpenSignals Text File Format
# {"internal sensors":{"sensor":["xAccUnc","yAccUnc","zAccUnc","xBias","yBias","zBias"],"device name":"internal sensors","column":["nSeq","xAccUnc","yAccUnc","zAccUnc","xBias","yBias","zBias"],"sync interval":2,"time":"19:01:34","comments":"","keywords":"","device connection":"UNKNOWNinternal sensors","channels":[0,1,2,3,4,5],"date":"2020-07-28","mode":0,"digital IO":[],"firmware version":0,"device":"android","position":0,"sampling rate":100,"label":["xAccUnc","yAccUnc","zAccUnc","xBias","yBias","zBias"],"resolution":[1,1,1,1,1,1],"special":[{},{},{},{},{},{}],"sleeve color":["UNKNOWN","UNKNOWN","UNKNOWN","UNKNOWN","UNKNOWN","UNKNOWN"]}}
# EndOfHeader
1465354449816399	2.0210876	6.617874	9.142883	0.0	0.0	0.0	
1465354459787888	1.5829468	6.4526825	9.116547	0.0	0.0	0.0	
1465354459787888	1.5829468	6.4526825	9.116547	0.0	0.0	0.0	
1465354469796911	1.2788849	6.055237	9.269775	0.0	0.0	0.0	
1465354479801965	0.97242737	5.4375305	9.566666	0.0	0.0	0.0	
1465354499790979	0.891037	3.680191	10.203522	0.0	0.0	0.0	
1465354519779993	1.1041107	2.6291351	11.38147	0.0	0.0	0.0	
1465354539769006	0.6899109	2.9212341	11.201904	0.0	0.0	0.0	
1465354569767786	-0.61013794	3.7759552	8.573074	0.0	0.0	0.0	
1465354589756799	-0.43296814	3.905243	7.0120544	0.0	0.0	0.0	
1465354619755579	-0.17918396	3.1750183	7.007263	0.0	0.0	0.0	
1465354649723840	-0.54548645	2.8422241	7.840439	0.0	0.0	0.0	
1465354679753137	-0.5694275	3.5939941	7.6082	0.0	0.0	0.0	
1465354709751917	0.43373108	3.9315796	6.6529236	0.0	0.0	0.0	
1465354739720178	0.2948761	4.443939	6.9497986	0.0	0.0	0.0	
1465354769718958	0.22305298	4.7527924	7.2059784	0.0	0.0	0.0	
1465354809696985	0.75216675	5.0017853	7.414276	0.0	0.0	0.0	
1465354849675012	0.9484863	5.6099243	8.541946	0.0	0.0	0.0	
1465354879673792	1.1735382	6.0025635	8.620956	0.0	0.0	0.0	
1465354909672571	1.6260529	5.858917	8.958542	0.0	0.0	0.0	
1465354959660364	1.1759338	6.1438293	9.822845	0.0	0.0	0.0	
1465354989659143	2.3299408	5.7846985	8.355194	0.0	0.0	0.0	
1465355049626184	-0.28930664	3.783142	11.953674	0.0	0.0	0.0	
1465355069645715	0.24699402	4.0177765	9.573837	0.0	0.0	0.0	
1465355079624964	0.24699402	4.0177765	9.573837	0.0	0.0	0.0	
1465355079624964	0.24699402	4.0177765	9.573837	0.0	0.0	0.0	
1465355079624964	0.24699402	4.0177765	9.573837	0.0	0.0	0.0	
1465355079624964	0.24699402	4.0177765	9.573837	0.0	0.0	0.0	
1465355079624964	0.24699402	4.0177765	9.573837	0.0	0.0	0.0	
1465355079624964	0.24699402	4.0177765	9.573837	0.0	0.0	0.0	
1465355079624964	0.24699402	4.0177765	9.573837	0.0	0.0	0.0	
1465355079624964	0.24699402	4.0177765	9.573837	0.0	0.0	0.0	
1465355079624964	0.24699402	4.0177765	9.573837	0.0	0.0	0.0	
1465355079624964	0.24699402	4.0177765	9.573837	0.0	0.0	0.0	
1465355079624964	0.24699402	4.0177765	9.573837	0.0	0.0	0.0	
1465355079624964	0.24699402	4.0177765	9.573837	0.0	0.0	0.0	
1465355079624964	0.24699402	4.0177765	9.573837	0.0	0.0	0.0	
1465355079624964	0.24699402	4.0177765	9.573837	0.0	0.0	0.0	
1465355079624964	0.24699402	4.0177765	9.573837	0.0	0.0	0.0	
1465355079624964	0.24699402	4.0177765	9.573837	0.0	0.0	0.0	
1465355079624964	0.24699402	4.0177765	9.573837	0.0	0.0	0.0	
1465355079624964	0.24699402	4.0177765	9.573837	0.0	0.0	0.0	
1465355079624964	0.24699402	4.0177765	9.573837	0.0	0.0	0.0	
1465355079624964	0.24699402	4.0177765	9.573837	0.0	0.0	0.0	
1465355079624964	0.24699402	4.0177765	9.573837	0.0	0.0	0.0	
1465355079624964	0.24699402	4.0177765	9.573837	0.0	0.0	0.0	
1465355079624964	0.24699402	4.0177765	9.573837	0.0	0.0	0.0	
1465355079624964	0.24699402	4.0177765	9.573837	0.0	0.0	0.0	
1465355079624964	0.24699402	4.0177765	9.573837	0.0	0.0	0.0	
1465355079624964	0.24699402	4.0177765	9.573837	0.0	0.0	0.0	
1465355079624964	0.24699402	4.0177765	9.573837	0.0	0.0	0.0	
1465355079624964	0.24699402	4.0177765	9.573837	0.0	0.0	0.0	
1465355079624964	0.24699402	4.0177765	9.573837	0.0	0.0	0.0	
1465355079624964	0.24699402	4.0177765	9.573837	0.0	0.0	0.0	
1465355079624964	0.24699402	4.0177765	9.573837	0.0	0.0	0.0	
1465355079624964	0.24699402	4.0177765	9.573837	0.0	0.0	0.0	
1465355079624964	0.24699402	4.0177765	9.573837	0.0	0.0	0.0	
1465355079624964	0.24699402	4.0177765	9.573837	0.0	0.0	0.0	
1465355079624964	0.24699402	4.0177765	9.573837	0.0	0.0	0.0	
1465355079624964	0.24699402	4.0177765	9.573837	0.0	0.0	0.0	
1465355079624964	0.24699402	4.0177765	9.573837	0.0	0.0	0.0	
1465355079624964	0.24699402	4.0177765	9.573837	0.0	0.0	0.0	
1465355079624964	0.24699402	4.0177765	9.573837	0.0	0.0	0.0	
1465355079624964	0.24699402	4.0177765	9.573837	0.0	0.0	0.0	
1465355079624964	0.24699402	4.0177765	9.573837	0.0	0.0	0.0	
1465355089634729	0.8455353	4.0057983	8.280975	0.0	0.0	0.0	
1465355129612756	1.053833	4.0034027	6.9569855	0.0	0.0	0.0	
1465355149601770	0.7354126	3.546112	7.2059784	0.0	0.0	0.0	
1465355149601770	0.7354126	3.546112	7.2059784	0.0	0.0	0.0	
1465355149601770	0.7354126	3.546112	7.2059784	0.0	0.0	0.0	
1465355149601770	0.7354126	3.546112	7.2059784	0.0	0.0	0.0	
1465355149601770	0.7354126	3.546112	7.2059784	0.0	0.0	0.0	
1465355159611536	0.6635742	3.3785248	7.280197	0.0	0.0	0.0	
1465355179600549	0.56781006	3.450348	7.220337	0.0	0.0	0.0	
1465355179600549	0.56781006	3.450348	7.220337	0.0	0.0	0.0	
1465355199589563	0.3523407	2.8326416	7.359207	0.0	0.0	0.0	
1465355219578577	0.7282257	3.1989594	7.893112	0.0	0.0	0.0	
1465355219578577	0.7282257	3.1989594	7.893112	0.0	0.0	0.0	
1465355219578577	0.7282257	3.1989594	7.893112	0.0	0.0	0.0	
1465355229588342	0.8838501	3.3665466	7.7470703	0.0	0.0	0.0	
1465355239567590	1.2238159	3.4048615	7.330475	0.0	0.0	0.0	
1465355249546839	1.6739349	3.4934387	6.8707886	0.0	0.0	0.0	
1465355259556604	2.159958	3.5054169	6.5451813	0.0	0.0	0.0	
1465355269535852	2.5095062	3.371338	6.420685	0.0	0.0	0.0	
1465355279545618	2.7225952	3.2468414	6.770233	0.0	0.0	0.0	
1465355289524866	2.5071106	3.2683868	7.4118805	0.0	0.0	0.0	
1465355299534631	2.231781	3.4455566	7.838043	0.0	0.0	0.0	
1465355309513880	1.879837	3.6586456	7.9625397	0.0	0.0	0.0	
1465355319493128	1.3746643	3.7496185	8.130142	0.0	0.0	0.0	
1465355329502893	0.7186432	3.49823	8.539551	0.0	0.0	0.0	
1465355339512659	1.2956543	4.2835236	9.569061	0.0	0.0	0.0	
1465355349491907	2.279663	4.6235046	10.39505	0.0	0.0	0.0	
1465355359501672	1.7170258	4.209305	10.718277	0.0	0.0	0.0	
1465355369480921	1.5542297	4.015381	10.586594	0.0	0.0	0.0	
1465355379490686	2.042633	4.5516815	11.089371	0.0	0.0	0.0	
1465355389500452	2.3730469	4.6953278	8.7478485	0.0	0.0	0.0	
1465355399479700	1.6140747	4.5205536	6.454193	0.0	0.0	0.0	
1465355409489465	1.5518341	5.3489532	6.6529236	0.0	0.0	0.0	
1465355419499231	2.0522156	5.6673737	6.801361	0.0	0.0	0.0	
1465355429478479	1.424942	6.2012787	7.462158	0.0	0.0	0.0	
1465355439488245	1.4584503	6.4143677	8.154083	0.0	0.0	0.0	
1465355449467493	0.835968	6.435913	8.8268585	0.0	0.0	0.0	
1465355459477258	0.9939728	6.649002	9.449341	0.0	0.0	0.0	
1465355469456506	1.3626862	6.7902527	9.837204	0.0	0.0	0.0	
1465355479466272	2.0067291	6.7304077	9.765381	0.0	0.0	0.0	
1465355489476038	2.516693	6.6777344	9.616943	0.0	0.0	0.0	
1465355499455286	2.7154083	6.435913	9.566666	0.0	0.0	0.0	
1465355509465051	2.3371277	6.0073547	9.751022	0.0	0.0	0.0	
1465355519444299	1.7266083	6.210861	10.253799	0.0	0.0	0.0	
1465355529454065	1.1041107	6.7902527	10.5698395	0.0	0.0	0.0	
1465355539433313	1.1735382	6.9243317	10.337601	0.0	0.0	0.0	
1465355549443079	0.92214966	6.2587433	10.557861	0.0	0.0	0.0	
1465355559452844	-0.06425476	4.865326	11.345551	0.0	0.0	0.0	
1465355569462610	-0.15524292	4.1207275	11.965652	0.0	0.0	0.0	
1465355579441858	0.37149048	3.8573608	11.833969	0.0	0.0	0.0	
1465355589451624	1.0658112	3.929184	11.1635895	0.0	0.0	0.0	
1465355599430872	1.6835175	4.012985	10.189148	0.0	0.0	0.0	
1465355609440637	1.0059509	3.7400513	8.8867035	0.0	0.0	0.0	
1465355619450403	1.0011597	4.4176025	7.4980774	0.0	0.0	0.0	
1465355639439417	1.2956543	5.2148743	5.9059296	0.0	0.0	0.0	
1465355669438196	1.3052216	4.968277	4.7950134	0.0	0.0	0.0	
1465355699436975	0.03390503	3.8358154	6.8875427	0.0	0.0	0.0	
1465355719425989	0.543869	4.1446686	7.9050903	0.0	0.0	0.0	
1465355739415003	0.8479309	3.8406067	7.6417236	0.0	0.0	0.0	
1465355739415003	0.8479309	3.8406067	7.6417236	0.0	0.0	0.0	
1465355739415003	0.8479309	3.8406067	7.6417236	0.0	0.0	0.0	
1465355739415003	0.8479309	3.8406067	7.6417236	0.0	0.0	0.0	
1465355739415003	0.8479309	3.8406067	7.6417236	0.0	0.0	0.0	
1465355739415003	0.8479309	3.8406067	7.6417236	0.0	0.0	0.0	
1465355749424768	1.3531036	3.5556946	6.923462	0.0	0.0	0.0	
1465355749424768	1.3531036	3.5556946	6.923462	0.0	0.0	0.0	
1465355749424768	1.3531036	3.5556946	6.923462	0.0	0.0	0.0	
1465355759404016	2.013916	3.570053	6.4877167	0.0	0.0	0.0	
1465355769413782	3.0721436	3.7783508	6.370407	0.0	0.0	0.0	
1465355779393030	3.7329407	3.9459534	6.0902863	0.0	0.0	0.0	
1465355789372278	3.780838	3.9866486	5.616226	0.0	0.0	0.0	
1465355799382044	3.9532166	4.001007	5.4318695	0.0	0.0	0.0	
1465355809391809	4.151932	4.1207275	5.7479095	0.0	0.0	0.0	
1465355819371057	3.7209778	4.1518555	6.0759125	0.0	0.0	0.0	
1465355829380823	3.239746	4.1566315	6.0519714	0.0	0.0	0.0	
1465355839360071	2.851883	4.324234	6.46138	0.0	0.0	0.0	
1465355849369837	3.124817	4.0728455	6.849243	0.0	0.0	0.0	
1465355859349085	3.519867	3.7544098	7.275406	0.0	0.0	0.0	
1465355869358850	2.638794	3.0888214	8.192383	0.0	0.0	0.0	
1465355879368616	2.7441406	2.6746216	8.857971	0.0	0.0	0.0	
1465355889347864	4.523041	2.9116516	9.490051	0.0	0.0	0.0	
1465355899357630	6.002655	2.995453	9.537933	0.0	0.0	0.0	
1465355909336878	7.678589	3.3210602	9.15007	0.0	0.0	0.0	
1465355919346643	8.004196	3.7496185	9.46611	0.0	0.0	0.0	
1465355929356409	6.5988007	4.252411	9.612152	0.0	0.0	0.0	
1465355939335657	4.5350037	4.4104156	9.669617	0.0	0.0	0.0	
1465355959324671	3.1583405	4.0249634	9.020782	0.0	0.0	0.0	
1465355959324671	3.1583405	4.0249634	9.020782	0.0	0.0	0.0	
1465355969334436	3.59169	4.008194	9.111771	0.0	0.0	0.0	
1465355979344202	4.2333374	4.0656586	9.274567	0.0	0.0	0.0	
1465355989323450	4.9300537	3.9938354	9.660034	0.0	0.0	0.0	
1465355999333215	5.2604523	3.8860931	10.256195	0.0	0.0	0.0	
1465356009312464	5.080887	4.0848083	10.814041	0.0	0.0	0.0	
1465356019322229	4.623596	4.2356415	11.007965	0.0	0.0	0.0	
1465356029331995	4.1543274	4.348175	10.636871	0.0	0.0	0.0	
1465356039341760	3.7568817	4.5085907	9.956909	0.0	0.0	0.0	
1465356049321008	3.3594513	4.4247894	9.46611	0.0	0.0	0.0	
1465356059330774	2.8470917	4.1877594	9.382309	0.0	0.0	0.0	
1465356069340540	2.547821	4.0177765	9.628906	0.0	0.0	0.0	
1465356079350305	2.7393494	3.704132	10.191544	0.0	0.0	0.0	
1465356089329553	2.8710327	3.1750183	10.5937805	0.0	0.0	0.0	
1465356099308801	2.985962	2.7081451	10.591385	0.0	0.0	0.0	
1465356119328333	3.1152496	2.4088745	10.153244	0.0	0.0	0.0	
1465356129307581	3.0553894	2.35141	9.645676	0.0	0.0	0.0	
1465356129307581	3.0553894	2.35141	9.645676	0.0	0.0	0.0	
1465356139317346	2.7992096	2.2987366	9.166824	0.0	0.0	0.0	
1465356149327112	2.638794	2.1694489	8.640106	0.0	0.0	0.0	
1465356159306360	2.8901825	2.0641022	8.192383	0.0	0.0	0.0	
1465356169285608	3.3163605	2.0138245	7.8428345	0.0	0.0	0.0	
1465356179295374	3.8358917	1.9731293	7.5507507	0.0	0.0	0.0	
1465356189305139	4.089676	1.8989105	7.383148	0.0	0.0	0.0	
1465356199284387	3.8933563	1.7217407	7.488495	0.0	0.0	0.0	
1465356209294153	3.8071747	1.5278015	7.5220184	0.0	0.0	0.0	
1465356219273401	3.7592773	1.4128876	7.4046936	0.0	0.0	0.0	
1465356229283167	3.4288788	1.4559784	7.553131	0.0	0.0	0.0	
1465356239292932	2.710617	1.6403351	7.900299	0.0	0.0	0.0	
1465356259281946	0.95088196	2.1335297	7.78537	0.0	0.0	0.0	
1465356259281946	0.95088196	2.1335297	7.78537	0.0	0.0	0.0	
1465356269261194	1.3291626	2.5764618	8.415054	0.0	0.0	0.0	
1465356289280725	1.2070618	3.2109222	8.61377	0.0	0.0	0.0	
1465356289280725	1.2070618	3.2109222	8.61377	0.0	0.0	0.0	
1465356299259973	2.0019379	3.3737335	8.51561	0.0	0.0	0.0	
1465356309269739	2.5190887	3.2635956	8.3767395	0.0	0.0	0.0	
1465356319279505	2.6196442	3.2779694	7.282593	0.0	0.0	0.0	
1465356329258753	2.5693665	3.450348	7.1580963	0.0	0.0	0.0	
1465356339268518	2.5621796	3.747223	7.658478	0.0	0.0	0.0	
1465356359257532	2.7130127	3.388092	8.4557495	0.0	0.0	0.0	
1465356359257532	2.7130127	3.388092	8.4557495	0.0	0.0	0.0	
1465356369267297	2.827942	3.1678314	9.133316	0.0	0.0	0.0	
1465356379246546	3.045807	3.1319122	9.341614	0.0	0.0	0.0	
1465356389256311	3.160736	3.146286	9.334427	0.0	0.0	0.0	
1465356399235559	3.0745392	3.232483	9.305695	0.0	0.0	0.0	
1465356409245325	3.0194702	3.232483	9.162048	0.0	0.0	0.0	
1465356429203821	2.4664154	3.3330383	9.30809	0.0	0.0	0.0	
1465356429203821	2.4664154	3.3330383	9.30809	0.0	0.0	0.0	
1465356439213587	1.9995422	3.4311981	9.118942	0.0	0.0	0.0	
1465356459202600	1.8965912	3.7975006	7.620178	0.0	0.0	0.0	
1465356459202600	1.8965912	3.7975006	7.620178	0.0	0.0	0.0	
1465356469212366	2.262909	4.1063538	6.9210663	0.0	0.0	0.0	
1465356479222131	2.6531677	4.463089	6.4158936	0.0	0.0	0.0	
1465356489201380	2.851883	4.7527924	5.9370575	0.0	0.0	0.0	
1465356499180628	3.0242615	4.944336	5.7239685	0.0	0.0	0.0	
1465356509190393	3.1008759	5.1406555	5.932266	0.0	0.0	0.0	
1465356529179407	1.7553406	5.360916	8.0224	0.0	0.0	0.0	
1465356529179407	1.7553406	5.360916	8.0224	0.0	0.0	0.0	
1465356539189172	1.077774	5.3585205	9.329636	0.0	0.0	0.0	
1465356549198938	0.59654236	5.518936	10.486038	0.0	0.0	0.0	
1465356559178186	0.18952942	5.6817474	11.06543	0.0	0.0	0.0	
1465356569187952	0.012359619	5.8038483	10.936142	0.0	0.0	0.0	
1465356579167200	0.14883423	5.909195	10.311264	0.0	0.0	0.0	
1465356589176965	0.20628357	5.992996	9.502014	0.0	0.0	0.0	
1465356609165979	-0.5359192	6.1653748	8.582642	0.0	0.0	0.0	
1465356609165979	-0.5359192	6.1653748	8.582642	0.0	0.0	0.0	
1465356619175745	-1.4744415	6.1917114	8.901077	0.0	0.0	0.0	
1465356629185510	-2.6212616	6.2012787	9.24823	0.0	0.0	0.0	
1465356639195276	-3.468811	6.174942	9.557083	0.0	0.0	0.0	
1465356649205042	-3.8135834	6.0408783	9.837204	0.0	0.0	0.0	
1465356659184290	-3.8566742	5.8397675	10.174789	0.0	0.0	0.0	
1465356679203821	-4.0194855	5.3106384	10.246613	0.0	0.0	0.0	
1465356679203821	-4.0194855	5.3106384	10.246613	0.0	0.0	0.0	
1465356689183069	-4.270874	5.265152	10.007202	0.0	0.0	0.0	
1465356699162317	-4.002716	5.257965	9.5546875	0.0	0.0	0.0	
1465356709141565	-3.8135834	5.166992	8.817276	0.0	0.0	0.0	
1465356729130579	-3.4640198	4.9874268	7.5220184	0.0	0.0	0.0	
1465356729130579	-3.4640198	4.9874268	7.5220184	0.0	0.0	0.0	
1465356739140344	-3.310791	4.8868713	7.3472443	0.0	0.0	0.0	
1465356749150110	-3.3036194	4.736038	7.390335	0.0	0.0	0.0	
1465356759129358	-3.396988	4.585205	7.5579224	0.0	0.0	0.0	
1465356769139124	-3.4281158	4.3816986	7.6105957	0.0	0.0	0.0	
1465356779118372	-3.2581177	4.233246	7.5890503	0.0	0.0	0.0	
1465356789128137	-2.879837	4.127899	7.383148	0.0	0.0	0.0	
1465356809117151	-2.1256714	3.8358154	6.6337585	0.0	0.0	0.0	
1465356809117151	-2.1256714	3.8358154	6.6337585	0.0	0.0	0.0	
1465356829136682	-1.5295105	3.7687836	6.092682	0.0	0.0	0.0	
1465356829136682	-1.5295105	3.7687836	6.092682	0.0	0.0	0.0	
1465356849125696	-1.0386963	3.8813019	5.568344	0.0	0.0	0.0	
1465356849125696	-1.0386963	3.8813019	5.568344	0.0	0.0	0.0	
1465356859135462	-1.1224976	3.9914398	5.307373	0.0	0.0	0.0	
1465356869145227	-1.0291138	4.1757965	5.0152893	0.0	0.0	0.0	
1465356879124475	-0.7705536	4.3816986	4.7686768	0.0	0.0	0.0	
1465356889103723	-0.50239563	4.6067505	4.3927917	0.0	0.0	0.0	
1465356899113489	-0.5574646	4.8868713	4.1461945	0.0	0.0	0.0	
1465356909092737	-0.85194397	5.27713	4.16774	0.0	0.0	0.0	
1465356929112268	-1.9413147	6.1055145	3.6649475	0.0	0.0	0.0	
1465356929112268	-1.9413147	6.1055145	3.6649475	0.0	0.0	0.0	
1465356939091516	-2.5111237	6.6633606	3.4087677	0.0	0.0	0.0	
1465356949101282	-2.5925293	7.0608063	3.8110046	0.0	0.0	0.0	
1465356959111047	-2.570984	7.2355804	4.543625	0.0	0.0	0.0	
1465356969120813	-2.4273376	7.336136	5.3959656	0.0	0.0	0.0	
1465356979100061	-2.2573395	7.4486694	6.1908417	0.0	0.0	0.0	
1465356989079309	-2.448883	7.486969	6.789383	0.0	0.0	0.0	
1465356999089075	-3.0474396	7.58992	7.148514	0.0	0.0	0.0	
1465357019078089	-4.129608	8.210022	7.7135468	0.0	0.0	0.0	
1465357019078089	-4.129608	8.210022	7.7135468	0.0	0.0	0.0	
1465357029087854	-4.555786	8.504501	7.9529724	0.0	0.0	0.0	
1465357039067102	-4.5653534	8.765472	7.8069305	0.0	0.0	0.0	
1465357049076868	-4.337906	8.935471	7.3137207	0.0	0.0	0.0	
1465357059056116	-3.8566742	9.093475	6.4637756	0.0	0.0	0.0	
1465357069065881	-3.5980988	9.38797	5.9777527	0.0	0.0	0.0	
1465357079045130	-3.741745	9.641754	5.841278	0.0	0.0	0.0	
1465357099064661	-4.584503	9.955399	5.4941254	0.0	0.0	0.0	
1465357099064661	-4.584503	9.955399	5.4941254	0.0	0.0	0.0	
1465357109074426	-4.9244843	9.988907	5.891556	0.0	0.0	0.0	
1465357119053674	-5.0872955	9.919479	6.5451813	0.0	0.0	0.0	
1465357129063440	-5.1830597	9.794983	7.2921753	0.0	0.0	0.0	
1465357149052454	-5.508667	9.040802	7.9266357	0.0	0.0	0.0	
1465357149052454	-5.508667	9.040802	7.9266357	0.0	0.0	0.0	
1465357159062219	-5.867798	8.315369	8.221115	0.0	0.0	0.0	
1465357179051233	-6.4879	6.3186035	9.949738	0.0	0.0	0.0	
1465357179051233	-6.4879	6.3186035	9.949738	0.0	0.0	0.0	
1465357189060999	-6.540573	5.3537445	10.725449	0.0	0.0	0.0	
1465357199040247	-6.0330048	4.6067505	11.067825	0.0	0.0	0.0	
1465357209050012	-5.14476	4.0728455	11.005569	0.0	0.0	0.0	
1465357229008508	-3.3227692	3.4096527	9.087814	0.0	0.0	0.0	
1465357229008508	-3.3227692	3.4096527	9.087814	0.0	0.0	0.0	
1465357239018274	-2.800827	3.2755737	8.197174	0.0	0.0	0.0	
1465357249028040	-2.4416962	3.1917725	7.70636	0.0	0.0	0.0	
1465357259007288	-2.108902	3.2276917	7.5627136	0.0	0.0	0.0	
1465357278996301	-1.914978	3.3928833	8.276184	0.0	0.0	0.0	
1465357278996301	-1.914978	3.3928833	8.276184	0.0	0.0	0.0	
1465357289006067	-2.1256714	3.443161	8.731079	0.0	0.0	0.0	
1465357308995081	-2.5087433	3.3258514	9.312881	0.0	0.0	0.0	
1465357308995081	-2.5087433	3.3258514	9.312881	0.0	0.0	0.0	
1465357319004846	-2.5566254	3.285141	9.432587	0.0	0.0	0.0	
1465357329014612	-2.4656372	3.1917725	9.4206085	0.0	0.0	0.0	
1465357349003626	-2.1352386	2.9068604	8.731079	0.0	0.0	0.0	
1465357349003626	-2.1352386	2.9068604	8.731079	0.0	0.0	0.0	
1465357358982874	-1.9868011	2.8134918	8.280975	0.0	0.0	0.0	
1465357368962122	-1.9724426	2.7129364	7.7039795	0.0	0.0	0.0	
1465357378941370	-2.1112976	2.6937866	7.2778015	0.0	0.0	0.0	
1465357388951135	-2.2477722	2.6794128	7.0000763	0.0	0.0	0.0	
1465357398960901	-2.3243866	2.6818085	6.7438965	0.0	0.0	0.0	
1465357408970667	-2.4057922	2.6650543	6.4901123	0.0	0.0	0.0	
1465357418980432	-2.3986053	2.696167	6.2171783	0.0	0.0	0.0	
1465357428959680	-2.2932587	2.6818085	5.9250793	0.0	0.0	0.0	
1465357438969446	-2.156784	2.6219482	5.3959656	0.0	0.0	0.0	
1465357448948694	-1.8742676	2.6626587	5.3959656	0.0	0.0	0.0	
1465357458958460	-1.6947021	2.6626587	5.13739	0.0	0.0	0.0	
1465357468968225	-1.622879	2.7967377	4.859665	0.0	0.0	0.0	
1465357478947473	-1.5007782	2.933197	4.6729126	0.0	0.0	0.0	
1465357488957239	-1.3786774	3.0696716	4.519684	0.0	0.0	0.0	
1465357498936487	-1.326004	3.2612	4.4718018	0.0	0.0	0.0	
1465357508946253	-1.5319061	3.3761292	4.469406	0.0	0.0	0.0	
1465357518956018	-1.7832947	3.4838715	4.6010895	0.0	0.0	0.0	
1465357528935266	-2.0706024	3.6777954	4.845291	0.0	0.0	0.0	
1465357538945032	-2.45607	3.8190613	5.218796	0.0	0.0	0.0	
1465357548954797	-2.776886	3.9674988	5.6569366	0.0	0.0	0.0	
1465357558934046	-3.1336212	4.0824127	6.0759125	0.0	0.0	0.0	
1465357568943811	-3.5142975	4.185364	6.40152	0.0	0.0	0.0	
1465357578923059	-3.6603546	4.1805725	6.5858765	0.0	0.0	0.0	
1465357588932825	-3.5765533	4.1710052	6.7079926	0.0	0.0	0.0	
1465357598912073	-3.353897	4.1614227	6.818115	0.0	0.0	0.0	
1465357608921839	-2.9971466	4.14946	6.8540344	0.0	0.0	0.0	
1465357628910852	-2.3674774	4.4295807	6.571518	0.0	0.0	0.0	
1465357628910852	-2.3674774	4.4295807	6.571518	0.0	0.0	0.0	
1465357638920618	-2.259735	4.683365	6.3680115	0.0	0.0	0.0	
1465357648930383	-2.345932	4.9706726	6.1908417	0.0	0.0	0.0	
1465357658909631	-2.472824	5.2843018	6.1692963	0.0	0.0	0.0	
1465357668888880	-2.8056183	5.478241	6.444626	0.0	0.0	0.0	
1465357678898645	-3.0977173	5.636261	7.1389465	0.0	0.0	0.0	
1465357688908411	-3.0234833	5.8445435	8.10141	0.0	0.0	0.0	
1465357698887659	-2.6571808	6.158188	8.903473	0.0	0.0	0.0	
1465357708897424	-2.3602905	6.510132	9.451736	0.0	0.0	0.0	
1465357718876672	-2.5733795	6.8525085	9.944946	0.0	0.0	0.0	
1465357728886438	-3.389801	7.123047	10.292099	0.0	0.0	0.0	
1465357738896204	-4.0625763	7.348114	10.699112	0.0	0.0	0.0	
1465357748875452	-4.4791718	7.4726105	11.426956	0.0	0.0	0.0	
1465357758885217	-4.6515503	7.25473	12.255356	0.0	0.0	0.0	
1465357768864465	-4.665909	6.7543488	13.150787	0.0	0.0	0.0	
1465357788883997	-4.2301636	5.5955505	14.532242	0.0	0.0	0.0	
1465357788883997	-4.2301636	5.5955505	14.532242	0.0	0.0	0.0	
1465357798893762	-3.83992	5.066437	14.532242	0.0	0.0	0.0	
1465357808903528	-3.610077	4.6306915	14.156342	0.0	0.0	0.0	
1465357828862024	-3.2581177	3.9866486	12.571381	0.0	0.0	0.0	
1465357828862024	-3.2581177	3.9866486	12.571381	0.0	0.0	0.0	
1465357838841272	-2.8056183	3.7448273	11.582581	0.0	0.0	0.0	
1465357848851038	-2.2214355	3.601181	10.488434	0.0	0.0	0.0	
1465357858860803	-1.6947021	3.4216156	9.4254	0.0	0.0	0.0	
1465357868870569	-1.2613525	3.2396545	8.551514	0.0	0.0	0.0	
1465357878849817	-0.950119	3.1199493	7.86438	0.0	0.0	0.0	
1465357888859583	-0.73942566	3.0241852	7.342453	0.0	0.0	0.0	
1465357898838831	-0.72984314	2.9116516	7.1245728	0.0	0.0	0.0	
1465357908818079	-0.83039856	2.8446198	7.1437225	0.0	0.0	0.0	
1465357918827844	-0.91659546	2.775177	7.2131653	0.0	0.0	0.0	
1465357928807092	-1.0051727	2.7081451	7.2299194	0.0	0.0	0.0	
1465357938816858	-0.9836273	2.660263	7.0790863	0.0	0.0	0.0	
1465357948826624	-0.88786316	2.696167	6.8540344	0.0	0.0	0.0	
1465357958805872	-0.7705536	2.7919464	6.54039	0.0	0.0	0.0	
1465357968815637	-0.61253357	2.8661652	6.116623	0.0	0.0	0.0	
1465357978794885	-0.47366333	2.933197	5.6880493	0.0	0.0	0.0	
1465357988804651	-0.41142273	3.0505219	5.39357	0.0	0.0	0.0	
1465357998783899	-0.3874817	3.1678314	5.228363	0.0	0.0	0.0	
1465358008793665	-0.5071869	3.3330383	5.0440216	0.0	0.0	0.0	
1465358018803430	-0.7202759	3.5269623	4.9171295	0.0	0.0	0.0	
1465358028782678	-0.9620819	3.8645477	4.895569	0.0	0.0	0.0	
1465358038792444	-1.1536255	4.185364	4.8548737	0.0	0.0	0.0	
1465358048802210	-1.2733307	4.419998	4.876419	0.0	0.0	0.0	
1465358058781458	-1.3068542	4.5756226	4.9602203	0.0	0.0	0.0	
1465358068791223	-1.1775665	4.6618195	5.0966797	0.0	0.0	0.0	
1465358078770471	-0.7346344	4.7527924	5.1349945	0.0	0.0	0.0	
1465358088780237	-0.34677124	4.8006744	5.242737	0.0	0.0	0.0	
1465358098759485	-0.06425476	4.9036255	5.3839874	0.0	0.0	0.0	
1465358108769251	0.06503296	5.095169	5.666504	0.0	0.0	0.0	
1465358118779016	-0.14326477	5.3465576	6.0160675	0.0	0.0	0.0	
1465358128788782	-0.27734375	5.545273	6.339279	0.0	0.0	0.0	
1465358138768030	-0.3587494	5.708084	6.7271423	0.0	0.0	0.0	
1465358148777796	-0.17678833	5.8014526	7.0048676	0.0	0.0	0.0	
1465358158757044	0.10812378	5.743988	7.0838776	0.0	0.0	0.0	
1465358168766809	0.49598694	5.7128754	7.153305	0.0	0.0	0.0	
1465358188755823	0.95806885	5.672165	7.737488	0.0	0.0	0.0	
1465358198765589	1.211853	5.6697693	8.137329	0.0	0.0	0.0	
1465358198765589	1.211853	5.6697693	8.137329	0.0	0.0	0.0	
1465358208775354	1.2956543	5.688919	8.520401	0.0	0.0	0.0	
1465358218754602	1.3411407	5.734421	8.841217	0.0	0.0	0.0	
1465358228764368	1.3411407	5.8014526	9.118942	0.0	0.0	0.0	
1465358238743616	1.3914185	5.9115906	9.207535	0.0	0.0	0.0	
1465358248753381	1.3842316	5.933136	9.28894	0.0	0.0	0.0	
1465358258763147	0.90779114	5.688919	9.830017	0.0	0.0	0.0	
1465358268742395	0.21826172	5.2364197	10.490829	0.0	0.0	0.0	
1465358278752161	-0.5430908	4.6426544	10.921783	0.0	0.0	0.0	
1465358288731409	-1.3475494	4.2236786	11.508362	0.0	0.0	0.0	
1465358298741174	-2.211853	4.0177765	12.27211	0.0	0.0	0.0	
1465358308750940	-2.7122498	3.8908844	12.82756	0.0	0.0	0.0	
1465358318760706	-2.7146454	3.73526	12.904175	0.0	0.0	0.0	
1465358328739954	-2.3124084	3.570053	12.403793	0.0	0.0	0.0	
1465358338719202	-1.7234344	3.491043	11.429352	0.0	0.0	0.0	
1465358348728967	-1.1392517	3.3809204	10.476456	0.0	0.0	0.0	
1465358358708215	-0.5694275	3.3210602	9.8396	0.0	0.0	0.0	
1465358368717981	-0.19833374	3.256424	9.379913	0.0	0.0	0.0	
1465358378727747	0.12966919	3.2157135	9.09021	0.0	0.0	0.0	
1465358388737512	0.19671631	3.1750183	8.951355	0.0	0.0	0.0	
1465358398716760	0.07699585	3.0217896	8.759811	0.0	0.0	0.0	
1465358408726526	-0.22227478	2.9236298	8.625748	0.0	0.0	0.0	
1465358418736292	-0.58140564	2.964325	8.460541	0.0	0.0	0.0	
1465358428715540	-0.7705536	2.9164429	8.268997	0.0	0.0	0.0	
1465358438694788	-0.80166626	2.8206787	8.142105	0.0	0.0	0.0	
1465358448704553	-0.7059021	2.7560272	8.06311	0.0	0.0	0.0	
1465358458683801	-0.47605896	2.648285	8.005646	0.0	0.0	0.0	
1465358468693567	-0.19114685	2.526184	7.9098816	0.0	0.0	0.0	
1465358488682581	0.39782715	2.4280243	7.6896057	0.0	0.0	0.0	
1465358488682581	0.39782715	2.4280243	7.6896057	0.0	0.0	0.0	
1465358498692346	0.5702057	2.43042	7.5148315	0.0	0.0	0.0	
1465358508671594	0.464859	2.4878845	7.4477997	0.0	0.0	0.0	
1465358518681360	0.22065735	2.557312	7.457367	0.0	0.0	0.0	
1465358528691126	0.1177063	2.5764618	7.5315857	0.0	0.0	0.0	
1465358538700891	0.09376526	2.5980072	7.7159424	0.0	0.0	0.0	
1465358548680139	0.11051941	2.7009583	7.8260803	0.0	0.0	0.0	
1465358558659387	0.19432068	2.8470154	7.8236847	0.0	0.0	0.0	
1465358568669153	0.39543152	3.0648804	7.94339	0.0	0.0	0.0	
1465358578648401	0.40022278	3.1486816	8.031982	0.0	0.0	0.0	
1465358588627649	0.34036255	3.1630402	8.04155	0.0	0.0	0.0	
1465358598637415	0.40022278	3.1845856	8.094223	0.0	0.0	0.0	
1465358608647180	0.4935913	3.1893768	8.501236	0.0	0.0	0.0	
1465358618626428	0.38824463	3.2181091	8.989655	0.0	0.0	0.0	
1465358638645960	-0.17678833	3.316269	9.521179	0.0	0.0	0.0	
1465358638645960	-0.17678833	3.316269	9.521179	0.0	0.0	0.0	
1465358648625208	-0.10017395	3.328247	9.423004	0.0	0.0	0.0	
1465358658634973	0.08418274	3.4647064	9.15007	0.0	0.0	0.0	
1465358668614221	0.22782898	3.625122	8.848404	0.0	0.0	0.0	
1465358678623987	0.30923462	3.766388	8.666443	0.0	0.0	0.0	
1465358698613001	0.7258301	4.173401	8.628128	0.0	0.0	0.0	
1465358698613001	0.7258301	4.173401	8.628128	0.0	0.0	0.0	
1465358708622766	0.891037	4.2164917	8.582642	0.0	0.0	0.0	
1465358718602014	0.87187195	4.233246	8.702362	0.0	0.0	0.0	
1465358728611780	0.7425842	4.190155	8.812485	0.0	0.0	0.0	
1465358748600794	0.8263855	4.166214	9.0447235	0.0	0.0	0.0	
1465358748600794	0.8263855	4.166214	9.0447235	0.0	0.0	0.0	
1465358758610559	0.92933655	4.300293	9.214722	0.0	0.0	0.0	
1465358768589807	1.1065063	4.4295807	9.411041	0.0	0.0	0.0	
1465358778599573	1.1927032	4.340988	9.444565	0.0	0.0	0.0	
1465358788578821	1.0083466	4.22847	9.509201	0.0	0.0	0.0	
1465358798588587	0.44810486	4.0848083	9.873123	0.0	0.0	0.0	
1465358808598352	-0.3587494	3.7328644	10.600952	0.0	0.0	0.0	
1465358818608118	-0.81843567	3.273178	11.596939	0.0	0.0	0.0	
1465358828587366	-0.89982605	2.8709564	12.523499	0.0	0.0	0.0	
1465358838597131	-0.7633667	2.4567566	13.031067	0.0	0.0	0.0	
1465358848606897	-0.40423584	2.1431122	13.10051	0.0	0.0	0.0	
1465358858586145	-0.16241455	2.059311	12.832352	0.0	0.0	0.0	
1465358868595911	-0.06904602	2.0377655	12.353516	0.0	0.0	0.0	
1465358878575159	-0.12411499	2.054535	11.68074	0.0	0.0	0.0	
1465358888584924	-0.282135	2.2580414	10.895447	0.0	0.0	0.0	
1465358898594690	-0.2725525	2.5740662	10.160431	0.0	0.0	0.0	
1465358908573938	-0.26776123	2.8206787	9.384705	0.0	0.0	0.0	
1465358918583704	-0.0546875	2.9667206	8.580246	0.0	0.0	0.0	
1465358928562952	0.15840149	3.079239	7.996063	0.0	0.0	0.0	
1465358938572717	0.30444336	3.1055756	7.651306	0.0	0.0	0.0	
1465358948582483	0.28529358	3.0648804	7.438217	0.0	0.0	0.0	
1465358958592249	-0.013977051	3.0648804	7.5699005	0.0	0.0	0.0	
1465358968571497	-0.38508606	3.0146027	7.895508	0.0	0.0	0.0	
1465358978550745	-0.7250519	2.9906616	8.254639	0.0	0.0	0.0	
1465358988560510	-0.9764404	3.0098114	8.781357	0.0	0.0	0.0	
1465358998570276	-1.1655884	3.074463	9.310486	0.0	0.0	0.0	
1465359008580042	-1.2039032	3.019394	9.470886	0.0	0.0	0.0	
1465359018559290	-1.1081238	2.981079	9.334427	0.0	0.0	0.0	
1465359028538538	-0.6987152	2.957138	9.059097	0.0	0.0	0.0	
1465359038548303	0.07221985	2.897293	8.709534	0.0	0.0	0.0	
1465359048558069	0.92214966	2.854187	8.307312	0.0	0.0	0.0	
1465359058537317	1.6475983	2.861374	7.8428345	0.0	0.0	0.0	
1465359068547083	2.2126312	3.0217896	7.3759613	0.0	0.0	0.0	
1465359078526331	2.4041595	3.256424	7.0216217	0.0	0.0	0.0	
1465359088536096	2.3395233	3.4599304	6.7630463	0.0	0.0	0.0	
1465359098545862	2.1719208	3.5628815	6.5308075	0.0	0.0	0.0	
1465359118534876	1.8989868	3.6275177	6.6696777	0.0	0.0	0.0	
1465359118534876	1.8989868	3.6275177	6.6696777	0.0	0.0	0.0	
1465359128514124	1.9732056	3.5580902	6.95459	0.0	0.0	0.0	
1465359138523889	2.4257202	3.4359894	7.756653	0.0	0.0	0.0	
1465359148533655	2.4257202	3.4359894	7.756653	0.0	0.0	0.0	
1465359168522669	3.026657	3.328247	8.582642	0.0	0.0	0.0	
1465359168522669	3.026657	3.328247	8.582642	0.0	0.0	0.0	
1465359178501917	3.227768	3.292328	8.75502	0.0	0.0	0.0	
1465359188511682	3.323532	3.4048615	8.762207	0.0	0.0	0.0	
1465359198490930	3.11763	3.4766846	8.551514	0.0	0.0	0.0	
1465359208500696	2.7273865	3.687378	8.503632	0.0	0.0	0.0	
1465359218510462	2.3467102	3.9267883	8.728699	0.0	0.0	0.0	
1465359228489710	1.9181366	4.020172	9.128525	0.0	0.0	0.0	
1465359238499475	1.5901337	4.0249634	9.497223	0.0	0.0	0.0	
1465359248509241	1.3722687	4.0417175	9.873123	0.0	0.0	0.0	
1465359258488489	1.5183105	4.087204	10.102966	0.0	0.0	0.0	
1465359268498255	1.8104095	4.0776215	10.181976	0.0	0.0	0.0	
1465359278508020	2.0354614	4.094391	10.134094	0.0	0.0	0.0	
1465359288487268	2.1910858	4.1063538	10.083817	0.0	0.0	0.0	
1465359298466516	2.3131866	4.197342	10.04071	0.0	0.0	0.0	
1465359308445764	2.36586	4.3146515	10.038315	0.0	0.0	0.0	
1465359318455530	2.1240387	4.020172	10.193939	0.0	0.0	0.0	
1465359328465296	1.9516602	3.6275177	10.617722	0.0	0.0	0.0	
1465359338475061	1.5829468	3.2995148	11.1875305	0.0	0.0	0.0	
1465359348454309	1.0227051	2.7895508	11.762146	0.0	0.0	0.0	
1465359358464075	0.44570923	2.2724	12.178741	0.0	0.0	0.0	
1465359368443323	-0.09059143	2.01622	12.334366	0.0	0.0	0.0	
1465359378453089	-0.14805603	1.9731293	12.056625	0.0	0.0	0.0	
1465359398442102	0.70428467	1.9611511	10.502792	0.0	0.0	0.0	
1465359398442102	0.70428467	1.9611511	10.502792	0.0	0.0	0.0	
1465359408451868	1.1950989	1.999466	9.748627	0.0	0.0	0.0	
1465359428440881	1.6475983	2.0880432	8.953751	0.0	0.0	0.0	
1465359428440881	1.6475983	2.0880432	8.953751	0.0	0.0	0.0	
1465359438450647	1.508728	2.0569153	8.8867035	0.0	0.0	0.0	
1465359458439661	0.8862457	2.0688934	9.073456	0.0	0.0	0.0	
1465359458439661	0.8862457	2.0688934	9.073456	0.0	0.0	0.0	
1465359468449426	0.79525757	1.9324188	9.020782	0.0	0.0	0.0	
1465359478428674	0.79286194	1.8725739	9.106979	0.0	0.0	0.0	
1465359488438440	0.6923065	1.9850922	9.291336	0.0	0.0	0.0	
1465359498417688	0.43852234	2.01622	9.48526	0.0	0.0	0.0	
1465359508427454	0.34275818	2.1048126	9.561874	0.0	0.0	0.0	
1465359518437219	0.4720459	2.1694489	9.470886	0.0	0.0	0.0	
1465359528416467	0.7066803	2.1335297	9.245834	0.0	0.0	0.0	
1465359538426233	1.053833	2.083252	8.898682	0.0	0.0	0.0	
1465359558415247	1.6308441	2.1598663	8.350403	0.0	0.0	0.0	
1465359558415247	1.6308441	2.1598663	8.350403	0.0	0.0	0.0	
1465359568425012	1.8391266	2.2484589	8.024796	0.0	0.0	0.0	
1465359578404260	1.7960358	2.3466187	7.5387726	0.0	0.0	0.0	
1465359588414026	1.6404114	2.557312	7.117386	0.0	0.0	0.0	
1465359598423792	1.5733795	2.7727814	6.789383	0.0	0.0	0.0	
1465359608403040	1.4799957	2.9499664	6.6194	0.0	0.0	0.0	
1465359618382288	1.4464874	3.0002441	6.5379944	0.0	0.0	0.0	
1465359628392053	1.6404114	3.0457306	6.7247467	0.0	0.0	0.0	
1465359638401819	1.7361755	3.1055756	7.27063	0.0	0.0	0.0	
1465359648381067	1.6954803	3.115158	7.8739624	0.0	0.0	0.0	
1465359658390833	1.7170258	3.1055756	8.343231	0.0	0.0	0.0	
1465359668370081	1.7792816	3.1031952	8.704742	0.0	0.0	0.0	
1465359678379846	1.7840729	3.2133179	9.013596	0.0	0.0	0.0	
1465359688389612	1.745758	3.3928833	9.241043	0.0	0.0	0.0	
1465359698368860	1.5853424	3.467102	9.3871	0.0	0.0	0.0	
1465359708378626	1.4632416	3.5820312	9.549896	0.0	0.0	0.0	
1465359718357874	1.587738	3.7615967	9.710312	0.0	0.0	0.0	
1465359728367639	1.8175812	3.8549652	9.664825	0.0	0.0	0.0	
1465359738346887	2.145584	3.898056	9.552292	0.0	0.0	0.0	
1465359748356653	2.3921967	4.001007	9.487656	0.0	0.0	0.0	
1465359758366419	2.559784	4.197342	9.365555	0.0	0.0	0.0	
1465359768345667	2.686676	4.3697205	9.047119	0.0	0.0	0.0	
1465359788365198	2.6340027	4.5397034	8.008041	0.0	0.0	0.0	
1465359788365198	2.6340027	4.5397034	8.008041	0.0	0.0	0.0	
1465359798344446	2.420929	4.700119	7.603409	0.0	0.0	0.0	
1465359818333460	2.3706512	4.82222	7.110214	0.0	0.0	0.0	
1465359818333460	2.3706512	4.82222	7.110214	0.0	0.0	0.0	
1465359828343225	2.3538818	4.827011	7.3089294	0.0	0.0	0.0	
1465359838352991	2.3395233	4.977844	7.816498	0.0	0.0	0.0	
1465359848332239	2.2700958	5.1095276	8.565887	0.0	0.0	0.0	
1465359858342005	2.1000977	5.1023407	9.372726	0.0	0.0	0.0	
1465359868321253	1.5614014	4.968277	10.162811	0.0	0.0	0.0	
1465359878331018	1.0658112	4.865326	10.814041	0.0	0.0	0.0	
1465359888310266	0.81440735	4.8485565	11.288086	0.0	0.0	0.0	
1465359898320032	0.7186432	4.870102	11.553848	0.0	0.0	0.0	
1465359908329797	0.60372925	4.6163177	11.4006195	0.0	0.0	0.0	
1465359918309046	0.4792328	4.343384	11.005569	0.0	0.0	0.0	
1465359928288294	0.34275818	4.1207275	10.636871	0.0	0.0	0.0	
1465359938298059	0.07699585	3.8884888	10.335205	0.0	0.0	0.0	
1465359948307825	-0.10974121	3.601181	10.122116	0.0	0.0	0.0	
1465359958317590	-0.18395996	3.225296	9.954529	0.0	0.0	0.0	
1465359968327356	-0.10734558	2.8996887	9.806076	0.0	0.0	0.0	
1465359978306604	0.07939148	2.6770172	9.490051	0.0	0.0	0.0	
1465359988285852	0.0602417	2.4376068	8.99205	0.0	0.0	0.0	
1465359998295618	-0.07623291	2.3609924	8.438995	0.0	0.0	0.0	
1465360008305383	-0.2534027	2.3178864	7.998459	0.0	0.0	0.0	
1465360018284631	-0.46887207	2.2771912	7.694397	0.0	0.0	0.0	
1465360028294397	-0.6843567	2.2532501	7.3927307	0.0	0.0	0.0	
1465360038304163	-0.9620819	2.1694489	7.1557007	0.0	0.0	0.0	
1465360048313928	-1.1105194	2.1311493	7.1389465	0.0	0.0	0.0	
1465360058293176	-1.3427582	2.1526947	7.3328705	0.0	0.0	0.0	
1465360068302942	-1.5175323	2.162262	7.306534	0.0	0.0	0.0	
1465360088291956	-1.8168182	2.2556458	6.092682	0.0	0.0	0.0	
1465360088291956	-1.8168182	2.2556458	6.092682	0.0	0.0	0.0	
1465360098271204	-1.9772186	2.3897095	5.108658	0.0	0.0	0.0	
1465360108280969	-2.3890228	2.7009583	4.361664	0.0	0.0	0.0	
1465360118260217	-3.1503906	3.2157135	3.9307098	0.0	0.0	0.0	
1465360128269983	-3.6076813	3.7639923	3.7080536	0.0	0.0	0.0	
1465360138279749	-3.610077	4.1326904	3.6577759	0.0	0.0	0.0	
1465360148258997	-3.3730469	4.324234	3.7128448	0.0	0.0	0.0	
1465360168248010	-2.697876	4.5444946	3.777481	0.0	0.0	0.0	
1465360168248010	-2.697876	4.5444946	3.777481	0.0	0.0	0.0	
1465360178257776	-2.4464874	4.6905518	3.801422	0.0	0.0	0.0	
1465360188267542	-2.3243866	4.795883	3.839737	0.0	0.0	0.0	
1465360198246790	-2.3866272	4.819824	4.014511	0.0	0.0	0.0	
1465360218266321	-3.396988	5.29628	4.7447357	0.0	0.0	0.0	
1465360218266321	-3.396988	5.29628	4.7447357	0.0	0.0	0.0	
1465360228245569	-3.9883575	5.6027374	5.1780853	0.0	0.0	0.0	
1465360238255335	-4.495926	5.7775116	5.616226	0.0	0.0	0.0	
1465360248234583	-4.6132355	5.6937103	5.13739	0.0	0.0	0.0	
1465360268223596	-4.8813934	5.442322	7.653702	0.0	0.0	0.0	
1465360268223596	-4.8813934	5.442322	7.653702	0.0	0.0	0.0	
1465360278233362	-4.045807	5.289093	8.350403	0.0	0.0	0.0	
1465360288212610	-3.5095062	5.1334686	8.89389	0.0	0.0	0.0	
1465360298222376	-3.3251648	5.145447	9.279358	0.0	0.0	0.0	
1465360308201624	-3.3802338	5.2795105	9.442169	0.0	0.0	0.0	
1465360318211389	-3.9763794	5.447113	9.660034	0.0	0.0	0.0	
1465360328221155	-4.6994324	5.5165405	9.808472	0.0	0.0	0.0	
1465360338230921	-4.9364624	5.4925995	10.014374	0.0	0.0	0.0	
1465360348210169	-4.900543	5.490204	10.6536255	0.0	0.0	0.0	
1465360358189417	-4.7233734	5.5356903	11.319214	0.0	0.0	0.0	
1465360368199182	-4.457611	5.430359	11.6927185	0.0	0.0	0.0	
1465360378208948	-4.4073334	5.2555695	11.817215	0.0	0.0	0.0	
1465360388218714	-4.345093	5.2555695	11.802841	0.0	0.0	0.0	
1465360398197962	-4.100876	5.3704987	11.570602	0.0	0.0	0.0	
1465360408207727	-3.9213104	5.4614716	11.12529	0.0	0.0	0.0	
1465360418217493	-3.9380798	5.545273	10.418991	0.0	0.0	0.0	
1465360428196741	-4.290024	5.5596466	10.045502	0.0	0.0	0.0	
1465360438175989	-4.718582	5.4135895	10.0048065	0.0	0.0	0.0	
1465360448185755	-5.453598	5.111923	10.287323	0.0	0.0	0.0	
1465360458195520	-6.351425	4.683365	10.88826	0.0	0.0	0.0	
1465360468205286	-7.0170135	4.185364	11.333588	0.0	0.0	0.0	
1465360478184534	-7.3522034	3.6969452	11.455688	0.0	0.0	0.0	
1465360488163782	-7.371353	3.2612	11.290482	0.0	0.0	0.0	
1465360498173547	-7.2013702	2.8350372	10.957687	0.0	0.0	0.0	
1465360508152796	-6.8302765	2.4591522	10.488434	0.0	0.0	0.0	
1465360528141809	-5.8294983	1.8414459	9.185989	0.0	0.0	0.0	
1465360528141809	-5.8294983	1.8414459	9.185989	0.0	0.0	0.0	
1465360538151575	-5.3195343	1.5756836	8.407867	0.0	0.0	0.0	
1465360548161340	-4.82872	1.403305	7.682419	0.0	0.0	0.0	
1465360558171106	-4.4025574	1.2644348	7.203583	0.0	0.0	0.0	
1465360568150354	-4.132004	1.1519165	6.971344	0.0	0.0	0.0	
1465360588139368	-4.0051117	1.087265	7.1078186	0.0	0.0	0.0	
1465360588139368	-4.0051117	1.087265	7.1078186	0.0	0.0	0.0	
1465360598149133	-4.0625763	1.1040344	7.251465	0.0	0.0	0.0	
1465360618168665	-3.7824554	1.118393	7.6058044	0.0	0.0	0.0	
1465360618168665	-3.7824554	1.118393	7.6058044	0.0	0.0	0.0	
1465360628147913	-3.5214844	1.1399384	7.701584	0.0	0.0	0.0	
1465360638127161	-3.1910858	1.1207886	7.6680603	0.0	0.0	0.0	
1465360648106409	-2.9301147	1.1207886	7.4310303	0.0	0.0	0.0	
1465360668095422	-2.7960358	1.3147125	6.6792603	0.0	0.0	0.0	
1465360668095422	-2.7960358	1.3147125	6.6792603	0.0	0.0	0.0	
1465360678105188	-2.8918152	1.4224548	6.3057556	0.0	0.0	0.0	
1465360688114954	-2.9995422	1.573288	6.0759125	0.0	0.0	0.0	
1465360698094202	-3.1120758	1.652298	5.879593	0.0	0.0	0.0	
1465360708103967	-3.2006683	1.7193451	5.812561	0.0	0.0	0.0	
1465360718113733	-3.2461548	1.7767944	5.817337	0.0	0.0	0.0	
1465360728092981	-3.3227692	1.834259	5.841278	0.0	0.0	0.0	
1465360738102747	-3.4400787	1.8917236	5.8939514	0.0	0.0	0.0	
1465360748081995	-3.4903564	2.0042572	6.0088806	0.0	0.0	0.0	
1465360768071008	-3.492752	2.1239624	6.071121	0.0	0.0	0.0	
1465360768071008	-3.492752	2.1239624	6.071121	0.0	0.0	0.0	
1465360778080774	-3.4352875	2.2005768	6.025635	0.0	0.0	0.0	
1465360788060022	-3.420929	2.296341	6.0639496	0.0	0.0	0.0	
1465360798069788	-3.4592285	2.399292	6.1381683	0.0	0.0	0.0	
1465360808079553	-3.4664154	2.485489	6.2506866	0.0	0.0	0.0	
1465360818058801	-3.4831696	2.612381	6.389557	0.0	0.0	0.0	
1465360828068567	-3.5382385	2.703354	6.449417	0.0	0.0	0.0	
1465360838047815	-3.5837402	2.763214	6.5068665	0.0	0.0	0.0	
1465360848057581	-3.5909119	2.8661652	6.55954	0.0	0.0	0.0	
1465360858067346	-3.650772	2.9858704	6.5691223	0.0	0.0	0.0	
1465360878056360	-4.0386353	3.2181091	6.564331	0.0	0.0	0.0	
1465360878056360	-4.0386353	3.2181091	6.564331	0.0	0.0	0.0	
1465360888066126	-4.3809967	3.328247	6.6792603	0.0	0.0	0.0	
1465360898045374	-4.8071747	3.4240112	6.770233	0.0	0.0	0.0	
1465360908055139	-5.331497	3.4958344	6.8540344	0.0	0.0	0.0	
1465360918064905	-5.8701935	3.5269623	7.0288086	0.0	0.0	0.0	
1465360928044153	-6.248474	3.4958344	7.397522	0.0	0.0	0.0	
1465360938023401	-6.406494	3.5078125	8.060715	0.0	0.0	0.0	
1465360948033167	-6.3155212	3.687378	8.8268585	0.0	0.0	0.0	
1465360968022180	-6.351425	3.97229	9.640884	0.0	0.0	0.0	
1465360968022180	-6.351425	3.97229	9.640884	0.0	0.0	0.0	
1465360978031946	-6.7871704	3.9579163	9.707916	0.0	0.0	0.0	
1465360988011194	-7.2492523	4.087204	9.7127075	0.0	0.0	0.0	
1465360998020960	-7.7568207	4.3338013	9.569061	0.0	0.0	0.0	
1465361008030725	-8.345795	4.5349274	9.363159	0.0	0.0	0.0	
1465361018009973	-8.889282	4.6426544	9.159653	0.0	0.0	0.0	
1465361028019739	-9.281937	4.7049103	9.15007	0.0	0.0	0.0	
1465361048008753	-9.167007	4.635483	9.581024	0.0	0.0	0.0	
1465361048008753	-9.167007	4.635483	9.581024	0.0	0.0	0.0	
1465361058018518	-8.570862	4.348175	9.68158	0.0	0.0	0.0	
1465361068028284	-7.6754303	3.960312	9.650452	0.0	0.0	0.0	
1465361078007532	-6.856613	3.5820312	9.461319	0.0	0.0	0.0	
1465361088017297	-6.243698	3.2061462	9.195557	0.0	0.0	0.0	
1465361098027063	-5.757675	2.9619293	8.99205	0.0	0.0	0.0	
1465361108006311	-5.4320526	2.782364	8.67363	0.0	0.0	0.0	
1465361118016077	-5.259674	2.6530762	8.388718	0.0	0.0	0.0	
1465361127995325	-5.259674	2.5429382	8.206757	0.0	0.0	0.0	
1465361138005090	-5.381775	2.4639435	8.091827	0.0	0.0	0.0	
1465361148014856	-5.587677	2.4256287	7.9601593	0.0	0.0	0.0	
1465361157994104	-5.740906	2.3968964	7.78537	0.0	0.0	0.0	
1465361168003870	-5.8342896	2.3562012	7.519623	0.0	0.0	0.0	
1465361177983118	-5.812729	2.3035278	7.225128	0.0	0.0	0.0	
1465361187992883	-5.6714783	2.217331	6.9497986	0.0	0.0	0.0	
1465361198002649	-5.436844	2.1167755	6.7247467	0.0	0.0	0.0	
1465361207981897	-5.175873	2.0401611	6.504471	0.0	0.0	0.0	
1465361217961145	-4.981949	1.9707336	6.2698517	0.0	0.0	0.0	
1465361227970911	-4.639572	1.9372101	6.066345	0.0	0.0	0.0	
1465361237980676	-4.2014313	1.8629913	5.817337	0.0	0.0	0.0	
1465361247990442	-3.8782196	1.7480774	5.6258087	0.0	0.0	0.0	
1465361258000208	-3.7010498	1.7624359	5.417511	0.0	0.0	0.0	
1465361267979456	-3.5741577	1.8558044	5.113449	0.0	0.0	0.0	
1465361277958704	-3.3203735	1.9611511	4.7447357	0.0	0.0	0.0	
1465361287968469	-3.147995	2.0425568	4.385605	0.0	0.0	0.0	
1465361297978235	-3.092926	2.205368	4.117462	0.0	0.0	0.0	
1465361307957483	-2.9085693	2.296341	4.057602	0.0	0.0	0.0	
1465361317967249	-2.7744904	2.3154907	4.141403	0.0	0.0	0.0	
1465361327946497	-2.4824066	2.3729553	4.3329315	0.0	0.0	0.0	
1465361337956262	-2.2812805	2.392105	4.572357	0.0	0.0	0.0	
1465361347966028	-2.156784	2.3633728	4.926697	0.0	0.0	0.0	
1465361357945276	-2.1376343	2.43042	5.283432	0.0	0.0	0.0	
1465361377964807	-2.4177551	2.6458893	5.879593	0.0	0.0	0.0	
1465361377964807	-2.4177551	2.6458893	5.879593	0.0	0.0	0.0	
1465361387944055	-2.594925	2.7320862	6.092682	0.0	0.0	0.0	
1465361397953821	-2.721817	2.8422241	6.255478	0.0	0.0	0.0	
1465361407933069	-2.9875793	2.9451752	6.3440704	0.0	0.0	0.0	
1465361417942835	-3.3323364	3.0624847	6.3847656	0.0	0.0	0.0	
1465361427922083	-3.626831	3.170227	6.48053	0.0	0.0	0.0	
1465361437931848	-3.8135834	3.2276917	6.7510834	0.0	0.0	0.0	
1465361447941614	-3.930893	3.2205048	7.11261	0.0	0.0	0.0	
1465361457951380	-4.093704	3.18219	7.5028534	0.0	0.0	0.0	
1465361467930628	-4.6084595	3.1271362	8.25943	0.0	0.0	0.0	
1465361477909876	-4.6084595	3.1271362	8.25943	0.0	0.0	0.0	
1465361487919641	-5.022644	3.2229004	8.740662	0.0	0.0	0.0	
1465361497929407	-5.491913	3.4000702	9.073456	0.0	0.0	0.0	
1465361507908655	-5.714569	3.5724487	9.190765	0.0	0.0	0.0	
1465361517918421	-6.0090637	3.5628815	9.264999	0.0	0.0	0.0	
1465361527897669	-6.1981964	3.395279	9.473282	0.0	0.0	0.0	
1465361537907434	-6.274811	3.1869812	10.07663	0.0	0.0	0.0	
1465361547886682	-6.2532654	3.019394	10.837982	0.0	0.0	0.0	
1465361557896448	-6.3634033	2.7967377	11.604126	0.0	0.0	0.0	
1465361577915979	-6.8494263	2.557312	13.308792	0.0	0.0	0.0	
1465361577915979	-6.8494263	2.557312	13.308792	0.0	0.0	0.0	
1465361587925745	-7.112793	2.5788574	13.569763	0.0	0.0	0.0	
1465361597904993	-7.337845	2.502243	13.110077	0.0	0.0	0.0	
1465361607884241	-7.529373	2.5237885	12.109299	0.0	0.0	0.0	
1465361617894006	-7.560501	2.6458893	10.806854	0.0	0.0	0.0	
1465361627873255	-7.2779846	2.7680054	9.461319	0.0	0.0	0.0	
1465361637883020	-6.940399	2.8158875	8.472519	0.0	0.0	0.0	
1465361647862268	-6.6219788	2.8326416	7.663269	0.0	0.0	0.0	
1465361657872034	-6.15271	2.8925018	7.062332	0.0	0.0	0.0	
1465361667881799	-5.8941345	2.8470154	6.681656	0.0	0.0	0.0	
1465361677861047	-5.702606	2.8039093	6.5691223	0.0	0.0	0.0	
1465361687870813	-5.7552795	2.8446198	6.6529236	0.0	0.0	0.0	
1465361697880579	-6.042572	2.8565826	6.7199554	0.0	0.0	0.0	
1465361707859827	-6.2604523	2.8805237	6.892334	0.0	0.0	0.0	
1465361727848840	-6.655487	2.8398285	7.239502	0.0	0.0	0.0	
1465361727848840	-6.655487	2.8398285	7.239502	0.0	0.0	0.0	
1465361737858606	-6.6914062	2.8134918	7.282593	0.0	0.0	0.0	
1465361747837854	-6.4352264	2.763214	7.227524	0.0	0.0	0.0	
1465361757847620	-5.9420166	2.636322	7.007263	0.0	0.0	0.0	
1465361777836633	-5.0992584	2.313095	6.5930634	0.0	0.0	0.0	
1465361777836633	-5.0992584	2.313095	6.5930634	0.0	0.0	0.0	
1465361787846399	-4.8023834	2.2700043	6.327301	0.0	0.0	0.0	
1465361797856165	-4.481552	2.308319	6.1190186	0.0	0.0	0.0	
1465361807835413	-4.2541046	2.2436676	5.8388824	0.0	0.0	0.0	
1465361817814661	-4.0673676	2.1718445	5.520462	0.0	0.0	0.0	
1465361827824426	-3.8878021	2.1407166	5.1828766	0.0	0.0	0.0	
1465361837834192	-3.8135834	2.1526947	4.907547	0.0	0.0	0.0	
1465361847813440	-3.8255463	2.157486	4.7160034	0.0	0.0	0.0	
1465361857792688	-3.8303375	2.1694489	4.6250305	0.0	0.0	0.0	
1465361867802454	-3.8111877	2.1885986	4.6369934	0.0	0.0	0.0	
1465361877812219	-3.8255463	2.2508545	4.6729126	0.0	0.0	0.0	
1465361887821985	-3.9045563	2.2724	4.7519226	0.0	0.0	0.0	
1465361897831751	-3.9979248	2.3226776	4.845291	0.0	0.0	0.0	
1465361907810999	-3.9644165	2.3322601	4.9099426	0.0	0.0	0.0	
1465361927800012	-3.8614655	2.3490143	4.8812103	0.0	0.0	0.0	
1465361927800012	-3.8614655	2.3490143	4.8812103	0.0	0.0	0.0	
1465361937809778	-3.9955292	2.3968964	4.9362793	0.0	0.0	0.0	
1465361947819544	-4.1822815	2.4687195	5.046402	0.0	0.0	0.0	
1465361957798792	-4.3642426	2.557312	5.1709137	0.0	0.0	0.0	
1465361967778040	-4.5940857	2.6411133	5.338501	0.0	0.0	0.0	
1465361977787805	-4.8885803	2.660263	5.4151154	0.0	0.0	0.0	
1465361987797571	-5.1231995	2.672226	5.539612	0.0	0.0	0.0	
1465361997807337	-5.192642	2.5836487	5.7000275	0.0	0.0	0.0	
1465362007786585	-5.199814	2.4735107	5.9011383	0.0	0.0	0.0	
1465362017796350	-5.1902466	2.43042	6.1597137	0.0	0.0	0.0	
1465362027775598	-5.156723	2.454361	6.36322	0.0	0.0	0.0	
1465362037785364	-5.120804	2.4687195	6.681656	0.0	0.0	0.0	
1465362047764612	-5.0729218	2.5166016	7.093445	0.0	0.0	0.0	
1465362057774378	-5.2165833	2.5860443	7.5267944	0.0	0.0	0.0	
1465362067784143	-5.6618958	2.636322	7.871567	0.0	0.0	0.0	
1465362087773157	-7.608383	3.0265808	8.795731	0.0	0.0	0.0	
1465362087773157	-7.608383	3.0265808	8.795731	0.0	0.0	0.0	
1465362097782922	-8.829422	3.1055756	9.3871	0.0	0.0	0.0	
1465362107762171	-9.624298	3.0337524	10.287323	0.0	0.0	0.0	
1465362117771936	-9.612335	3.0026245	11.498779	0.0	0.0	0.0	
1465362127751184	-8.918015	2.981079	12.576172	0.0	0.0	0.0	
1465362137760950	-8.027374	2.8446198	13.002335	0.0	0.0	0.0	
1465362147770715	-7.1391296	2.6626587	12.971222	0.0	0.0	0.0	
1465362157780481	-6.2460785	2.5716705	12.602509	0.0	0.0	0.0	
1465362167759729	-5.5733185	2.5381622	11.951294	0.0	0.0	0.0	
1465362177738977	-5.151932	2.5070343	11.168381	0.0	0.0	0.0	
1465362187748743	-5.034622	2.5237885	10.536316	0.0	0.0	0.0	
1465362197727991	-4.8813934	2.605194	9.944946	0.0	0.0	0.0	
1465362207737756	-4.773651	2.66745	9.4206085	0.0	0.0	0.0	
1465362217747522	-4.720978	2.636322	8.970505	0.0	0.0	0.0	
1465362237736536	-4.555786	2.5285797	8.204361	0.0	0.0	0.0	
1465362237736536	-4.555786	2.5285797	8.204361	0.0	0.0	0.0	
1465362247715784	-4.4049377	2.5501251	7.9098816	0.0	0.0	0.0	
1465362257725549	-4.3235474	2.5166016	7.622574	0.0	0.0	0.0	
1465362267735315	-4.318756	2.5070343	7.385544	0.0	0.0	0.0	
1465362277714563	-4.337906	2.454361	7.225128	0.0	0.0	0.0	
1465362287693811	-4.179886	2.3945007	7.1892242	0.0	0.0	0.0	
1465362297703577	-3.9356842	2.3274689	7.129364	0.0	0.0	0.0	
1465362317692590	-3.5933075	2.2269135	6.9258575	0.0	0.0	0.0	
1465362317692590	-3.5933075	2.2269135	6.9258575	0.0	0.0	0.0	
1465362327702356	-3.3155823	2.181427	6.715164	0.0	0.0	0.0	
1465362337712122	-3.0330658	2.181427	6.4589844	0.0	0.0	0.0	
1465362347691370	-2.831955	2.2197266	6.212387	0.0	0.0	0.0	
1465362357701135	-2.7170258	2.3226776	6.025635	0.0	0.0	0.0	
1465362367680383	-2.6404114	2.5237885	5.872406	0.0	0.0	0.0	
1465362377690149	-2.5781708	2.806305	5.8269196	0.0	0.0	0.0	
1465362397679163	-3.2677002	3.3761292	6.818115	0.0	0.0	0.0	
1465362397679163	-3.2677002	3.3761292	6.818115	0.0	0.0	0.0	
1465362407688928	-4.014694	3.6203308	7.5100403	0.0	0.0	0.0	
1465362417668176	-4.974762	3.8645477	7.809311	0.0	0.0	0.0	
1465362427677942	-5.4559937	4.0417175	7.9649353	0.0	0.0	0.0	
1465362437657190	-4.914917	4.087204	8.130142	0.0	0.0	0.0	
1465362447666956	-3.772873	3.9698944	8.345612	0.0	0.0	0.0	
1465362457676721	-2.6475983	3.73526	8.367172	0.0	0.0	0.0	
1465362467655969	-1.7665405	3.7185059	8.355194	0.0	0.0	0.0	
1465362477665735	-1.1751709	3.9028473	8.225906	0.0	0.0	0.0	
1465362487675501	-1.0746155	4.130295	8.08226	0.0	0.0	0.0	
1465362497654749	-1.4026184	4.3864746	8.087051	0.0	0.0	0.0	
1465362507664514	-1.5390778	4.5588684	8.103806	0.0	0.0	0.0	
1465362517674280	-1.6133118	4.6426544	8.204361	0.0	0.0	0.0	
1465362537663294	-1.3212128	4.795883	8.367172	0.0	0.0	0.0	
1465362537663294	-1.3212128	4.795883	8.367172	0.0	0.0	0.0	
1465362547673059	-1.2062988	4.8294067	8.453354	0.0	0.0	0.0	
1465362557652307	-1.1751709	4.7934875	8.637711	0.0	0.0	0.0	
1465362567662073	-1.0746155	4.7839203	9.047119	0.0	0.0	0.0	
1465362577671839	-0.9884186	4.8485565	9.401459	0.0	0.0	0.0	
1465362597660852	-0.8854675	5.1358643	9.667221	0.0	0.0	0.0	
1465362597660852	-0.8854675	5.1358643	9.667221	0.0	0.0	0.0	
1465362607640100	-0.7849121	5.162201	9.4756775	0.0	0.0	0.0	
1465362617619348	-0.82321167	5.0688324	9.133316	0.0	0.0	0.0	
1465362627629114	-0.9884186	4.96109	8.757416	0.0	0.0	0.0	
1465362637638880	-1.1201019	4.874893	8.620956	0.0	0.0	0.0	
1465362647648645	-1.3786774	4.597168	8.664047	0.0	0.0	0.0	
1465362657627893	-1.7617493	4.1757965	8.903473	0.0	0.0	0.0	
1465362667607141	-2.1017303	3.8549652	9.372726	0.0	0.0	0.0	
1465362677616907	-2.2070618	3.6849823	9.822845	0.0	0.0	0.0	
1465362687596155	-2.108902	3.443161	10.067047	0.0	0.0	0.0	
1465362697605921	-1.950882	3.2229004	10.131699	0.0	0.0	0.0	
1465362707615686	-1.7737122	3.098404	9.897064	0.0	0.0	0.0	
1465362717598908	-1.4983826	2.9164429	9.418228	0.0	0.0	0.0	
1465362727608674	-1.2685394	2.799118	8.846008	0.0	0.0	0.0	
1465362747597688	-0.9836273	2.648285	8.06311	0.0	0.0	0.0	
1465362747597688	-0.9836273	2.648285	8.06311	0.0	0.0	0.0	
1465362757607453	-0.85194397	2.581253	7.816498	0.0	0.0	0.0	
1465362767617219	-0.89982605	2.4591522	7.651306	0.0	0.0	0.0	
1465362777596467	-1.0746155	2.3274689	7.567505	0.0	0.0	0.0	
1465362787575715	-1.3762817	2.2484589	7.622574	0.0	0.0	0.0	
1465362797585480	-1.756958	2.2556458	7.8548126	0.0	0.0	0.0	
1465362807595246	-2.0083466	2.241272	8.125351	0.0	0.0	0.0	
1465362827584260	-1.9891968	2.1526947	8.273788	0.0	0.0	0.0	
1465362827584260	-1.9891968	2.1526947	8.273788	0.0	0.0	0.0	
1465362837594025	-1.7473755	2.1694489	8.113388	0.0	0.0	0.0	
1465362847573273	-1.3595276	2.1718445	7.7997437	0.0	0.0	0.0	
1465362857583039	-0.954895	2.2149353	7.3807526	0.0	0.0	0.0	
1465362867562287	-0.6149292	2.289154	6.95459	0.0	0.0	0.0	
1465362877572053	-0.36592102	2.3538055	6.6289825	0.0	0.0	0.0	
1465362887581818	-0.17199707	2.4399872	6.365616	0.0	0.0	0.0	
1465362907570832	-0.24382019	2.581253	6.28421	0.0	0.0	0.0	
1465362907570832	-0.24382019	2.581253	6.28421	0.0	0.0	0.0	
1465362917550080	-0.37789917	2.739273	6.370407	0.0	0.0	0.0	
1465362937539094	-0.62449646	2.8805237	6.715164	0.0	0.0	0.0	
1465362937539094	-0.62449646	2.8805237	6.715164	0.0	0.0	0.0	
1465362947548859	-0.76815796	2.9188385	6.9378357	0.0	0.0	0.0	
1465362957528107	-0.7250519	2.988266	7.19162	0.0	0.0	0.0	
1465362967537873	-0.4928131	2.9906616	7.627365	0.0	0.0	0.0	
1465362977547639	-0.28930664	2.8350372	8.573074	0.0	0.0	0.0	
1465362987526887	-0.35635376	2.6985626	9.571457	0.0	0.0	0.0	
1465362997536652	-0.64604187	2.605194	10.146057	0.0	0.0	0.0	
1465363007546418	-0.73223877	2.703354	10.265762	0.0	0.0	0.0	
1465363017525666	-0.9836273	2.8422241	10.050293	0.0	0.0	0.0	
1465363027535432	-1.4289551	3.0768585	9.597794	0.0	0.0	0.0	
1465363037514680	-1.7904816	3.4575348	9.166824	0.0	0.0	0.0	
1465363057534211	-1.7042847	4.0345306	8.427017	0.0	0.0	0.0	
1465363057534211	-1.7042847	4.0345306	8.427017	0.0	0.0	0.0	
1465363067543977	-1.5606384	4.1326904	8.048737	0.0	0.0	0.0	
1465363077523225	-1.405014	4.1757965	7.8739624	0.0	0.0	0.0	
1465363087502473	-1.3690948	4.2476196	8.065491	0.0	0.0	0.0	
1465363097512238	-1.3690948	4.2907104	8.285767	0.0	0.0	0.0	
1465363107491486	-1.464859	4.340988	8.395905	0.0	0.0	0.0	
1465363117501252	-1.7090759	4.4918213	8.570679	0.0	0.0	0.0	
1465363127480500	-2.029892	4.6977234	9.09021	0.0	0.0	0.0	
1465363137490266	-2.4225464	4.8485565	9.609756	0.0	0.0	0.0	
1465363147500031	-2.7385864	4.929962	10.098175	0.0	0.0	0.0	
1465363157509797	-3.061798	4.774338	10.715881	0.0	0.0	0.0	
1465363167489045	-3.152771	4.5397034	11.446106	0.0	0.0	0.0	
1465363177498811	-3.1982727	4.1925507	12.109299	0.0	0.0	0.0	
1465363187478059	-3.3802338	3.7208862	12.664764	0.0	0.0	0.0	
1465363207497590	-3.6866913	2.9499664	13.10051	0.0	0.0	0.0	
1465363207497590	-3.6866913	2.9499664	13.10051	0.0	0.0	0.0	
1465363217507355	-3.4041748	2.770401	12.820389	0.0	0.0	0.0	
1465363227486604	-2.9971466	2.58844	12.059021	0.0	0.0	0.0	
1465363237496369	-2.6021118	2.3370514	10.950516	0.0	0.0	0.0	
1465363247506135	-2.3794556	2.0664978	9.911423	0.0	0.0	0.0	
1465363257485383	-2.2022858	2.0305786	9.135712	0.0	0.0	0.0	
1465363267464631	-1.9772186	2.1239624	8.620956	0.0	0.0	0.0	
1465363277474396	-1.970047	2.2676086	8.484482	0.0	0.0	0.0	
1465363287453645	-2.2717133	2.3968964	8.726303	0.0	0.0	0.0	
1465363307442658	-3.2988281	2.2795868	9.849182	0.0	0.0	0.0	
1465363307442658	-3.2988281	2.2795868	9.849182	0.0	0.0	0.0	
1465363317452424	-3.7537231	2.2532501	10.794891	0.0	0.0	0.0	
1465363327462189	-3.868637	2.1287537	11.271332	0.0	0.0	0.0	
1465363337441438	-3.5669708	1.8749695	11.254578	0.0	0.0	0.0	
1465363347451203	-3.1024933	1.5014648	10.684753	0.0	0.0	0.0	
1465363357460969	-2.4105682	1.2979584	9.992828	0.0	0.0	0.0	
1465363367440217	-1.654007	1.2859955	9.358368	0.0	0.0	0.0	
1465363377419465	-0.95729065	1.2572632	8.702362	0.0	0.0	0.0	
1465363387429230	-0.51675415	1.245285	8.113388	0.0	0.0	0.0	
1465363397438996	-0.26296997	1.3817596	7.6848145	0.0	0.0	0.0	
1465363407418244	-0.09777832	1.6570892	7.409485	0.0	0.0	0.0	
1465363417428010	-0.006790161	1.8701782	7.105423	0.0	0.0	0.0	
1465363427437775	0.15840149	1.9276428	6.5906677	0.0	0.0	0.0	
1465363437447541	0.3523407	2.1526947	6.1237946	0.0	0.0	0.0	
1465363447426789	0.3930359	2.5453339	5.7790375	0.0	0.0	0.0	
1465363457436555	0.5702057	2.897293	5.673691	0.0	0.0	0.0	
1465363467415803	0.75216675	3.1343079	5.7646637	0.0	0.0	0.0	
1465363477425568	0.77371216	3.3186646	5.992111	0.0	0.0	0.0	
1465363487404816	0.56781006	3.570053	6.2052	0.0	0.0	0.0	
1465363507424348	-0.08340454	3.8022919	7.136551	0.0	0.0	0.0	
1465363507424348	-0.08340454	3.8022919	7.136551	0.0	0.0	0.0	
1465363517403596	-0.2653656	3.742447	7.543564	0.0	0.0	0.0	
1465363527413361	-0.30847168	3.649063	7.991272	0.0	0.0	0.0	
1465363537423127	-0.24142456	3.6059723	8.529968	0.0	0.0	0.0	
1465363557412141	0.1177063	3.7639923	9.128525	0.0	0.0	0.0	
1465363557412141	0.1177063	3.7639923	9.128525	0.0	0.0	0.0	
1465363567391389	0.61808777	3.8358154	8.838821	0.0	0.0	0.0	
1465363587380402	1.5542297	3.838211	7.8476257	0.0	0.0	0.0	
1465363587380402	1.5542297	3.838211	7.8476257	0.0	0.0	0.0	
1465363597390168	1.6739349	3.9890442	8.00325	0.0	0.0	0.0	
1465363607399934	1.4871826	4.1877594	8.324066	0.0	0.0	0.0	
1465363617379182	1.2549438	4.331421	8.721512	0.0	0.0	0.0	
1465363627388947	1.1855164	4.4894257	9.133316	0.0	0.0	0.0	
1465363637368195	0.9029999	4.5516815	9.588211	0.0	0.0	0.0	
1465363647377961	0.44091797	4.589981	10.232254	0.0	0.0	0.0	
1465363657387727	-0.011581421	4.609146	10.840378	0.0	0.0	0.0	
1465363667366975	-0.1743927	4.580414	11.146835	0.0	0.0	0.0	
1465363677376740	0.03630066	4.494217	10.998398	0.0	0.0	0.0	
1465363697365754	0.7258301	4.336197	10.220276	0.0	0.0	0.0	
1465363697365754	0.7258301	4.336197	10.220276	0.0	0.0	0.0	
1465363707375520	0.9484863	4.051285	10.452515	0.0	0.0	0.0	
1465363727334016	0.812027	3.0768585	12.873047	0.0	0.0	0.0	
1465363727334016	0.812027	3.0768585	12.873047	0.0	0.0	0.0	
1465363737343781	0.43133545	2.5621033	14.177887	0.0	0.0	0.0	
1465363757332795	-0.37550354	1.5565338	15.164307	0.0	0.0	0.0	
1465363757332795	-0.37550354	1.5565338	15.164307	0.0	0.0	0.0	
1465363767312043	-0.27015686	1.300354	14.323944	0.0	0.0	0.0	
1465363777321809	0.009963989	1.1830444	12.978394	0.0	0.0	0.0	
1465363787331574	0.41697693	1.2333221	11.453293	0.0	0.0	0.0	
1465363807320588	1.1017151	1.3602142	9.0447235	0.0	0.0	0.0	
1465363807320588	1.1017151	1.3602142	9.0447235	0.0	0.0	0.0	
1465363817330354	1.2262115	1.403305	8.391113	0.0	0.0	0.0	
1465363827309602	1.3962097	1.4679413	7.948181	0.0	0.0	0.0	
1465363837319367	1.3818359	1.5254059	7.8021393	0.0	0.0	0.0	
1465363847329133	0.85032654	1.5301971	7.979309	0.0	0.0	0.0	
1465363857308381	0.75935364	1.4559784	8.395905	0.0	0.0	0.0	
1465363867318146	0.6085205	1.2572632	8.83403	0.0	0.0	0.0	
1465363877327912	0.42655945	1.1734619	9.245834	0.0	0.0	0.0	
1465363887307160	0.3355713	1.1950073	9.516388	0.0	0.0	0.0	
1465363897316926	0.30444336	1.1902161	9.636093	0.0	0.0	0.0	
1465363907296174	0.2948761	1.1854401	9.569061	0.0	0.0	0.0	
1465363917305939	0.09854126	1.2644348	9.449341	0.0	0.0	0.0	
1465363927315705	-0.20072937	1.4535828	9.07106	0.0	0.0	0.0	
1465363937294953	-0.29649353	1.6977997	8.467728	0.0	0.0	0.0	
1465363947304719	-0.26776123	1.9060822	7.5627136	0.0	0.0	0.0	
1465363967293732	0.0027770996	2.1167755	6.262665	0.0	0.0	0.0	
1465363967293732	0.0027770996	2.1167755	6.262665	0.0	0.0	0.0	
1465363977303498	0.10812378	2.2364807	6.2267456	0.0	0.0	0.0	
1465363987282746	0.3236084	2.2939453	6.930649	0.0	0.0	0.0	
1465363997292512	0.29008484	2.320282	8.695175	0.0	0.0	0.0	
1465364007302277	0.385849	1.9779205	10.033524	0.0	0.0	0.0	
1465364017281525	0.89341736	1.5517426	10.299286	0.0	0.0	0.0	
1465364027260773	1.2621307	1.5254059	9.774963	0.0	0.0	0.0	
1465364037270539	1.3076172	1.695404	8.846008	0.0	0.0	0.0	
1465364047280305	1.0945435	1.9707336	8.113388	0.0	0.0	0.0	
1465364057259553	0.7138519	2.2915497	7.7518616	0.0	0.0	0.0	
1465364067269318	0.37867737	2.5716705	7.5387726	0.0	0.0	0.0	
1465364077279084	0.26374817	2.7847595	7.220337	0.0	0.0	0.0	
1465364097268098	0.37149048	3.043335	7.4860992	0.0	0.0	0.0	
1465364097268098	0.37149048	3.043335	7.4860992	0.0	0.0	0.0	
1465364107277863	0.35951233	3.0888214	7.94339	0.0	0.0	0.0	
1465364117257111	0.13206482	3.249237	8.333649	0.0	0.0	0.0	
1465364127236359	0.07939148	3.4383698	8.312103	0.0	0.0	0.0	
1465364137246125	0.05545044	3.5580902	7.84523	0.0	0.0	0.0	
1465364147255891	-0.04510498	3.6706085	7.2299194	0.0	0.0	0.0	
1465364157265656	-0.0594635	3.8836975	7.0240173	0.0	0.0	0.0	
1465364167244904	-0.4138031	4.07045	7.440613	0.0	0.0	0.0	
1465364177224152	-0.8208313	4.135086	8.326462	0.0	0.0	0.0	
1465364197243684	-0.5861969	4.1398773	9.339218	0.0	0.0	0.0	
1465364197243684	-0.5861969	4.1398773	9.339218	0.0	0.0	0.0	
1465364207222932	-0.33241272	4.044113	9.437378	0.0	0.0	0.0	
1465364217232697	-0.05229187	3.941162	9.26738	0.0	0.0	0.0	
1465364227242463	0.13206482	3.7783508	9.080643	0.0	0.0	0.0	
1465364247231477	0.13925171	3.632309	9.765381	0.0	0.0	0.0	
1465364247231477	0.13925171	3.632309	9.765381	0.0	0.0	0.0	
1465364257210725	-0.08340454	3.3785248	10.2777405	0.0	0.0	0.0	
1465364267220490	-0.57901	3.412033	10.237045	0.0	0.0	0.0	
1465364277230256	-0.85194397	3.5341492	11.266541	0.0	0.0	0.0	
1465364287209504	-1.3906403	3.316269	12.224228	0.0	0.0	0.0	
1465364297188752	-1.8263855	2.7416687	12.889816	0.0	0.0	0.0	
1465364307198518	-1.5343018	1.9826965	13.282455	0.0	0.0	0.0	
1465364317208283	-0.43536377	1.3314819	13.244156	0.0	0.0	0.0	
1465364327218049	0.7497711	0.85502625	12.676727	0.0	0.0	0.0	
1465364347176545	2.0091248	0.4049225	11.1635895	0.0	0.0	0.0	
1465364347176545	2.0091248	0.4049225	11.1635895	0.0	0.0	0.0	
1465364357186311	1.9229279	0.31155396	10.80925	0.0	0.0	0.0	
1465364367196076	1.9229279	0.2995758	10.665604	0.0	0.0	0.0	
1465364377175324	1.8511047	0.53900146	10.481247	0.0	0.0	0.0	
1465364387185090	1.6811218	0.77363586	10.196335	0.0	0.0	0.0	
1465364397194855	1.3674774	0.87179565	10.002411	0.0	0.0	0.0	
1465364407174104	0.8575134	1.0202332	10.3567505	0.0	0.0	0.0	
1465364417153352	0.6132965	1.1686707	10.47406	0.0	0.0	0.0	
1465364427163117	0.4505005	1.10643	10.205917	0.0	0.0	0.0	
1465364437172883	0.11531067	1.0298157	9.865936	0.0	0.0	0.0	
1465364447182648	0.009963989	1.0106506	9.691162	0.0	0.0	0.0	
1465364457161896	0.1512146	0.9364319	9.3966675	0.0	0.0	0.0	
1465364467171662	0.04588318	0.9436188	9.030365	0.0	0.0	0.0	
1465364477181428	-0.06185913	0.9891052	8.637711	0.0	0.0	0.0	
1465364487160676	0.0315094	1.0417786	8.209152	0.0	0.0	0.0	
1465364497170441	0.26135254	1.0130463	7.7135468	0.0	0.0	0.0	
1465364507149689	0.5630188	1.008255	7.1509094	0.0	0.0	0.0	
1465364517159455	0.85032654	1.111206	6.729538	0.0	0.0	0.0	
1465364527169221	0.9844055	1.2476807	6.315338	0.0	0.0	0.0	
1465364547158234	0.8742676	1.4751282	6.152527	0.0	0.0	0.0	
1465364547158234	0.8742676	1.4751282	6.152527	0.0	0.0	0.0	
1465364557137482	0.8479309	1.5397797	6.4350433	0.0	0.0	0.0	
1465364567147248	0.812027	1.671463	6.710373	0.0	0.0	0.0	
1465364577157014	0.55584717	1.8677826	6.9928894	0.0	0.0	0.0	
1465364597115510	0.05545044	1.9731293	7.70636	0.0	0.0	0.0	
1465364597115510	0.05545044	1.9731293	7.70636	0.0	0.0	0.0	
1465364607125275	0.44570923	1.9204559	8.206757	0.0	0.0	0.0	
1465364617135041	1.0490417	1.8438416	8.110992	0.0	0.0	0.0	
1465364627114289	1.5015564	1.7241211	7.215561	0.0	0.0	0.0	
1465364647103303	1.4440918	1.5517426	7.1150055	0.0	0.0	0.0	
1465364647103303	1.4440918	1.5517426	7.1150055	0.0	0.0	0.0	
1465364657113068	1.0729828	1.8007355	7.165283	0.0	0.0	0.0	
1465364667122834	0.7401886	2.2005768	7.833267	0.0	0.0	0.0	
1465364677132600	0.9460907	2.4902802	8.359985	0.0	0.0	0.0	
1465364687111848	1.4919739	2.4160461	9.217102	0.0	0.0	0.0	
1465364697121613	1.9181366	1.8222961	10.165207	0.0	0.0	0.0	
1465364707100861	2.4903564	1.1902161	10.323227	0.0	0.0	0.0	
1465364717080109	2.5885162	0.7879944	10.859528	0.0	0.0	0.0	
1465364727089875	2.6220398	0.40013123	11.436539	0.0	0.0	0.0	
1465364737099641	2.8423004	0.13677979	11.742996	0.0	0.0	0.0	
1465364747109406	2.930893	0.0098724365	12.406189	0.0	0.0	0.0	
1465364757088654	2.930893	0.0098724365	12.406189	0.0	0.0	0.0	
1465364767098420	2.6747131	0.052978516	12.592926	0.0	0.0	0.0	
1465364777108186	2.2365723	0.067337036	12.537872	0.0	0.0	0.0	
1465364787117951	1.9612427	0.052978516	12.504349	0.0	0.0	0.0	
1465364797097199	2.1000977	-0.049972534	12.415756	0.0	0.0	0.0	
1465364807076447	2.3443146	-0.12658691	12.41098	0.0	0.0	0.0	
1465364817086213	2.4951477	-0.2199707	12.731796	0.0	0.0	0.0	
1465364827065461	2.475998	-0.3684082	12.920944	0.0	0.0	0.0	
1465364847054475	2.4975433	-0.9142761	13.859467	0.0	0.0	0.0	
1465364847054475	2.4975433	-0.9142761	13.859467	0.0	0.0	0.0	
1465364857064240	2.5980988	-1.352417	14.220993	0.0	0.0	0.0	
1465364867074006	2.5909119	-1.6732483	14.32634	0.0	0.0	0.0	
1465364877053254	2.578949	-1.8001404	14.139587	0.0	0.0	0.0	
1465364887063020	2.5621796	-1.7809906	13.71582	0.0	0.0	0.0	
1465364897042268	2.4616241	-1.7163391	13.035858	0.0	0.0	0.0	
1465364907052033	2.3491058	-1.6780396	12.099731	0.0	0.0	0.0	
1465364917061799	2.2485352	-1.6517029	11.211472	0.0	0.0	0.0	
1465364927041047	2.2102356	-1.510437	10.330414	0.0	0.0	0.0	
1465364937050813	2.1144714	-1.2279205	9.573837	0.0	0.0	0.0	
1465364947030061	1.9684143	-0.897522	8.999237	0.0	0.0	0.0	
1465364957039826	1.7936401	-0.61979675	8.709534	0.0	0.0	0.0	
1465364967049592	1.6547852	-0.5024719	8.661652	0.0	0.0	0.0	
1465364977028840	1.4895782	-0.4186859	8.73587	0.0	0.0	0.0	
1465364987038605	1.2525482	-0.42585754	8.743057	0.0	0.0	0.0	
1465364997048371	1.0562286	-0.42585754	8.946564	0.0	0.0	0.0	
1465365007058137	0.9484863	-0.3971405	9.243439	0.0	0.0	0.0	
1465365017037385	0.9532776	-0.43544006	9.528351	0.0	0.0	0.0	
1465365027016633	1.1591797	-0.44981384	9.434982	0.0	0.0	0.0	
1465365037026398	1.4776154	-0.43544006	8.872345	0.0	0.0	0.0	
1465365047005646	1.7888489	-0.32052612	8.168442	0.0	0.0	0.0	
1465365056984895	1.9037781	-0.124191284	7.6297455	0.0	0.0	0.0	
1465365077004426	1.5733795	0.2373352	6.978531	0.0	0.0	0.0	
1465365077004426	1.5733795	0.2373352	6.978531	0.0	0.0	0.0	
1465365087014191	1.3626862	0.3929596	6.662491	0.0	0.0	0.0	
1465365096993439	1.2788849	0.55336	6.48053	0.0	0.0	0.0	
1465365107003205	1.3363495	0.6467438	6.3368835	0.0	0.0	0.0	
1465365116982453	1.4871826	0.6251831	6.3129425	0.0	0.0	0.0	
1465365126992219	1.6404114	0.66589355	6.4470215	0.0	0.0	0.0	
1465365137001984	1.7601318	0.7257538	6.7127686	0.0	0.0	0.0	
1465365156990998	1.8367462	1.0322113	7.5770874	0.0	0.0	0.0	
1465365156990998	1.8367462	1.0322113	7.5770874	0.0	0.0	0.0	
1465365166970246	1.7673035	1.142334	7.8260803	0.0	0.0	0.0	
1465365176980012	1.666748	1.1303711	8.0224	0.0	0.0	0.0	
1465365186989777	1.5805664	1.1567078	8.170837	0.0	0.0	0.0	
1465365196969025	1.4967651	1.1375427	8.383926	0.0	0.0	0.0	
1465365206978791	1.4225464	0.9603729	8.647293	0.0	0.0	0.0	
1465365216988557	1.4943695	0.6539154	8.819672	0.0	0.0	0.0	
1465365226967805	1.6021118	0.5270233	8.932205	0.0	0.0	0.0	
1465365236977570	1.6260529	0.5629425	9.171616	0.0	0.0	0.0	
1465365246956818	1.3794403	0.67308044	9.672012	0.0	0.0	0.0	
1465365256966584	2.1336212	0.68504333	9.729462	0.0	0.0	0.0	
1465365266976350	2.4065552	0.8167267	9.825241	0.0	0.0	0.0	
1465365276955598	2.1695404	1.1567078	10.256195	0.0	0.0	0.0	
1465365286965363	1.8295593	1.5230103	10.622498	0.0	0.0	0.0	
1465365296944611	1.508728	1.6020203	10.833191	0.0	0.0	0.0	
1465365306954377	1.2597351	1.3937225	10.979248	0.0	0.0	0.0	
1465365316964143	1.3363495	1.1351471	11.005569	0.0	0.0	0.0	
1465365326943391	1.8439178	0.96995544	10.972061	0.0	0.0	0.0	
1465365346932404	2.8016052	0.98431396	11.089371	0.0	0.0	0.0	
1465365346932404	2.8016052	0.98431396	11.089371	0.0	0.0	0.0	
1465365356942170	2.9524384	1.0705109	11.431747	0.0	0.0	0.0	
1465365366951936	2.8973694	1.082489	11.932129	0.0	0.0	0.0	
1465365376961701	2.7010498	1.02742	12.427734	0.0	0.0	0.0	
1465365386940949	2.5454254	0.91249084	12.86348	0.0	0.0	0.0	
1465365406929963	3.1463623	0.5270233	13.426117	0.0	0.0	0.0	
1465365406929963	3.1463623	0.5270233	13.426117	0.0	0.0	0.0	
1465365416939729	3.251709	0.3929596	13.509918	0.0	0.0	0.0	
1465365426949494	3.4671936	0.16549683	13.210632	0.0	0.0	0.0	
1465365436928742	3.3762054	0.084106445	12.865875	0.0	0.0	0.0	
1465365446938508	3.2253723	-0.006881714	12.375061	0.0	0.0	0.0	
1465365456917756	3.0721436	0.0027008057	11.912979	0.0	0.0	0.0	
1465365466897004	2.9165192	0.1511383	11.491592	0.0	0.0	0.0	
1465365476906770	2.6340027	0.256485	11.060638	0.0	0.0	0.0	
1465365486916535	2.3562775	0.34028625	10.557861	0.0	0.0	0.0	
1465365496895783	2.20784	0.4647827	10.021561	0.0	0.0	0.0	
1465365506905549	2.1120758	0.5749054	9.437378	0.0	0.0	0.0	
1465365516915314	1.9732056	0.71138	8.896286	0.0	0.0	0.0	
1465365526894563	1.9564514	0.9029236	8.661652	0.0	0.0	0.0	
1465365536873811	1.8439178	1.0753021	8.644897	0.0	0.0	0.0	
1465365546883576	1.6236572	1.2548676	8.642502	0.0	0.0	0.0	
1465365556893342	1.4680328	1.3817596	8.604187	0.0	0.0	0.0	
1465365566872590	1.2980499	1.4128876	8.582642	0.0	0.0	0.0	
1465365576882355	1.2621307	1.3769684	8.4557495	0.0	0.0	0.0	
1465365586861604	1.2621307	1.3769684	8.4557495	0.0	0.0	0.0	
1465365596871369	1.187912	1.3602142	8.381531	0.0	0.0	0.0	
1465365606881135	1.1065063	1.4224548	8.194778	0.0	0.0	0.0	
1465365616860383	1.2693176	1.6139984	7.9577637	0.0	0.0	0.0	
1465365626870148	1.3674774	1.9420013	7.6608734	0.0	0.0	0.0	
1465365636879914	1.1974945	2.1670532	7.383148	0.0	0.0	0.0	
1465365646859162	1.0610199	2.2388763	7.184433	0.0	0.0	0.0	
1465365666848176	0.812027	2.6027985	7.328079	0.0	0.0	0.0	
1465365666848176	0.812027	2.6027985	7.328079	0.0	0.0	0.0	
1465365676857941	1.5111237	2.6339264	7.742279	0.0	0.0	0.0	
1465365686837189	2.6890717	2.2436676	8.223511	0.0	0.0	0.0	
1465365696846955	3.0051117	2.229309	8.5108185	0.0	0.0	0.0	
1465365706826203	3.2684784	2.3346558	8.556305	0.0	0.0	0.0	
1465365766823762	3.943634	2.2556458	9.174011	0.0	0.0	0.0	
1465365766823762	3.943634	2.2556458	9.174011	0.0	0.0	0.0	
1465365766823762	3.943634	2.2556458	9.174011	0.0	0.0	0.0	
1465365766823762	3.943634	2.2556458	9.174011	0.0	0.0	0.0	
1465365766823762	3.943634	2.2556458	9.174011	0.0	0.0	0.0	
1465365766823762	3.943634	2.2556458	9.174011	0.0	0.0	0.0	
1465365776803010	3.9819489	2.0880432	9.439774	0.0	0.0	0.0	
1465365786812775	3.9891205	1.9515839	9.379913	0.0	0.0	0.0	
1465365796792023	4.1279907	1.865387	8.89389	0.0	0.0	0.0	
1465365806801789	4.444031	1.8534088	8.443787	0.0	0.0	0.0	
1465365816811555	4.709778	1.8558044	8.379135	0.0	0.0	0.0	
1465365826790803	4.9539948	1.8366547	8.491669	0.0	0.0	0.0	
1465365836800568	5.2269287	1.8917236	8.565887	0.0	0.0	0.0	
1465365846779816	5.3322754	1.944397	8.666443	0.0	0.0	0.0	
1465365856789582	5.334671	1.913269	8.597015	0.0	0.0	0.0	
1465365866768830	5.236511	1.9707336	8.4557495	0.0	0.0	0.0	
1465365876778596	5.0401764	2.11438	8.644897	0.0	0.0	0.0	
1465365886788361	4.8318787	2.102417	8.8268585	0.0	0.0	0.0	
1465365896767609	4.7480927	1.9467926	8.8029175	0.0	0.0	0.0	
1465365906777375	4.611618	1.676239	8.565887	0.0	0.0	0.0	
1465365916787141	4.8103333	1.5517426	8.2378845	0.0	0.0	0.0	
1465365926766389	5.2149506	1.3865509	8.010437	0.0	0.0	0.0	
1465365936776154	5.298752	1.3051453	8.412659	0.0	0.0	0.0	
1465365946755402	5.0760956	1.4392242	9.478073	0.0	0.0	0.0	
1465365956765168	4.568527	1.379364	10.339996	0.0	0.0	0.0	
1465365966744416	4.2070007	1.1734619	10.895447	0.0	0.0	0.0	
1465365986763947	3.816742	0.82151794	11.405411	0.0	0.0	0.0	
1465365986763947	3.816742	0.82151794	11.405411	0.0	0.0	0.0	
1465365996743195	4.029831	0.63716125	11.175568	0.0	0.0	0.0	
1465366016762727	3.8981476	0.3067627	9.731857	0.0	0.0	0.0	
1465366016762727	3.8981476	0.3067627	9.731857	0.0	0.0	0.0	
1465366026741975	3.912506	0.40971375	8.956146	0.0	0.0	0.0	
1465366046761506	3.8933563	0.62280273	7.7518616	0.0	0.0	0.0	
1465366046761506	3.8933563	0.62280273	7.7518616	0.0	0.0	0.0	
1465366056771271	3.7904053	0.6994171	7.505249	0.0	0.0	0.0	
1465366066750520	3.3905792	0.8239136	7.4860992	0.0	0.0	0.0	
1465366076760285	2.8566742	0.9532013	7.481308	0.0	0.0	0.0	
1465366096749299	2.899765	0.8095398	8.788544	0.0	0.0	0.0	
1465366096749299	2.899765	0.8095398	8.788544	0.0	0.0	0.0	
1465366106759064	2.9380646	0.4552002	8.19957	0.0	0.0	0.0	
1465366116768830	3.1655273	0.6419525	7.9649353	0.0	0.0	0.0	
1465366126748078	3.2325592	0.6922302	8.336044	0.0	0.0	0.0	
1465366136727326	2.8877869	0.7401123	8.115768	0.0	0.0	0.0	
1465366146737092	2.7848358	0.8286896	7.816498	0.0	0.0	0.0	
1465366156746857	2.4544373	0.91967773	7.5579224	0.0	0.0	0.0	
1465366166726105	2.152771	0.98191833	7.2921753	0.0	0.0	0.0	
1465366176735871	1.989975	1.0369873	7.038391	0.0	0.0	0.0	
1465366186715119	1.9061737	0.9675598	6.851639	0.0	0.0	0.0	
1465366196724885	2.0450287	0.8765869	6.693619	0.0	0.0	0.0	
1465366206704133	2.3754272	0.7808075	6.79657	0.0	0.0	0.0	
1465366216713898	2.6890717	0.6922302	6.923462	0.0	0.0	0.0	
1465366226723664	2.813568	0.7089844	7.088669	0.0	0.0	0.0	
1465366236702912	2.7944183	0.77841187	7.3687897	0.0	0.0	0.0	
1465366246712678	2.6459808	0.89334106	7.9146576	0.0	0.0	0.0	
1465366256691926	2.389801	1.063324	8.381531	0.0	0.0	0.0	
1465366266701691	2.20784	1.2668304	8.65686	0.0	0.0	0.0	
1465366276711457	2.0594025	1.4559784	8.75502	0.0	0.0	0.0	
1465366286690705	1.8989868	1.7193451	8.676025	0.0	0.0	0.0	
1465366296700471	1.6835175	2.047348	8.41745	0.0	0.0	0.0	
1465366306710236	1.5302887	2.284378	8.467728	0.0	0.0	0.0	
1465366316720002	1.3962097	2.217331	9.106979	0.0	0.0	0.0	
1465366326699250	0.38345337	1.5589294	8.960922	0.0	0.0	0.0	
1465366336678498	2.1791077	1.568512	10.591385	0.0	0.0	0.0	
1465366346688264	3.3474731	1.9563599	11.93692	0.0	0.0	0.0	
1465366356667512	2.6435852	1.8438416	10.5746155	0.0	0.0	0.0	
1465366366677277	3.3091736	1.9084778	9.614548	0.0	0.0	0.0	
1465366376687043	3.0290527	2.4806976	10.134094	0.0	0.0	0.0	
1465366386666291	1.8870239	2.7129364	11.041489	0.0	0.0	0.0	
1465366396676057	1.345932	2.5501251	11.889038	0.0	0.0	0.0	
1465366406655305	1.2741089	2.3968964	12.568985	0.0	0.0	0.0	
1465366416665070	1.5063324	2.3729553	12.839539	0.0	0.0	0.0	
1465366426674836	1.9253235	2.3274689	12.829956	0.0	0.0	0.0	
1465366436654084	2.1791077	2.3226776	12.832352	0.0	0.0	0.0	
1465366446663850	2.0594025	2.4735107	12.966431	0.0	0.0	0.0	
1465366456673615	1.7290039	2.7608185	13.248947	0.0	0.0	0.0	
1465366466652863	1.2884674	2.995453	13.404572	0.0	0.0	0.0	
1465366476662629	0.94369507	3.1654358	13.507523	0.0	0.0	0.0	
1465366486641877	0.73301697	3.2229004	13.67511	0.0	0.0	0.0	
1465366496651643	0.61569214	3.1247406	13.811584	0.0	0.0	0.0	
1465366506630891	0.4720459	2.9236298	13.703842	0.0	0.0	0.0	
1465366516640656	0.31163025	2.691391	13.627228	0.0	0.0	0.0	
1465366526650422	0.0602417	2.35141	13.311188	0.0	0.0	0.0	
1465366536629670	-0.26296997	2.059311	12.789261	0.0	0.0	0.0	
1465366546639436	-0.39944458	1.8294678	12.1236725	0.0	0.0	0.0	
1465366556649201	-0.37789917	1.5996246	11.22345	0.0	0.0	0.0	
1465366566658967	-0.2318573	1.458374	10.284927	0.0	0.0	0.0	
1465366576638215	-0.03552246	1.4320374	9.399063	0.0	0.0	0.0	
1465366596627229	0.017150879	1.4631653	8.249847	0.0	0.0	0.0	
1465366596627229	0.017150879	1.4631653	8.249847	0.0	0.0	0.0	
1465366606606477	-0.06665039	1.4487915	7.912262	0.0	0.0	0.0	
1465366626626008	-0.0594635	1.4799194	7.524414	0.0	0.0	0.0	
1465366626626008	-0.0594635	1.4799194	7.524414	0.0	0.0	0.0	
1465366636605256	0.03630066	1.5206146	7.2730103	0.0	0.0	0.0	
1465366656624787	-0.030731201	1.707367	7.0455627	0.0	0.0	0.0	
1465366656624787	-0.030731201	1.707367	7.0455627	0.0	0.0	0.0	
1465366666634553	-0.011581421	1.7983551	7.0168304	0.0	0.0	0.0	
1465366676613801	0.13446045	1.8534088	7.0288086	0.0	0.0	0.0	
1465366686623566	0.41937256	1.9156647	6.9761353	0.0	0.0	0.0	
1465366696602814	0.8455353	1.9324188	6.8612213	0.0	0.0	0.0	
1465366706612580	1.2238159	1.9252472	6.655319	0.0	0.0	0.0	
1465366716622346	1.3938141	2.0353699	6.449417	0.0	0.0	0.0	
1465366726601594	1.3028259	2.3011322	6.6409454	0.0	0.0	0.0	
1465366736611359	1.1519928	2.5716705	6.8109283	0.0	0.0	0.0	
1465366746590607	1.1855164	2.763214	6.7558746	0.0	0.0	0.0	
1465366756569855	1.3195953	2.8015137	6.7822113	0.0	0.0	0.0	
1465366766579621	1.4225464	2.7680054	7.067108	0.0	0.0	0.0	
1465366776589387	1.5781708	2.7536316	7.6297455	0.0	0.0	0.0	
1465366786568635	1.7864532	2.7177277	8.149292	0.0	0.0	0.0	
1465366796578400	1.9732056	2.7129364	8.51561	0.0	0.0	0.0	
1465366806557648	2.1096802	2.7225037	8.702362	0.0	0.0	0.0	
1465366816567414	2.152771	2.7584229	8.687988	0.0	0.0	0.0	
1465366826546662	2.121643	2.7536316	8.508423	0.0	0.0	0.0	
1465366836556428	2.0833435	2.7129364	8.513214	0.0	0.0	0.0	
1465366846566193	2.0402527	2.7081451	8.846008	0.0	0.0	0.0	
1465366856575959	1.9923553	2.7656097	9.181198	0.0	0.0	0.0	
1465366866585725	1.9468689	2.8805237	9.339218	0.0	0.0	0.0	
1465366876564973	2.0115204	2.9595337	9.351181	0.0	0.0	0.0	
1465366886544221	2.1384125	2.9547424	9.399063	0.0	0.0	0.0	
1465366896553986	2.219818	2.9355927	9.375122	0.0	0.0	0.0	
1465366906533234	2.2605133	2.902069	9.20993	0.0	0.0	0.0	
1465366916543000	2.1551666	2.9236298	9.0447235	0.0	0.0	0.0	
1465366926552766	1.9492645	2.9475708	9.015991	0.0	0.0	0.0	
1465366936562531	1.6954803	3.0529175	9.34639	0.0	0.0	0.0	
1465366946541779	1.4943695	3.0960083	9.988037	0.0	0.0	0.0	
1465366956551545	1.3028259	3.0265808	10.512375	0.0	0.0	0.0	
1465366966530793	1.2214355	2.8757324	11.077408	0.0	0.0	0.0	
1465366976510041	1.1831207	2.7584229	11.735809	0.0	0.0	0.0	
1465366986519807	1.029892	2.648285	12.391815	0.0	0.0	0.0	
1465366996529572	0.9939728	2.4519653	13.033463	0.0	0.0	0.0	
1465367006539338	1.156784	2.2317047	13.701447	0.0	0.0	0.0	
1465367016518586	1.3291626	2.0018616	14.268875	0.0	0.0	0.0	
1465367036538117	1.4919739	1.5804749	14.153946	0.0	0.0	0.0	
1465367036538117	1.4919739	1.5804749	14.153946	0.0	0.0	0.0	
1465367046517365	1.6236572	1.3841553	13.215424	0.0	0.0	0.0	
1465367056496613	1.7625122	1.1926117	11.994385	0.0	0.0	0.0	
1465367066506379	1.9253235	1.0369873	10.7901	0.0	0.0	0.0	
1465367076516145	2.0953064	0.97714233	9.736649	0.0	0.0	0.0	
1465367086525910	2.1719208	0.98431396	8.968109	0.0	0.0	0.0	
1465367096505158	2.0809479	1.0561523	8.527573	0.0	0.0	0.0	
1465367106514924	1.7840729	1.1327667	8.403076	0.0	0.0	0.0	
1465367116494172	1.3866272	1.1830444	8.556305	0.0	0.0	0.0	
1465367126503938	1.1855164	1.2572632	8.819672	0.0	0.0	0.0	
1465367136483186	1.0107422	1.2907715	9.037537	0.0	0.0	0.0	
1465367156472199	0.7282257	1.3721771	9.238663	0.0	0.0	0.0	
1465367156472199	0.7282257	1.3721771	9.238663	0.0	0.0	0.0	
1465367166481965	0.58695984	1.3266907	9.128525	0.0	0.0	0.0	
1465367176491730	0.64442444	1.2261353	8.800522	0.0	0.0	0.0	
1465367186501496	0.7976532	1.1543121	8.374344	0.0	0.0	0.0	
1465367196480744	1.0394745	1.1279755	7.8548126	0.0	0.0	0.0	
1465367206459992	1.2932587	1.1447296	7.3711853	0.0	0.0	0.0	
1465367216469758	1.4369049	1.1926117	6.844452	0.0	0.0	0.0	
1465367226479523	1.5183105	1.2644348	6.310547	0.0	0.0	0.0	
1465367236458771	1.4177551	1.410492	6.0567627	0.0	0.0	0.0	
1465367256478303	1.0562286	1.8007355	5.8388824	0.0	0.0	0.0	
1465367256478303	1.0562286	1.8007355	5.8388824	0.0	0.0	0.0	
1465367266488068	0.92214966	1.8917236	5.673691	0.0	0.0	0.0	
1465367276467316	0.919754	1.9539642	6.2746277	0.0	0.0	0.0	
1465367286446564	1.0155334	1.9539642	6.2746277	0.0	0.0	0.0	
1465367306435578	1.3602905	1.999466	7.6297455	0.0	0.0	0.0	
1465367306435578	1.3602905	1.999466	7.6297455	0.0	0.0	0.0	
1465367316445344	1.4728241	1.9707336	8.201965	0.0	0.0	0.0	
1465367336464875	1.3890228	2.078476	9.181198	0.0	0.0	0.0	
1465367336464875	1.3890228	2.078476	9.181198	0.0	0.0	0.0	
1465367346444123	1.2525482	2.2125397	9.339218	0.0	0.0	0.0	
1465367366433137	0.5630188	2.5237885	9.4254	0.0	0.0	0.0	
1465367366433137	0.5630188	2.5237885	9.4254	0.0	0.0	0.0	
1465367376412385	0.4073944	2.696167	9.461319	0.0	0.0	0.0	
1465367386422150	0.385849	2.8517914	9.370331	0.0	0.0	0.0	
1465367396431916	0.42416382	2.897293	9.15007	0.0	0.0	0.0	
1465367406441682	0.46006775	2.873352	9.049515	0.0	0.0	0.0	
1465367416420930	0.5319061	2.8326416	9.13092	0.0	0.0	0.0	
1465367426430695	0.5845642	2.6937866	9.487656	0.0	0.0	0.0	
1465367446389191	0.72343445	2.6147766	10.682358	0.0	0.0	0.0	
1465367446389191	0.72343445	2.6147766	10.682358	0.0	0.0	0.0	
1465367456398957	0.6013336	2.6865997	11.352737	0.0	0.0	0.0	
1465367466378205	0.5941467	2.8158875	11.8315735	0.0	0.0	0.0	
1465367476387971	0.5702057	3.0074158	12.039871	0.0	0.0	0.0	
1465367486397736	0.44570923	3.0696716	12.178741	0.0	0.0	0.0	
1465367496407502	0.39064026	3.079239	12.329575	0.0	0.0	0.0	
1465367506386750	0.385849	2.9308014	12.590546	0.0	0.0	0.0	
1465367516396516	0.42895508	2.782364	12.98558	0.0	0.0	0.0	
1465367526375764	0.64682007	2.6411133	13.555405	0.0	0.0	0.0	
1465367546395295	1.2621307	2.6458893	14.623215	0.0	0.0	0.0	
1465367546395295	1.2621307	2.6458893	14.623215	0.0	0.0	0.0	
1465367556374543	1.2310028	2.6315308	14.520264	0.0	0.0	0.0	
1465367566384309	0.9413147	2.485489	13.976776	0.0	0.0	0.0	
1465367576363557	0.79525757	2.2029724	13.205841	0.0	0.0	0.0	
1465367586373322	0.75935364	1.9013062	12.300842	0.0	0.0	0.0	
1465367596383088	0.7545624	1.6187897	11.3647	0.0	0.0	0.0	
1465367606362336	0.8742676	1.4463959	10.363937	0.0	0.0	0.0	
1465367616341584	0.95806885	1.3937225	9.437378	0.0	0.0	0.0	
1465367626351350	0.85272217	1.4392242	8.8316345	0.0	0.0	0.0	
1465367646370881	0.4935913	1.6475067	8.132538	0.0	0.0	0.0	
1465367646370881	0.4935913	1.6475067	8.132538	0.0	0.0	0.0	
1465367656350129	0.24459839	1.6499023	7.974518	0.0	0.0	0.0	
1465367666359895	-0.07144165	1.6187897	8.005646	0.0	0.0	0.0	
1465367676339143	-0.53352356	1.6666718	7.9888763	0.0	0.0	0.0	
1465367696328156	-1.574997	2.059311	8.144501	0.0	0.0	0.0	
1465367696328156	-1.574997	2.059311	8.144501	0.0	0.0	0.0	
1465367706337922	-2.1017303	2.3585968	8.166061	0.0	0.0	0.0	
1465367716347688	-2.266922	2.4830933	8.008041	0.0	0.0	0.0	
1465367726357453	-2.0251007	2.4112701	7.675247	0.0	0.0	0.0	
1465367736367219	-1.3906403	2.2915497	7.304138	0.0	0.0	0.0	
1465367746346467	-0.66760254	2.1048126	6.8779755	0.0	0.0	0.0	
1465367756325715	-0.10256958	1.8845367	6.4518127	0.0	0.0	0.0	
1465367766335480	0.3643036	1.6786346	6.061554	0.0	0.0	0.0	
1465367776345246	0.73301697	1.6283569	5.8341064	0.0	0.0	0.0	
1465367796303742	0.64442444	1.9946747	5.8436737	0.0	0.0	0.0	
1465367796303742	0.64442444	1.9946747	5.8436737	0.0	0.0	0.0	
1465367806313508	0.36669922	2.265213	6.0998535	0.0	0.0	0.0	
1465367816323273	-0.009185791	2.6027985	6.406311	0.0	0.0	0.0	
1465367826333039	-0.33718872	2.9140472	6.739105	0.0	0.0	0.0	
1465367846322053	-0.24861145	3.0289612	7.304138	0.0	0.0	0.0	
1465367846322053	-0.24861145	3.0289612	7.304138	0.0	0.0	0.0	
1465367856301301	0.03630066	2.964325	7.7518616	0.0	0.0	0.0	
1465367866311066	0.31881714	2.8877106	8.359985	0.0	0.0	0.0	
1465367876290314	0.64682007	2.8422241	8.711929	0.0	0.0	0.0	
1465367886300080	0.8670807	2.7895508	8.745453	0.0	0.0	0.0	
1465367906289094	1.0825653	2.9116516	8.829254	0.0	0.0	0.0	
1465367906289094	1.0825653	2.9116516	8.829254	0.0	0.0	0.0	
1465367916298859	0.9317322	2.9739075	9.224289	0.0	0.0	0.0	
1465367926278107	0.80244446	2.995453	10.055084	0.0	0.0	0.0	
1465367936287873	0.7832947	3.201355	10.976852	0.0	0.0	0.0	
1465367946297639	0.76412964	3.4647064	11.592163	0.0	0.0	0.0	
1465367956276887	0.76174927	3.601181	11.802841	0.0	0.0	0.0	
1465367966286652	0.7066803	3.6442719	11.95607	0.0	0.0	0.0	
1465367976265900	0.7473755	3.711319	11.987198	0.0	0.0	0.0	
1465367986275666	0.5797882	3.546112	11.807632	0.0	0.0	0.0	
1465367996285432	0.24220276	3.1079712	11.833969	0.0	0.0	0.0	
1465368006264680	0.009963989	2.7081451	12.52829	0.0	0.0	0.0	
1465368016274445	-0.282135	2.6865997	14.192261	0.0	0.0	0.0	
1465368026253693	-0.6987152	2.660263	16.198593	0.0	0.0	0.0	
1465368036263459	-1.033905	2.4591522	17.575272	0.0	0.0	0.0	
1465368046242707	-1.2158661	2.229309	18.02298	0.0	0.0	0.0	
1465368056252473	-1.3212128	1.9659424	17.283173	0.0	0.0	0.0	
1465368066262238	-1.3140259	1.568512	15.286407	0.0	0.0	0.0	
1465368076241486	-1.1248932	1.1950073	12.602509	0.0	0.0	0.0	
1465368086251252	-0.6484375	0.9579773	9.892273	0.0	0.0	0.0	
1465368096261018	-0.12171936	0.86460876	7.76622	0.0	0.0	0.0	
1465368106270783	0.31163025	0.86460876	6.418289	0.0	0.0	0.0	
1465368116250031	0.57499695	0.9100952	5.7407227	0.0	0.0	0.0	
1465368126259797	0.7090759	0.97953796	5.5252533	0.0	0.0	0.0	
1465368136239045	0.7138519	1.008255	5.6449585	0.0	0.0	0.0	
1465368146218293	0.5295105	1.0657196	6.0687256	0.0	0.0	0.0	
1465368156228059	0.16558838	1.2165527	6.6241913	0.0	0.0	0.0	
1465368166237824	-0.0881958	1.4392242	7.256256	0.0	0.0	0.0	
1465368176217072	-0.09298706	1.6116028	7.7518616	0.0	0.0	0.0	
1465368186226838	0.014755249	1.7456818	8.103806	0.0	0.0	0.0	
1465368196206086	0.16558838	1.8390503	8.352798	0.0	0.0	0.0	
1465368206215852	0.25416565	1.865387	8.386322	0.0	0.0	0.0	
1465368216225617	0.36909485	1.8222961	8.254639	0.0	0.0	0.0	
1465368226204865	0.6204834	1.7672272	8.051132	0.0	0.0	0.0	
1465368236214631	0.76174927	1.8318634	7.8595886	0.0	0.0	0.0	
1465368246193879	0.67555237	1.9755249	7.70636	0.0	0.0	0.0	
1465368256173127	0.43852234	2.1694489	7.6058044	0.0	0.0	0.0	
1465368266182893	0.07939148	2.454361	7.512436	0.0	0.0	0.0	
1465368276192658	-0.20791626	2.7320862	7.464554	0.0	0.0	0.0	
1465368286202424	-0.3635254	3.0026245	7.469345	0.0	0.0	0.0	
1465368296212189	-0.3922577	3.2181091	7.5555267	0.0	0.0	0.0	
1465368306221955	-0.17199707	3.3473969	7.524414	0.0	0.0	0.0	
1465368316201203	0.21826172	3.3306427	7.383148	0.0	0.0	0.0	
1465368326180451	0.5845642	3.1893768	7.5267944	0.0	0.0	0.0	
1465368336190217	0.9125824	2.995453	7.917053	0.0	0.0	0.0	
1465368346199982	1.2070618	2.8661652	8.410263	0.0	0.0	0.0	
1465368356179230	1.3914185	2.8350372	8.783752	0.0	0.0	0.0	
1465368366188996	1.6212616	2.873352	8.989655	0.0	0.0	0.0	
1465368376198762	1.6595612	2.8948975	9.020782	0.0	0.0	0.0	
1465368396187775	1.3938141	2.9786835	9.075851	0.0	0.0	0.0	
1465368396187775	1.3938141	2.9786835	9.075851	0.0	0.0	0.0	
1465368406167023	1.3890228	3.0552979	9.293716	0.0	0.0	0.0	
1465368416176789	1.3818359	3.1414948	9.394272	0.0	0.0	0.0	
1465368426186555	1.3052216	3.1726227	9.343994	0.0	0.0	0.0	
1465368436165803	1.2621307	3.1869812	9.446945	0.0	0.0	0.0	
1465368446145051	1.2453766	3.2157135	9.707916	0.0	0.0	0.0	
1465368456154816	1.1711578	3.2181091	9.892273	0.0	0.0	0.0	
1465368466164582	1.0945435	3.1558685	9.949738	0.0	0.0	0.0	
1465368476174348	0.95088196	3.067276	10.220276	0.0	0.0	0.0	
1465368486153596	0.9915924	3.0864258	10.562653	0.0	0.0	0.0	
1465368496132844	1.1280518	3.1390991	11.003189	0.0	0.0	0.0	
1465368506142609	1.1424255	3.2300873	11.410202	0.0	0.0	0.0	
1465368516152375	1.1280518	3.285141	11.577789	0.0	0.0	0.0	
1465368526131623	1.1950989	3.285141	11.53949	0.0	0.0	0.0	
1465368536141389	1.0753784	3.285141	11.599335	0.0	0.0	0.0	
1465368546151154	0.80244446	3.2468414	11.922562	0.0	0.0	0.0	
1465368556130402	0.48880005	3.1510773	12.358307	0.0	0.0	0.0	
1465368566140168	0.24220276	2.8134918	12.750946	0.0	0.0	0.0	
1465368576149934	0.16798401	2.265213	13.433304	0.0	0.0	0.0	
1465368586129182	0.18473816	1.6834259	14.24733	0.0	0.0	0.0	
1465368596108430	0.38105774	1.0944519	14.690247	0.0	0.0	0.0	
1465368616097443	0.8670807	0.038604736	13.253738	0.0	0.0	0.0	
1465368616097443	0.8670807	0.038604736	13.253738	0.0	0.0	0.0	
1465368626107209	0.9245453	-0.3109436	11.901001	0.0	0.0	0.0	
1465368636116975	0.88864136	-0.35403442	10.450119	0.0	0.0	0.0	
1465368646096223	0.8072357	-0.2199707	9.164429	0.0	0.0	0.0	
1465368656105988	0.78089905	-0.018844604	8.005646	0.0	0.0	0.0	
1465368666115754	0.73062134	0.23973083	7.287384	0.0	0.0	0.0	
1465368676095002	0.6085205	0.53900146	7.0599365	0.0	0.0	0.0	
1465368686104768	0.34036255	0.8526459	7.064728	0.0	0.0	0.0	
1465368696084016	0.06503296	1.1782532	7.1868286	0.0	0.0	0.0	
1465368706093781	-0.17678833	1.4440002	7.4310303	0.0	0.0	0.0	
1465368716073029	-0.282135	1.5828705	7.7231293	0.0	0.0	0.0	
1465368726082795	-0.14805603	1.6403351	7.9888763	0.0	0.0	0.0	
1465368736092561	0.19671631	1.6499023	8.415054	0.0	0.0	0.0	
1465368746071809	0.6564026	1.6068115	8.711929	0.0	0.0	0.0	
1465368756081574	1.0227051	1.5110474	8.635315	0.0	0.0	0.0	
1465368766060822	1.2980499	1.4679413	8.336044	0.0	0.0	0.0	
1465368776070588	1.4776154	1.4847107	8.058319	0.0	0.0	0.0	
1465368786080354	1.5254974	1.6403351	7.8979034	0.0	0.0	0.0	
1465368796090119	1.6260529	1.8558044	7.596237	0.0	0.0	0.0	
1465368806099885	1.7505493	2.01622	7.239502	0.0	0.0	0.0	
1465368816079133	1.8343506	2.1048126	6.952194	0.0	0.0	0.0	
1465368826058381	1.9803925	2.2197266	6.873184	0.0	0.0	0.0	
1465368836068146	2.1000977	2.3226776	6.693619	0.0	0.0	0.0	
1465368846047395	2.1120758	2.4759064	6.4877167	0.0	0.0	0.0	
1465368856057160	2.1671448	2.5980072	6.420685	0.0	0.0	0.0	
1465368866066926	2.1886902	2.794342	6.6337585	0.0	0.0	0.0	
1465368876046174	2.3131866	2.9906616	7.1557007	0.0	0.0	0.0	
1465368886025422	2.4640198	3.158249	7.950577	0.0	0.0	0.0	
1465368896035188	2.5741577	3.1055756	8.819672	0.0	0.0	0.0	
1465368906014436	2.7082214	2.9475708	9.34639	0.0	0.0	0.0	
1465368916024201	3.0075073	2.648285	9.394272	0.0	0.0	0.0	
1465368926033967	3.4049377	2.4974518	9.274567	0.0	0.0	0.0	
1465368936043732	3.5294342	2.5166016	9.202744	0.0	0.0	0.0	
1465368946022980	3.4480438	2.66745	9.047119	0.0	0.0	0.0	
1465368956032746	3.1320038	2.7344818	9.0447235	0.0	0.0	0.0	
1465368966011994	2.6196442	2.4328156	9.983246	0.0	0.0	0.0	
1465368976021760	3.3738098	3.0241852	9.679184	0.0	0.0	0.0	
1465368986031525	4.0513763	3.388092	9.049515	0.0	0.0	0.0	
1465368996010773	4.5038757	3.249237	8.884308	0.0	0.0	0.0	
1465369006020539	4.3458557	2.8996887	9.109375	0.0	0.0	0.0	
1465369016030305	3.6276093	2.4902802	9.372726	0.0	0.0	0.0	
1465369026009553	3.1774902	2.2508545	9.456528	0.0	0.0	0.0	
1465369036019318	3.2708588	2.3154907	9.418228	0.0	0.0	0.0	
1465369045998566	3.5222626	2.6530762	9.458923	0.0	0.0	0.0	
1465369056008332	3.5557709	2.981079	9.547501	0.0	0.0	0.0	
1465369065987580	3.0912933	3.4383698	10.0646515	0.0	0.0	0.0	
1465369075997346	1.9277191	4.0345306	11.230637	0.0	0.0	0.0	
1465369086007111	0.58695984	4.3745117	12.470825	0.0	0.0	0.0	
1465369096016877	-0.39465332	4.1063538	13.780457	0.0	0.0	0.0	
1465369105996125	-1.0195465	3.4575348	15.351059	0.0	0.0	0.0	
1465369116005891	-1.3834686	2.6530762	16.847427	0.0	0.0	0.0	
1465369125985139	-1.2589569	1.7767944	17.460342	0.0	0.0	0.0	
1465369135994904	-0.4497223	1.0705109	16.76123	0.0	0.0	0.0	
1465369145974152	0.5295105	0.6994171	14.929672	0.0	0.0	0.0	
1465369155983918	1.1831207	0.35464478	12.473221	0.0	0.0	0.0	
1465369165993684	1.4440918	0.06254578	9.911423	0.0	0.0	0.0	
1465369175972932	1.7266083	0.045791626	7.6105957	0.0	0.0	0.0	
1465369185982697	2.2293854	0.49111938	5.752701	0.0	0.0	0.0	
1465369195961945	2.3993835	1.1447296	4.8812103	0.0	0.0	0.0	
1465369205971711	1.9779968	1.5876617	4.7710724	0.0	0.0	0.0	
1465369215950959	1.3770599	1.7911682	5.082321	0.0	0.0	0.0	
1465369225960725	0.895813	1.913269	5.8101654	0.0	0.0	0.0	
1465369235970490	0.42655945	2.0521393	6.741501	0.0	0.0	0.0	
1465369245949738	-0.03552246	2.1335297	7.737488	0.0	0.0	0.0	
1465369255959504	-0.3802948	2.2915497	8.829254	0.0	0.0	0.0	
1465369265938752	-0.28453064	2.4495697	9.535538	0.0	0.0	0.0	
1465369275948518	0.40022278	2.4735107	9.389496	0.0	0.0	0.0	
1465369295968049	2.5549927	2.3897095	7.4525757	0.0	0.0	0.0	
1465369295968049	2.5549927	2.3897095	7.4525757	0.0	0.0	0.0	
1465369305947297	3.3881836	2.5189972	6.595459	0.0	0.0	0.0	
1465369325936311	3.3115692	2.854187	6.504471	0.0	0.0	0.0	
1465369325936311	3.3115692	2.854187	6.504471	0.0	0.0	0.0	
1465369335946076	2.5669708	2.9667206	7.1030273	0.0	0.0	0.0	
1465369355935090	2.1503754	2.8757324	8.400681	0.0	0.0	0.0	
1465369355935090	2.1503754	2.8757324	8.400681	0.0	0.0	0.0	
1465369365914338	2.705841	3.1390991	8.676025	0.0	0.0	0.0	
1465369375924104	2.8925781	3.1247406	8.5108185	0.0	0.0	0.0	
1465369385903352	3.0003204	3.0313568	7.8548126	0.0	0.0	0.0	
1465369395913117	2.8159637	3.2635956	7.1006317	0.0	0.0	0.0	
1465369415902131	2.3443146	3.9387665	6.880371	0.0	0.0	0.0	
1465369415902131	2.3443146	3.9387665	6.880371	0.0	0.0	0.0	
1465369425911896	2.1862946	4.4056396	7.3520203	0.0	0.0	0.0	
1465369435921662	2.2653046	4.707306	8.072678	0.0	0.0	0.0	
1465369455910676	2.4400787	4.530136	10.124512	0.0	0.0	0.0	
1465369455910676	2.4400787	4.530136	10.124512	0.0	0.0	0.0	
1465369465889924	2.5310516	4.209305	10.852341	0.0	0.0	0.0	
1465369475899689	2.729782	3.9148254	11.096558	0.0	0.0	0.0	
1465369485909455	3.088913	3.8070831	10.8116455	0.0	0.0	0.0	
1465369495888703	3.2565002	3.9243927	10.368713	0.0	0.0	0.0	
1465369505898469	3.3139648	4.1614227	10.033524	0.0	0.0	0.0	
1465369515908234	3.3570557	4.343384	9.813263	0.0	0.0	0.0	
1465369525887482	3.3139648	4.419998	9.698349	0.0	0.0	0.0	
1465369535866730	3.2373505	4.578018	9.719894	0.0	0.0	0.0	
1465369545876496	3.2780457	4.633087	9.705521	0.0	0.0	0.0	
1465369555855744	3.3139648	4.609146	9.607361	0.0	0.0	0.0	
1465369565865510	3.033844	4.5947723	9.626511	0.0	0.0	0.0	
1465369575875275	2.5861206	4.549286	9.758194	0.0	0.0	0.0	
1465369585885041	2.4640198	4.3888702	10.043106	0.0	0.0	0.0	
1465369595864289	2.4736023	4.214096	10.380692	0.0	0.0	0.0	
1465369605874055	2.36586	4.0297394	10.596176	0.0	0.0	0.0	
1465369615853303	2.2341766	3.9315796	10.536316	0.0	0.0	0.0	
1465369625863068	2.04982	3.8406067	10.256195	0.0	0.0	0.0	
1465369635842316	1.8702545	3.7328644	9.906631	0.0	0.0	0.0	
1465369645852082	1.4799957	3.6753998	9.691162	0.0	0.0	0.0	
1465369655861848	0.9772186	3.5556946	9.557083	0.0	0.0	0.0	
1465369665871613	0.6994934	3.3330383	9.561874	0.0	0.0	0.0	
1465369675881379	0.6085205	3.1175537	9.672012	0.0	0.0	0.0	
1465369685860627	0.7282257	2.8039093	10.0095825	0.0	0.0	0.0	
1465369695870393	0.96765137	2.4759064	10.442932	0.0	0.0	0.0	
1465369705849641	1.1472015	2.138321	10.615326	0.0	0.0	0.0	
1465369715828889	1.2836761	1.8677826	10.610535	0.0	0.0	0.0	
1465369725838654	1.2741089	1.7384949	10.751785	0.0	0.0	0.0	
1465369735817902	1.1232605	1.7480774	10.802063	0.0	0.0	0.0	
1465369745827668	0.8551178	1.944397	10.689545	0.0	0.0	0.0	
1465369755837434	0.45289612	2.2388763	10.526733	0.0	0.0	0.0	
1465369765816682	-0.013977051	2.50943	10.29689	0.0	0.0	0.0	
1465369785836213	-0.3012848	2.648285	9.236267	0.0	0.0	0.0	
1465369785836213	-0.3012848	2.648285	9.236267	0.0	0.0	0.0	
1465369795815461	-0.20791626	2.66745	8.625748	0.0	0.0	0.0	
1465369805825227	0.009963989	2.7727814	8.173233	0.0	0.0	0.0	
1465369815804475	0.24459839	2.8925018	7.814102	0.0	0.0	0.0	
1465369825814240	0.47683716	2.9786835	7.4837036	0.0	0.0	0.0	
1465369835824006	0.6276703	3.0098114	7.2849884	0.0	0.0	0.0	
1465369845803254	0.73062134	3.0768585	7.19162	0.0	0.0	0.0	
1465369855813020	0.9173584	3.0720673	7.074295	0.0	0.0	0.0	
1465369865792268	1.2405853	3.0648804	7.0120544	0.0	0.0	0.0	
1465369875802033	1.5757751	3.019394	7.088669	0.0	0.0	0.0	
1465369885781281	2.0210876	2.964325	7.170059	0.0	0.0	0.0	
1465369895791047	2.3467102	2.9260101	7.1796417	0.0	0.0	0.0	
1465369905800813	2.607666	2.873352	7.0168304	0.0	0.0	0.0	
1465369915810578	2.820755	2.8805237	6.940216	0.0	0.0	0.0	
1465369925789826	2.9189148	2.9499664	7.0240173	0.0	0.0	0.0	
1465369935799592	2.9524384	2.9978485	7.1006317	0.0	0.0	0.0	
1465369945778840	2.9356842	3.0624847	7.249069	0.0	0.0	0.0	
1465369955788605	2.8973694	3.1486816	7.3735657	0.0	0.0	0.0	
1465369965767854	2.8901825	3.1654358	7.354416	0.0	0.0	0.0	
1465369985787385	3.069748	3.0169983	7.141342	0.0	0.0	0.0	
1465369985787385	3.069748	3.0169983	7.141342	0.0	0.0	0.0	
1465369995766633	3.1846771	2.8948975	7.1389465	0.0	0.0	0.0	
1465370005776398	3.148758	2.7967377	7.366394	0.0	0.0	0.0	
1465370015755646	3.220581	2.7201233	7.8236847	0.0	0.0	0.0	
1465370025765412	3.4145203	2.6865997	8.134933	0.0	0.0	0.0	
1465370035775178	3.5868988	2.7919464	8.348007	0.0	0.0	0.0	
1465370045754426	3.725769	2.9212341	8.5898285	0.0	0.0	0.0	
1465370055764191	3.888565	2.981079	8.585037	0.0	0.0	0.0	
1465370065743439	4.017853	2.976303	8.580246	0.0	0.0	0.0	
1465370085762971	3.9149017	3.0960083	8.8867035	0.0	0.0	0.0	
1465370085762971	3.9149017	3.0960083	8.8867035	0.0	0.0	0.0	
1465370095772736	3.9795532	3.1271362	9.183594	0.0	0.0	0.0	
1465370105751984	3.9580078	3.0289612	9.628906	0.0	0.0	0.0	
1465370115731232	3.8382874	2.7919464	10.306473	0.0	0.0	0.0	
1465370125740998	3.6874542	2.6770172	11.221054	0.0	0.0	0.0	
1465370135720246	3.5725403	2.5788574	11.7765045	0.0	0.0	0.0	
1465370145730012	3.5342255	2.3945007	11.508362	0.0	0.0	0.0	
1465370155739777	3.6635132	2.2747955	10.667999	0.0	0.0	0.0	
1465370165719025	3.9651794	2.2029724	9.863541	0.0	0.0	0.0	
1465370175698273	4.1782684	2.1550903	9.423004	0.0	0.0	0.0	
1465370185708039	4.2405243	2.1335297	9.48526	0.0	0.0	0.0	
1465370195717805	4.3530426	2.1359253	10.126907	0.0	0.0	0.0	
1465370205727570	4.4392395	2.0808716	11.165985	0.0	0.0	0.0	
1465370215706818	4.228546	1.9324188	12.305634	0.0	0.0	0.0	
1465370225716584	3.74971	1.6379395	13.112473	0.0	0.0	0.0	
1465370235726350	3.35466	1.3650055	13.268097	0.0	0.0	0.0	
1465370245705598	3.1559448	1.1997986	12.916153	0.0	0.0	0.0	
1465370255684846	3.0482025	1.1255798	12.363083	0.0	0.0	0.0	
1465370265694611	3.014679	1.1591034	11.666382	0.0	0.0	0.0	
1465370285714143	2.6723175	1.276413	10.531525	0.0	0.0	0.0	
1465370285714143	2.6723175	1.276413	10.531525	0.0	0.0	0.0	
1465370295693391	2.2772675	1.434433	10.486038	0.0	0.0	0.0	
1465370305703156	1.9061737	1.6570892	10.5195465	0.0	0.0	0.0	
1465370315682404	1.7002716	1.6499023	10.328018	0.0	0.0	0.0	
1465370325692170	1.6332245	1.6475067	10.191544	0.0	0.0	0.0	
1465370335671418	1.7601318	1.8989105	10.131699	0.0	0.0	0.0	
1465370345681184	2.1024933	1.6379395	10.213089	0.0	0.0	0.0	
1465370355660432	2.1240387	1.3530273	10.244217	0.0	0.0	0.0	
1465370375679963	2.5406342	1.2309265	9.657639	0.0	0.0	0.0	
1465370375679963	2.5406342	1.2309265	9.657639	0.0	0.0	0.0	
1465370385659211	2.789627	1.1591034	9.056702	0.0	0.0	0.0	
1465370395668977	2.8638458	1.1638794	8.410263	0.0	0.0	0.0	
1465370405648225	2.748932	1.5206146	7.7207336	0.0	0.0	0.0	
1465370415657990	2.480774	1.9396057	7.251465	0.0	0.0	0.0	
1465370425667756	2.3467102	2.102417	7.043167	0.0	0.0	0.0	
1465370435647004	2.396988	2.1981812	6.978531	0.0	0.0	0.0	
1465370445656770	2.6459808	2.3849335	6.770233	0.0	0.0	0.0	
1465370455666535	2.6723175	3.0098114	5.3049774	0.0	0.0	0.0	
1465370465645783	2.729782	3.1750183	4.811783	0.0	0.0	0.0	
1465370475655549	3.0362396	3.2468414	4.5771484	0.0	0.0	0.0	
1465370485665314	2.5957031	2.6650543	6.5451813	0.0	0.0	0.0	
1465370495644563	2.748932	3.0098114	6.87558	0.0	0.0	0.0	
1465370505654328	3.27565	3.704132	7.148514	0.0	0.0	0.0	
1465370515633576	3.2708588	4.080017	7.421463	0.0	0.0	0.0	
1465370525643342	2.7537231	4.0728455	7.7159424	0.0	0.0	0.0	
1465370535622590	2.583725	3.8310242	7.8117065	0.0	0.0	0.0	
1465370545632355	3.0218658	3.3809204	8.194778	0.0	0.0	0.0	
1465370555611604	3.912506	3.1103668	8.960922	0.0	0.0	0.0	
1465370565621369	4.7839966	2.6171722	9.48526	0.0	0.0	0.0	
1465370575631135	4.7121735	2.126358	9.502014	0.0	0.0	0.0	
1465370585610383	3.9364471	2.4256287	9.494843	0.0	0.0	0.0	
1465370595620148	3.792801	2.7320862	9.138107	0.0	0.0	0.0	
1465370605599396	4.017853	2.8134918	8.539551	0.0	0.0	0.0	
1465370615609162	4.1375732	3.1654358	8.369568	0.0	0.0	0.0	
1465370625588410	4.3650208	3.7161102	8.685593	0.0	0.0	0.0	
1465370635598176	4.647537	3.8717346	9.176407	0.0	0.0	0.0	
1465370645607941	4.702591	3.608368	9.521179	0.0	0.0	0.0	
1465370655587189	4.412903	3.067276	9.595398	0.0	0.0	0.0	
1465370665596955	4.0561676	2.8493958	9.46611	0.0	0.0	0.0	
1465370685585969	3.440857	3.0624847	9.818054	0.0	0.0	0.0	
1465370685585969	3.440857	3.0624847	9.818054	0.0	0.0	0.0	
1465370705605500	2.1719208	3.8717346	11.537094	0.0	0.0	0.0	
1465370705605500	2.1719208	3.8717346	11.537094	0.0	0.0	0.0	
1465370715615266	1.563797	3.5389404	11.893829	0.0	0.0	0.0	
1465370725594514	1.4991608	2.7440643	11.948898	0.0	0.0	0.0	
1465370735573762	1.9492645	2.3298645	11.649612	0.0	0.0	0.0	
1465370745583527	2.4065552	2.3418274	11.197113	0.0	0.0	0.0	
1465370755593293	2.5645752	2.2556458	10.5195465	0.0	0.0	0.0	
1465370765572541	2.7608948	2.1646576	9.432587	0.0	0.0	0.0	
1465370775582307	2.8566742	2.6626587	7.45018	0.0	0.0	0.0	
1465370785561555	3.1415863	2.6626587	7.45018	0.0	0.0	0.0	
1465370795571320	3.3115692	3.2683868	7.220337	0.0	0.0	0.0	
1465370805550568	3.4049377	3.6107635	7.064728	0.0	0.0	0.0	
1465370815529816	4.3530426	2.648285	7.002472	0.0	0.0	0.0	
1465370825539582	3.5150757	2.581253	7.4789124	0.0	0.0	0.0	
1465370835549348	2.3682556	2.8661652	7.9936676	0.0	0.0	0.0	
1465370845559113	1.9612427	2.8230743	8.362381	0.0	0.0	0.0	
1465370855538361	1.8870239	2.7608185	8.8316345	0.0	0.0	0.0	
1465370865517609	1.8343506	2.66745	9.36795	0.0	0.0	0.0	
1465370875527375	2.0785522	2.5740662	9.3918915	0.0	0.0	0.0	
1465370885506623	2.3730469	2.289154	8.7478485	0.0	0.0	0.0	
1465370895516389	2.1791077	1.944397	7.814102	0.0	0.0	0.0	
1465370905526154	2.4185333	1.834259	7.057541	0.0	0.0	0.0	
1465370915505402	2.748932	1.8534088	6.7271423	0.0	0.0	0.0	
1465370925515168	2.2269897	1.731308	6.6576996	0.0	0.0	0.0	
1465370935524934	1.8439178	1.7121582	6.7008057	0.0	0.0	0.0	
1465370945504182	2.1551666	1.7815857	7.0288086	0.0	0.0	0.0	
1465370955513947	2.3754272	1.7384949	7.3687897	0.0	0.0	0.0	
1465370965493195	2.7273865	1.7193451	7.541168	0.0	0.0	0.0	
1465370975502961	3.4624023	1.8318634	8.051132	0.0	0.0	0.0	
1465370985482209	4.0082855	2.0042572	8.501236	0.0	0.0	0.0	
1465370995491975	3.6252136	1.9898834	8.474899	0.0	0.0	0.0	
1465371005501740	3.9604034	1.7600403	8.7478485	0.0	0.0	0.0	
1465371015480988	4.1471405	1.6259613	8.561096	0.0	0.0	0.0	
1465371025490754	4.290802	1.3697815	8.273788	0.0	0.0	0.0	
1465371035470002	4.252487	1.1950073	8.223511	0.0	0.0	0.0	
1465371045479768	3.9412384	1.0250244	8.139725	0.0	0.0	0.0	
1465371055489533	4.0274353	0.9029236	8.08226	0.0	0.0	0.0	
1465371065468781	4.029831	0.91249084	7.7781982	0.0	0.0	0.0	
1465371085457795	3.8023834	1.0010834	7.067108	0.0	0.0	0.0	
1465371085457795	3.8023834	1.0010834	7.067108	0.0	0.0	0.0	
1465371095467561	3.9316711	0.8526459	7.1796417	0.0	0.0	0.0	
1465371105446809	4.0513763	0.6754608	7.256256	0.0	0.0	0.0	
1465371115456574	3.9939117	0.51745605	7.421463	0.0	0.0	0.0	
1465371125466340	3.4480438	0.28761292	7.445404	0.0	0.0	0.0	
1465371135445588	4.2931976	0.045791626	7.8787537	0.0	0.0	0.0	
1465371145455354	13.640152	0.5605469	11.948898	0.0	0.0	0.0	
1465371155465119	17.705505	1.9060822	14.22818	0.0	0.0	0.0	
1465371165444367	5.6100006	1.2931671	11.290482	0.0	0.0	0.0	
1465371175454133	0.67555237	-0.030822754	10.493225	0.0	0.0	0.0	
1465371185433381	2.3059998	-0.44981384	14.015091	0.0	0.0	0.0	
1465371195443146	2.7944183	-0.63894653	15.003891	0.0	0.0	0.0	
1465371205452912	1.7816772	-0.9573822	15.054169	0.0	0.0	0.0	
1465371215432160	0.7354126	-1.1201782	14.891373	0.0	0.0	0.0	
1465371225441926	0.39543152	-1.0076599	14.347885	0.0	0.0	0.0	
1465371235451691	0.98680115	-0.80415344	13.035858	0.0	0.0	0.0	
1465371255471223	2.626831	-0.4593811	10.031143	0.0	0.0	0.0	
1465371255471223	2.626831	-0.4593811	10.031143	0.0	0.0	0.0	
1465371265450471	3.3163605	-0.3516388	8.848404	0.0	0.0	0.0	
1465371275460236	3.112854	-0.5312042	8.132538	0.0	0.0	0.0	
1465371285439484	2.7944183	-0.9573822	8.261826	0.0	0.0	0.0	
1465371295418732	2.710617	-1.3883362	8.5108185	0.0	0.0	0.0	
1465371305428498	2.8159637	-1.3500214	8.764603	0.0	0.0	0.0	
1465371315438264	2.468811	-1.3859406	9.221893	0.0	0.0	0.0	
1465371325448029	2.159958	-1.4601593	9.693558	0.0	0.0	0.0	
1465371335427277	1.7912445	-1.2638397	10.232254	0.0	0.0	0.0	
1465371345437043	1.7960358	-1.3021393	10.418991	0.0	0.0	0.0	
1465371355416291	1.9660187	-1.4984741	10.275345	0.0	0.0	0.0	
1465371365426057	1.9205322	-1.5463562	9.91861	0.0	0.0	0.0	
1465371375405305	1.7577362	-1.2614441	9.432587	0.0	0.0	0.0	
1465371385415070	2.1024933	-1.0220184	8.81488	0.0	0.0	0.0	
1465371405434602	2.3610687	-0.9789276	7.495682	0.0	0.0	0.0	
1465371405434602	2.3610687	-0.9789276	7.495682	0.0	0.0	0.0	
1465371415413850	2.219818	-0.7155609	7.3520203	0.0	0.0	0.0	
1465371435402863	2.6890717	-0.38276672	7.1317596	0.0	0.0	0.0	
1465371435402863	2.6890717	-0.38276672	7.1317596	0.0	0.0	0.0	
1465371445382111	2.7704773	-0.35882568	6.9737396	0.0	0.0	0.0	
1465371455361359	3.1894684	-0.40431213	6.7510834	0.0	0.0	0.0	
1465371465371125	3.35466	-0.61021423	6.746292	0.0	0.0	0.0	
1465371475380891	3.3331146	-0.7227478	7.01445	0.0	0.0	0.0	
1465371485390656	3.3738098	-0.69641113	7.493286	0.0	0.0	0.0	
1465371495400422	3.2588959	-0.69880676	7.996063	0.0	0.0	0.0	
1465371505379670	3.1703033	-0.6509247	8.290558	0.0	0.0	0.0	
1465371515389436	3.124817	-0.58148193	8.410263	0.0	0.0	0.0	
1465371525368684	3.1703033	-0.5958557	8.364777	0.0	0.0	0.0	
1465371535378449	3.2636871	-0.6293793	8.3767395	0.0	0.0	0.0	
1465371545388215	3.2852325	-0.6652832	8.561096	0.0	0.0	0.0	
1465371555367463	3.1320038	-0.67726135	8.757416	0.0	0.0	0.0	
1465371565377229	2.844696	-0.5288086	8.996841	0.0	0.0	0.0	
1465371575386994	2.7537231	-0.40670776	9.231476	0.0	0.0	0.0	
1465371585366242	2.8734283	-0.2822113	9.303299	0.0	0.0	0.0	
1465371605355256	2.954834	-0.32530212	9.190765	0.0	0.0	0.0	
1465371605355256	2.954834	-0.32530212	9.190765	0.0	0.0	0.0	
1465371615334504	3.4839478	-0.23912048	9.269775	0.0	0.0	0.0	
1465371625344270	3.4073334	-0.030822754	9.597794	0.0	0.0	0.0	
1465371635354035	3.2612915	0.15353394	10.110153	0.0	0.0	0.0	
1465371655373566	2.6340027	0.81433105	11.436539	0.0	0.0	0.0	
1465371655373566	2.6340027	0.81433105	11.436539	0.0	0.0	0.0	
1465371665352814	2.4257202	0.9364319	12.102127	0.0	0.0	0.0	
1465371675332063	2.5119019	0.86460876	12.190704	0.0	0.0	0.0	
1465371685341828	2.7824554	0.73532104	11.865097	0.0	0.0	0.0	
1465371695351594	3.1631317	0.6180115	11.766937	0.0	0.0	0.0	
1465371705330842	3.5845032	0.59407043	12.030289	0.0	0.0	0.0	
1465371715340607	3.7185822	0.7760315	12.715042	0.0	0.0	0.0	
1465371725319855	3.5964813	1.1638794	13.265701	0.0	0.0	0.0	
1465371735329621	3.124817	1.6834259	13.720596	0.0	0.0	0.0	
1465371755318635	1.9756012	2.2005768	14.151566	0.0	0.0	0.0	
1465371755318635	1.9756012	2.2005768	14.151566	0.0	0.0	0.0	
1465371765328400	1.6763306	2.0114288	13.397385	0.0	0.0	0.0	
1465371775338166	1.6140747	1.7049713	12.346329	0.0	0.0	0.0	
1465371785317414	1.8702545	1.4272461	11.158813	0.0	0.0	0.0	
1465371795327180	1.879837	1.2285309	10.260986	0.0	0.0	0.0	
1465371815316193	1.7266083	1.1758575	9.935364	0.0	0.0	0.0	
1465371815316193	1.7266083	1.1758575	9.935364	0.0	0.0	0.0	
1465371825295441	1.266922	1.2788086	10.213089	0.0	0.0	0.0	
1465371835305207	1.0466461	1.4655609	10.505188	0.0	0.0	0.0	
1465371845314973	0.76652527	1.5517426	10.299286	0.0	0.0	0.0	
1465371865303986	0.8766632	1.3602142	9.451736	0.0	0.0	0.0	
1465371865303986	0.8766632	1.3602142	9.451736	0.0	0.0	0.0	
1465371875283234	1.0418701	1.2812042	8.853195	0.0	0.0	0.0	
1465371885293000	1.1807251	1.1567078	8.386322	0.0	0.0	0.0	
1465371895302766	1.1927032	1.082489	8.053528	0.0	0.0	0.0	
1465371915261262	1.3674774	0.96276855	6.87558	0.0	0.0	0.0	
1465371915261262	1.3674774	0.96276855	6.87558	0.0	0.0	0.0	
1465371925271027	1.4967651	0.8598175	6.5739136	0.0	0.0	0.0	
1465371945260041	1.6452026	0.7089844	6.6840363	0.0	0.0	0.0	
1465371945260041	1.6452026	0.7089844	6.6840363	0.0	0.0	0.0	
1465371955269807	1.7385712	0.6132202	6.5930634	0.0	0.0	0.0	
1465371975258820	2.0713654	0.4958954	6.1908417	0.0	0.0	0.0	
1465371975258820	2.0713654	0.4958954	6.1908417	0.0	0.0	0.0	
1465371985268586	2.3059998	0.44084167	6.071121	0.0	0.0	0.0	
1465371995278352	2.2700958	0.5318146	6.28421	0.0	0.0	0.0	
1465372005288117	2.413742	0.67785645	6.681656	0.0	0.0	0.0	
1465372015267365	2.741745	0.77363586	6.9497986	0.0	0.0	0.0	
1465372025277131	2.8806152	0.8598175	7.1892242	0.0	0.0	0.0	
1465372035256379	3.026657	0.9603729	7.5555267	0.0	0.0	0.0	
1465372055245393	3.1224213	1.1375427	8.331253	0.0	0.0	0.0	
1465372055245393	3.1224213	1.1375427	8.331253	0.0	0.0	0.0	
1465372065255158	3.0386353	1.2668304	8.822067	0.0	0.0	0.0	
1465372075264924	3.0984802	1.3602142	9.171616	0.0	0.0	0.0	
1465372085244172	3.2804413	1.3841553	9.2578125	0.0	0.0	0.0	
1465372095223420	3.4360657	1.3075409	9.36795	0.0	0.0	0.0	
1465372115212434	3.6539307	1.1710663	9.379913	0.0	0.0	0.0	
1465372115212434	3.6539307	1.1710663	9.379913	0.0	0.0	0.0	
1465372125222199	3.8574524	1.0537567	9.434982	0.0	0.0	0.0	
1465372135231965	3.9891205	1.1136017	9.434982	0.0	0.0	0.0	
1465372145241730	4.0034943	1.1231842	9.628906	0.0	0.0	0.0	
1465372165200227	4.2141876	1.1543121	10.21788	0.0	0.0	0.0	
1465372165200227	4.2141876	1.1543121	10.21788	0.0	0.0	0.0	
1465372175179475	4.16391	1.1327667	10.591385	0.0	0.0	0.0	
1465372185189240	4.0729218	1.2524719	10.871506	0.0	0.0	0.0	
1465372195199006	3.9220886	1.3458405	11.328796	0.0	0.0	0.0	
1465372215188020	3.9939117	1.4152832	11.805237	0.0	0.0	0.0	
1465372215188020	3.9939117	1.4152832	11.805237	0.0	0.0	0.0	
1465372225167268	4.1160126	1.4392242	11.577789	0.0	0.0	0.0	
1465372235177033	4.1375732	1.5110474	11.355133	0.0	0.0	0.0	
1465372245186799	4.1279907	1.6235657	11.189926	0.0	0.0	0.0	
1465372255166047	4.0849	1.7935638	11.405411	0.0	0.0	0.0	
1465372265175813	3.833496	1.9276428	11.91777	0.0	0.0	0.0	
1465372275155061	3.093689	2.1095886	12.707855	0.0	0.0	0.0	
1465372285164826	2.3036041	2.2508545	13.41893	0.0	0.0	0.0	
1465372295174592	1.9373016	2.0641022	13.299225	0.0	0.0	0.0	
1465372315163605	2.2269897	1.4128876	11.493988	0.0	0.0	0.0	
1465372315163605	2.2269897	1.4128876	11.493988	0.0	0.0	0.0	
1465372325173371	2.5310516	1.0322113	10.521942	0.0	0.0	0.0	
1465372335152619	2.686676	0.7832031	9.913818	0.0	0.0	0.0	
1465372345162385	2.578949	0.7329254	9.695953	0.0	0.0	0.0	
1465372355141633	2.3059998	0.86221313	9.7677765	0.0	0.0	0.0	
1465372365151398	2.1743164	0.99150085	9.944946	0.0	0.0	0.0	
1465372375161164	2.0234833	1.0393829	9.9257965	0.0	0.0	0.0	
1465372385170930	1.9540558	1.0585327	9.762985	0.0	0.0	0.0	
1465372395180695	1.9373016	1.0202332	9.655243	0.0	0.0	0.0	
1465372405159943	1.7792816	1.008255	9.50441	0.0	0.0	0.0	
1465372415139191	1.5661926	1.0513611	9.581024	0.0	0.0	0.0	
1465372425148957	1.266922	1.1734619	9.487656	0.0	0.0	0.0	
1465372435158723	1.1208801	1.2428894	9.241043	0.0	0.0	0.0	
1465372445168488	1.0466461	1.2476807	8.81488	0.0	0.0	0.0	
1465372455147736	1.1112976	1.1591034	8.280975	0.0	0.0	0.0	
1465372465126984	1.2884674	0.9747467	7.615387	0.0	0.0	0.0	
1465372475136750	1.4895782	0.76405334	7.0168304	0.0	0.0	0.0	
1465372485146516	1.6308441	0.61561584	6.547577	0.0	0.0	0.0	
1465372495125764	1.7050629	0.577301	6.322525	0.0	0.0	0.0	
1465372505135529	1.7074585	0.57250977	6.2530823	0.0	0.0	0.0	
1465372515114777	1.7720947	0.6515198	6.2530823	0.0	0.0	0.0	
1465372525124543	1.7984314	0.6922302	6.478134	0.0	0.0	0.0	
1465372535134309	1.7505493	0.7329254	6.789383	0.0	0.0	0.0	
1465372545144074	1.6858978	0.83348083	7.146118	0.0	0.0	0.0	
1465372565102570	1.6356201	1.0250244	7.5938416	0.0	0.0	0.0	
1465372565102570	1.6356201	1.0250244	7.5938416	0.0	0.0	0.0	
1465372575112336	1.6164703	1.1279755	7.86438	0.0	0.0	0.0	
1465372585122102	1.5542297	1.221344	8.048737	0.0	0.0	0.0	
1465372595101350	1.5302887	1.3123322	8.060715	0.0	0.0	0.0	
1465372615120881	1.7098389	1.458374	7.9266357	0.0	0.0	0.0	
1465372615120881	1.7098389	1.458374	7.9266357	0.0	0.0	0.0	
1465372625100129	1.8941956	1.458374	7.900299	0.0	0.0	0.0	
1465372635109895	2.0282745	1.4871063	7.996063	0.0	0.0	0.0	
1465372645119660	2.1432037	1.5804749	8.2187195	0.0	0.0	0.0	
1465372665108674	2.341919	1.7815857	8.958542	0.0	0.0	0.0	
1465372665108674	2.341919	1.7815857	8.958542	0.0	0.0	0.0	
1465372675087922	2.420929	1.9587555	9.4158325	0.0	0.0	0.0	
1465372685097688	2.4616241	2.083252	9.894669	0.0	0.0	0.0	
1465372695107453	2.559784	2.1359253	10.253799	0.0	0.0	0.0	
1465372705086701	2.7010498	2.1718445	10.529129	0.0	0.0	0.0	
1465372715117564	2.8830109	2.1048126	10.775726	0.0	0.0	0.0	
1465372725096812	3.2565002	2.0329742	10.94812	0.0	0.0	0.0	
1465372735076060	3.6132355	2.0664978	11.197113	0.0	0.0	0.0	
1465372745085826	3.7329407	2.2771912	11.594543	0.0	0.0	0.0	
1465372765105357	3.4145203	2.7967377	13.031067	0.0	0.0	0.0	
1465372765105357	3.4145203	2.7967377	13.031067	0.0	0.0	0.0	
1465372775084605	3.0482025	3.1055756	13.916931	0.0	0.0	0.0	
1465372785094370	2.6244354	3.4168243	14.683075	0.0	0.0	0.0	
1465372795073618	2.1671448	3.5963898	15.0134735	0.0	0.0	0.0	
1465372815062632	1.7984314	3.280365	13.845093	0.0	0.0	0.0	
1465372815062632	1.7984314	3.280365	13.845093	0.0	0.0	0.0	
1465372825072398	1.9732056	2.9140472	12.825165	0.0	0.0	0.0	
1465372835082163	2.1144714	2.5860443	11.948898	0.0	0.0	0.0	
1465372845061411	2.037857	2.3346558	11.177963	0.0	0.0	0.0	
1465372865080943	1.7888489	2.181427	10.349564	0.0	0.0	0.0	
1465372865080943	1.7888489	2.181427	10.349564	0.0	0.0	0.0	
1465372875090708	1.5997162	2.1957855	10.028748	0.0	0.0	0.0	
1465372885069956	1.4225464	2.2508545	9.729462	0.0	0.0	0.0	
1465372895079722	1.3124084	2.3274689	9.4206085	0.0	0.0	0.0	
1465372915038218	1.1232605	2.3897095	8.932205	0.0	0.0	0.0	
1465372915038218	1.1232605	2.3897095	8.932205	0.0	0.0	0.0	
1465372925017466	1.0658112	2.392105	8.695175	0.0	0.0	0.0	
1465372935027232	1.0418701	2.296341	8.3767395	0.0	0.0	0.0	
1465372945036997	1.1136932	2.1431122	7.94339	0.0	0.0	0.0	
1465372965026011	1.1160889	1.865387	6.93544	0.0	0.0	0.0	
1465372965026011	1.1160889	1.865387	6.93544	0.0	0.0	0.0	
1465372975035777	1.0394745	1.8749695	6.46138	0.0	0.0	0.0	
1465372985045542	0.9772186	1.8773499	6.14534	0.0	0.0	0.0	
1465372995055308	0.9772186	1.8222961	5.80777	0.0	0.0	0.0	
1465373005034556	1.0993195	1.695404	5.4390564	0.0	0.0	0.0	
1465373015044322	1.2932587	1.489502	5.0727386	0.0	0.0	0.0	
1465373025023570	1.563797	1.2476807	4.804596	0.0	0.0	0.0	
1465373035002818	1.721817	1.0537567	4.9362793	0.0	0.0	0.0	
1465373045012583	1.7912445	0.9675598	5.484543	0.0	0.0	0.0	
1465373065001597	1.721817	1.063324	6.784607	0.0	0.0	0.0	
1465373065001597	1.721817	1.063324	6.784607	0.0	0.0	0.0	
1465373075011363	1.7720947	1.1255798	7.3520203	0.0	0.0	0.0	
1465373085021128	1.9061737	1.1159973	7.792557	0.0	0.0	0.0	
1465373095000376	2.0761566	1.1447296	8.065491	0.0	0.0	0.0	
1465373114989390	2.3945923	1.3650055	8.276184	0.0	0.0	0.0	
1465373114989390	2.3945923	1.3650055	8.276184	0.0	0.0	0.0	
1465373124999156	2.5334473	1.5182343	8.295334	0.0	0.0	0.0	
1465373135008921	2.7369537	1.7025757	8.316895	0.0	0.0	0.0	
1465373144988169	2.820755	1.8677826	8.415054	0.0	0.0	0.0	
1465373154997935	2.8782196	2.0664978	8.601791	0.0	0.0	0.0	
1465373164977183	2.954834	2.2676086	8.860367	0.0	0.0	0.0	
1465373174986949	2.9117432	2.4328156	9.128525	0.0	0.0	0.0	
1465373184996714	3.0410156	2.5166016	9.470886	0.0	0.0	0.0	
1465373194975962	3.1583405	2.5118256	9.868332	0.0	0.0	0.0	
1465373214964976	3.3666382	2.3346558	10.751785	0.0	0.0	0.0	
1465373214964976	3.3666382	2.3346558	10.751785	0.0	0.0	0.0	
1465373224974742	3.3570557	2.3035278	11.185135	0.0	0.0	0.0	
1465373234984507	3.3211517	2.3035278	11.616104	0.0	0.0	0.0	
1465373244963755	3.3211517	2.3154907	11.965652	0.0	0.0	0.0	
1465373264983286	3.3163605	2.2484589	12.243378	0.0	0.0	0.0	
1465373264983286	3.3163605	2.2484589	12.243378	0.0	0.0	0.0	
1465373274962535	3.519867	2.157486	12.231415	0.0	0.0	0.0	
1465373284972300	3.543808	2.1215668	12.288864	0.0	0.0	0.0	
1465373294982066	3.500702	2.1981812	12.446884	0.0	0.0	0.0	
1465373314940562	3.7951965	2.5166016	13.057404	0.0	0.0	0.0	
1465373314940562	3.7951965	2.5166016	13.057404	0.0	0.0	0.0	
1465373324950327	3.5725403	2.691391	13.330353	0.0	0.0	0.0	
1465373334929576	3.1846771	2.9475708	13.423721	0.0	0.0	0.0	
1465373344939341	2.5645752	3.1654358	13.378235	0.0	0.0	0.0	
1465373354949107	1.9085693	3.1414948	13.062195	0.0	0.0	0.0	
1465373364928355	1.6021118	2.7895508	12.269714	0.0	0.0	0.0	
1465373374907603	1.4464874	2.2005768	11.156418	0.0	0.0	0.0	
1465373384917368	1.3507233	1.568512	10.052689	0.0	0.0	0.0	
1465373394927134	1.4177551	0.91967773	9.145279	0.0	0.0	0.0	
1465373404936900	1.6069031	0.34985352	8.508423	0.0	0.0	0.0	
1465373414916148	1.5566101	-0.035614014	8.295334	0.0	0.0	0.0	
1465373424925913	1.1855164	-0.27262878	8.472519	0.0	0.0	0.0	
1465373434935679	0.8862457	-0.31573486	8.958542	0.0	0.0	0.0	
1465373444914927	0.46965027	-0.23912048	9.559479	0.0	0.0	0.0	
1465373454924693	0.012359619	-0.06674194	10.148453	0.0	0.0	0.0	
1465373464934458	-0.36592102	0.11282349	10.481247	0.0	0.0	0.0	
1465373474944224	-0.4593048	0.21339417	10.457306	0.0	0.0	0.0	
1465373484923472	-0.44013977	0.25408936	10.131699	0.0	0.0	0.0	
1465373494902720	-0.36114502	0.2995758	9.770172	0.0	0.0	0.0	
1465373504912486	-0.3156433	0.40252686	9.329636	0.0	0.0	0.0	
1465373514922251	-0.12411499	0.51026917	8.728699	0.0	0.0	0.0	
1465373524932017	0.1799469	0.5749054	7.998459	0.0	0.0	0.0	
1465373534911265	0.4720459	0.56773376	7.488495	0.0	0.0	0.0	
1465373544890513	0.75935364	0.52941895	7.122177	0.0	0.0	0.0	
1465373554900279	0.9556732	0.47434998	6.7989655	0.0	0.0	0.0	
1465373564879527	1.1591797	0.42407227	6.55954	0.0	0.0	0.0	
1465373574889292	1.2884674	0.41210938	6.3919525	0.0	0.0	0.0	
1465373584899058	1.4369049	0.36662292	6.3249054	0.0	0.0	0.0	
1465373594878306	1.5159149	0.35224915	6.38237	0.0	0.0	0.0	
1465373604888072	1.6356201	0.32351685	6.564331	0.0	0.0	0.0	
1465373614867320	1.7673035	0.31155396	6.8540344	0.0	0.0	0.0	
1465373624877085	1.7601318	0.29478455	7.160492	0.0	0.0	0.0	
1465373634856333	1.7337952	0.32112122	7.5770874	0.0	0.0	0.0	
1465373644866099	1.642807	0.3929596	7.996063	0.0	0.0	0.0	
1465373654875865	1.5015564	0.5413971	8.35759	0.0	0.0	0.0	
1465373664885630	1.4201508	0.6347656	8.575455	0.0	0.0	0.0	
1465373674864878	1.4033813	0.74490356	8.568283	0.0	0.0	0.0	
1465373684874644	1.4728241	0.7951813	8.364777	0.0	0.0	0.0	
1465373694884410	1.5757751	0.8263092	8.055923	0.0	0.0	0.0	
1465373704863658	1.6499939	0.8670044	7.761429	0.0	0.0	0.0	
1465373714842906	1.7840729	0.9268646	7.517227	0.0	0.0	0.0	
1465373724852671	1.9444733	0.9436188	7.323288	0.0	0.0	0.0	
1465373734862437	2.0665894	0.9651642	7.2179565	0.0	0.0	0.0	
1465373744841685	2.1647491	1.0178375	7.2179565	0.0	0.0	0.0	
1465373754851451	2.28685	1.0345917	7.2466736	0.0	0.0	0.0	
1465373764830699	2.4233246	1.0154419	7.3568115	0.0	0.0	0.0	
1465373774840464	2.6124573	0.9723511	7.5459595	0.0	0.0	0.0	
1465373794829478	2.9261017	0.8670044	8.508423	0.0	0.0	0.0	
1465373794829478	2.9261017	0.8670044	8.508423	0.0	0.0	0.0	
1465373804839243	2.899765	0.924469	9.147675	0.0	0.0	0.0	
1465373814849009	2.705841	1.0944519	9.731857	0.0	0.0	0.0	
1465373824828257	2.6675262	1.2548676	10.117325	0.0	0.0	0.0	
1465373834838023	2.8063965	1.3266907	10.158035	0.0	0.0	0.0	
1465373844847788	2.8638458	1.3745728	10.0646515	0.0	0.0	0.0	
1465373854827036	2.899765	1.4463959	10.016769	0.0	0.0	0.0	
1465373864806285	2.8638458	1.5613251	10.102966	0.0	0.0	0.0	
1465373874816050	2.8925781	1.7265167	10.181976	0.0	0.0	0.0	
1465373884795298	2.9284973	1.8366547	10.244217	0.0	0.0	0.0	
1465373894805064	3.2612915	1.7169495	10.258591	0.0	0.0	0.0	
1465373904814829	3.6994324	1.6307526	10.263382	0.0	0.0	0.0	
1465373914794077	3.8550568	1.8079224	10.481247	0.0	0.0	0.0	
1465373934783091	3.9867249	2.1550903	11.256973	0.0	0.0	0.0	
1465373934783091	3.9867249	2.1550903	11.256973	0.0	0.0	0.0	
1465373944792857	4.388962	2.157486	11.604126	0.0	0.0	0.0	
1465373954802622	5.104828	2.1215668	11.735809	0.0	0.0	0.0	
1465373964781870	5.3442383	2.3490143	11.963257	0.0	0.0	0.0	
1465373974791636	5.0234222	2.9116516	12.516312	0.0	0.0	0.0	
1465373984770884	4.4200897	3.2683868	13.897766	0.0	0.0	0.0	
1465373994780650	3.4001465	3.5485077	15.181061	0.0	0.0	0.0	
1465374004759898	2.1192474	4.0273438	15.918472	0.0	0.0	0.0	
1465374014739146	1.2549438	4.226074	15.796371	0.0	0.0	0.0	
1465374024748911	1.0849609	4.0417175	14.738144	0.0	0.0	0.0	
1465374034758677	1.3914185	3.467102	13.122055	0.0	0.0	0.0	
1465374044768443	2.0474243	2.672226	11.477234	0.0	0.0	0.0	
1465374054747691	2.7034454	1.9611511	10.201126	0.0	0.0	0.0	
1465374064757456	3.033844	1.5780792	9.339218	0.0	0.0	0.0	
1465374074767222	2.9667969	1.5349884	8.829254	0.0	0.0	0.0	
1465374084776988	2.7369537	1.6092072	8.642502	0.0	0.0	0.0	
1465374094756236	2.5621796	1.6259613	8.49884	0.0	0.0	0.0	
1465374104735484	2.6675262	1.5014648	8.192383	0.0	0.0	0.0	
1465374114745249	2.978775	1.276413	7.68721	0.0	0.0	0.0	
1465374124755015	3.306778	1.0441742	7.153305	0.0	0.0	0.0	
1465374134734263	3.59169	0.8861542	6.69841	0.0	0.0	0.0	
1465374144744029	3.7401276	0.8813629	6.557144	0.0	0.0	0.0	
1465374154753794	3.6898499	1.0130463	6.7630463	0.0	0.0	0.0	
1465374164763560	3.579712	1.1950073	7.1150055	0.0	0.0	0.0	
1465374184722056	3.3953705	1.5661163	7.2418976	0.0	0.0	0.0	
1465374184722056	3.3953705	1.5661163	7.2418976	0.0	0.0	0.0	
1465374194731822	3.4312744	1.5948486	6.952194	0.0	0.0	0.0	
1465374204741587	3.6515503	1.5110474	6.4901123	0.0	0.0	0.0	
1465374214720835	3.8215332	1.2931671	6.1980133	0.0	0.0	0.0	
1465374224730601	3.92688	1.1040344	6.181259	0.0	0.0	0.0	
1465374234740367	3.9556122	0.9268646	6.389557	0.0	0.0	0.0	
1465374244719615	3.8909607	0.80236816	6.746292	0.0	0.0	0.0	
1465374254729380	3.8909607	0.69462585	7.148514	0.0	0.0	0.0	
1465374264708628	3.8191376	0.58688354	7.6680603	0.0	0.0	0.0	
1465374284728160	3.7640686	0.46717834	9.05191	0.0	0.0	0.0	
1465374284728160	3.7640686	0.46717834	9.05191	0.0	0.0	0.0	
1465374294707408	3.7592773	0.4839325	9.68158	0.0	0.0	0.0	
1465374304717173	3.6754913	0.6611023	10.31604	0.0	0.0	0.0	
1465374314696421	3.5078888	0.83587646	10.895447	0.0	0.0	0.0	
1465374324706187	3.3642426	1.1207886	11.36232	0.0	0.0	0.0	
1465374334715952	3.3929749	1.4320374	11.498779	0.0	0.0	0.0	
1465374344695201	3.3905792	1.6834259	11.496384	0.0	0.0	0.0	
1465374364684214	3.3211517	2.0258026	11.221054	0.0	0.0	0.0	
1465374364684214	3.3211517	2.0258026	11.221054	0.0	0.0	0.0	
1465374384673228	3.574936	2.2341003	11.060638	0.0	0.0	0.0	
1465374384673228	3.574936	2.2341003	11.060638	0.0	0.0	0.0	
1465374404692759	3.0673523	2.4926605	11.891434	0.0	0.0	0.0	
1465374404692759	3.0673523	2.4926605	11.891434	0.0	0.0	0.0	
1465374414672007	2.6675262	2.6291351	12.545044	0.0	0.0	0.0	
1465374424681773	2.1144714	2.7057495	13.078949	0.0	0.0	0.0	
1465374434661021	1.6356201	2.5956116	13.308792	0.0	0.0	0.0	
1465374444670786	1.3052216	2.3705597	13.270493	0.0	0.0	0.0	
