# OpenSignals Text File Format
# {"internal sensors":{"sensor":["xMagUnc","yMagUnc","zMagUnc","xBias","yBias","zBias"],"device name":"internal sensors","column":["nSeq","xMagUnc","yMagUnc","zMagUnc","xBias","yBias","zBias"],"sync interval":2,"time":"19:01:34","comments":"","keywords":"","device connection":"internal sensors","channels":[0,1,2,3,4,5],"date":"2020-07-28","mode":0,"digital IO":[],"firmware version":0,"device":"android","position":0,"sampling rate":100,"label":["xMagUnc","yMagUnc","zMagUnc","xBias","yBias","zBias"],"resolution":[1,1,1,1,1,1],"special":[{},{},{},{},{},{}],"sleeve color":["UNKNOWN","UNKNOWN","UNKNOWN","UNKNOWN","UNKNOWN","UNKNOWN"]}}
# EndOfHeader
1465354425592308	-41.09955	23.699951	-226.95007	-19.473267	53.7735	-210.44464	
1465354445393657	-41.85028	24.60022	-227.54974	-19.473267	53.7735	-210.44464	
1465354465525193	-41.09955	24.450684	-228.30048	-19.473267	53.7735	-210.44464	
1465354486149622	-40.800476	24.899292	-226.80054	-19.473267	53.7735	-210.44464	
1465354505802942	-41.25061	25.950623	-228.14941	-19.473267	53.7735	-210.44464	
1465354566197229	-40.649414	25.79956	-229.64935	-19.473267	53.7735	-210.44464	
1465354606388880	-39.59961	26.400757	-229.94995	-19.473267	53.7735	-210.44464	
1465354687046839	-39.300537	26.100159	-230.99976	-19.473267	53.7735	-210.44464	
1465354727513147	-37.8006	25.950623	-229.49982	-19.473267	53.7735	-210.44464	
1465354807926965	-39.450073	26.249695	-230.85022	-19.473267	53.7735	-210.44464	
1465354888371301	-40.19928	27.2995	-229.49982	-19.473267	53.7735	-210.44464	
1465354948887659	-39.149475	27.2995	-228.14941	-19.473267	53.7735	-210.44464	
1465355029759241	-41.85028	28.349304	-228.45001	-19.473267	53.7735	-210.44464	
1465355089878870	-41.700745	24.749756	-229.04968	-19.473267	53.7735	-210.44464	
1465355089878870	-41.700745	24.749756	-229.04968	-19.473267	53.7735	-210.44464	
1465355089878870	-41.700745	24.749756	-229.04968	-19.473267	53.7735	-210.44464	
1465355089878870	-41.700745	24.749756	-229.04968	-19.473267	53.7735	-210.44464	
1465355089878870	-41.700745	24.749756	-229.04968	-19.473267	53.7735	-210.44464	
1465355089878870	-41.700745	24.749756	-229.04968	-19.473267	53.7735	-210.44464	
1465355089878870	-41.700745	24.749756	-229.04968	-19.473267	53.7735	-210.44464	
1465355089878870	-41.700745	24.749756	-229.04968	-19.473267	53.7735	-210.44464	
1465355089878870	-41.700745	24.749756	-229.04968	-19.473267	53.7735	-210.44464	
1465355089878870	-41.700745	24.749756	-229.04968	-19.473267	53.7735	-210.44464	
1465355089878870	-41.700745	24.749756	-229.04968	-19.473267	53.7735	-210.44464	
1465355089878870	-41.700745	24.749756	-229.04968	-19.473267	53.7735	-210.44464	
1465355089878870	-41.700745	24.749756	-229.04968	-19.473267	53.7735	-210.44464	
1465355089878870	-41.700745	24.749756	-229.04968	-19.473267	53.7735	-210.44464	
1465355089878870	-41.700745	24.749756	-229.04968	-19.473267	53.7735	-210.44464	
1465355089878870	-41.700745	24.749756	-229.04968	-19.473267	53.7735	-210.44464	
1465355089878870	-41.700745	24.749756	-229.04968	-19.473267	53.7735	-210.44464	
1465355089878870	-41.700745	24.749756	-229.04968	-19.473267	53.7735	-210.44464	
1465355089878870	-41.700745	24.749756	-229.04968	-19.473267	53.7735	-210.44464	
1465355089878870	-41.700745	24.749756	-229.04968	-19.473267	53.7735	-210.44464	
1465355089878870	-41.700745	24.749756	-229.04968	-19.473267	53.7735	-210.44464	
1465355132572962	-40.649414	26.100159	-230.09949	-19.473267	53.7735	-210.44464	
1465355151890589	-40.35034	27.450562	-227.99988	-19.473267	53.7735	-210.44464	
1465355151890589	-40.35034	27.450562	-227.99988	-19.473267	53.7735	-210.44464	
1465355172062708	-40.800476	26.550293	-228.14941	-19.473267	53.7735	-210.44464	
1465355192021204	-38.99994	28.799438	-232.04956	-19.473267	53.7735	-210.44464	
1465355232060266	-42.900085	28.050232	-229.20074	-19.473267	53.7735	-210.44464	
1465355232060266	-42.900085	28.050232	-229.20074	-19.473267	53.7735	-210.44464	
1465355252018762	-42.44995	28.500366	-229.64935	-19.473267	53.7735	-210.44464	
1465355271916223	-42.44995	28.799438	-230.70068	-19.473267	53.7735	-210.44464	
1465355291813684	-43.800354	28.799438	-230.40009	-19.473267	53.7735	-210.44464	
1465355311772180	-43.04962	30.599976	-229.35028	-19.473267	53.7735	-210.44464	
1465355332035852	-43.499756	31.64978	-229.64935	-19.473267	53.7735	-210.44464	
1465355351872278	-42.75055	30.900574	-231.44989	-19.473267	53.7735	-210.44464	
1465355371861292	-44.099426	32.55005	-229.35028	-19.473267	53.7735	-210.44464	
1465355392033411	-44.400024	31.05011	-230.85022	-19.473267	53.7735	-210.44464	
1465355412144495	-44.999695	30.749512	-229.49982	-19.473267	53.7735	-210.44464	
1465355432438684	-44.099426	31.199646	-227.99988	-19.473267	53.7735	-210.44464	
1465355452458215	-45.599365	32.24945	-228.75061	-19.473267	53.7735	-210.44464	
1465355472569299	-45.300293	31.350708	-230.25055	-19.473267	53.7735	-210.44464	
1465355492741419	-45.899963	33.599854	-227.99988	-19.473267	53.7735	-210.44464	
1465355512852503	-45.899963	33.599854	-228.75061	-19.473267	53.7735	-210.44464	
1465355533421350	-48.449707	34.199524	-228.14941	-19.473267	53.7735	-210.44464	
1465355553166223	-47.250366	33.299255	-228.75061	-19.473267	53.7735	-210.44464	
1465355573307825	-46.800232	34.500122	-230.85022	-19.473267	53.7735	-210.44464	
1465355593449426	-47.399902	35.850525	-230.54962	-19.473267	53.7735	-210.44464	
1465355613560510	-46.949768	34.350586	-230.40009	-19.473267	53.7735	-210.44464	
1465355634007288	-47.399902	35.549927	-230.54962	-19.473267	53.7735	-210.44464	
1465355694126917	-47.54944	38.40027	-229.04968	-19.473267	53.7735	-210.44464	
1465355735081506	-48.449707	38.549805	-230.25055	-19.473267	53.7735	-210.44464	
1465355754582239	-47.850037	39.300537	-230.85022	-19.473267	53.7735	-210.44464	
1465355754582239	-47.850037	39.300537	-230.85022	-19.473267	53.7735	-210.44464	
1465355754582239	-47.850037	39.300537	-230.85022	-19.473267	53.7735	-210.44464	
1465355754582239	-47.850037	39.300537	-230.85022	-19.473267	53.7735	-210.44464	
1465355774723840	-48.89984	41.700745	-229.49982	-19.473267	53.7735	-210.44464	
1465355794834924	-48.599243	41.09955	-229.35028	-19.473267	53.7735	-210.44464	
1465355814976526	-50.849915	43.04962	-230.85022	-19.473267	53.7735	-210.44464	
1465355835545374	-49.349976	43.499756	-229.04968	-19.473267	53.7735	-210.44464	
1465355855290247	-50.250244	44.400024	-228.45001	-19.473267	53.7735	-210.44464	
1465355875401331	-50.250244	46.0495	-229.20074	-19.473267	53.7735	-210.44464	
1465355895542932	-49.349976	49.049377	-228.75061	-19.473267	53.7735	-210.44464	
1465355915684534	-52.65045	48.89984	-229.20074	-19.473267	53.7735	-210.44464	
1465355936528040	-51.150513	46.650696	-229.35028	-19.473267	53.7735	-210.44464	
1465355955967737	-51.150513	47.7005	-229.35028	-19.473267	53.7735	-210.44464	
1465355976109339	-50.100708	48.750305	-229.35028	-19.473267	53.7735	-210.44464	
1465355996281458	-51.150513	47.250366	-228.75061	-19.473267	53.7735	-210.44464	
1465356016392542	-50.549316	47.850037	-230.54962	-19.473267	53.7735	-210.44464	
1465356037022424	-51.600647	46.800232	-229.49982	-19.473267	53.7735	-210.44464	
1465356056706262	-52.49939	46.350098	-228.30048	-19.473267	53.7735	-210.44464	
1465356076817346	-50.849915	47.099304	-227.09961	-19.473267	53.7735	-210.44464	
1465356096989465	-51.449585	46.949768	-228.75061	-19.473267	53.7735	-210.44464	
1465356117131067	-50.849915	46.499634	-229.20074	-19.473267	53.7735	-210.44464	
1465356138096643	-51.750183	46.650696	-227.99988	-19.473267	53.7735	-210.44464	
1465356157414270	-52.200317	46.350098	-229.64935	-19.473267	53.7735	-210.44464	
1465356177525354	-52.200317	48.30017	-229.35028	-19.473267	53.7735	-210.44464	
1465356197697473	-52.65045	47.54944	-228.14941	-19.473267	53.7735	-210.44464	
1465356217839075	-51.750183	47.7005	-229.04968	-19.473267	53.7735	-210.44464	
1465356237858606	-52.49939	46.350098	-230.99976	-19.473267	53.7735	-210.44464	
1465356258091760	-52.200317	46.650696	-229.35028	-19.473267	53.7735	-210.44464	
1465356278263880	-52.200317	46.650696	-230.99976	-19.473267	53.7735	-210.44464	
1465356298405481	-50.250244	46.0495	-231.59943	-19.473267	53.7735	-210.44464	
1465356318516565	-50.549316	45.750427	-232.94983	-19.473267	53.7735	-210.44464	
1465356338841272	-51.150513	45.599365	-232.04956	-19.473267	53.7735	-210.44464	
1465356358830286	-49.650574	43.94989	-230.99976	-19.473267	53.7735	-210.44464	
1465356378880335	-50.250244	46.0495	-233.25043	-19.473267	53.7735	-210.44464	
1465356399082971	-50.849915	44.400024	-234.5993	-19.473267	53.7735	-210.44464	
1465356419224573	-50.70038	44.85016	-232.4997	-19.473267	53.7735	-210.44464	
1465356439366174	-51.150513	45.300293	-235.80017	-19.473267	53.7735	-210.44464	
1465356459507776	-49.49951	45.150757	-232.20062	-19.473267	53.7735	-210.44464	
1465356479649378	-50.549316	41.999817	-234.30023	-19.473267	53.7735	-210.44464	
1465356499821497	-48.30017	40.800476	-235.2005	-19.473267	53.7735	-210.44464	
1465356521366907	-49.650574	39.149475	-233.09937	-19.473267	53.7735	-210.44464	
1465356541966272	-49.20044	37.950134	-232.94983	-19.473267	53.7735	-210.44464	
1465356561528040	-47.399902	37.950134	-236.70044	-19.473267	53.7735	-210.44464	
1465356581547571	-46.0495	36.90033	-235.35004	-19.473267	53.7735	-210.44464	
1465356601536585	-46.20056	36.00006	-236.54938	-19.473267	53.7735	-210.44464	
1465356621647669	-44.54956	33.90045	-236.84998	-19.473267	53.7735	-210.44464	
1465356641636682	-43.499756	33.599854	-238.65051	-19.473267	53.7735	-210.44464	
1465356661625696	-42.300415	34.500122	-236.70044	-19.473267	53.7735	-210.44464	
1465356681614710	-39.300537	32.24945	-239.99939	-19.473267	53.7735	-210.44464	
1465356701634241	-38.40027	30.000305	-240.15045	-19.473267	53.7735	-210.44464	
1465356721501184	-37.350464	31.05011	-240.44952	-19.473267	53.7735	-210.44464	
1465356741642786	-38.09967	32.099915	-239.84985	-19.473267	53.7735	-210.44464	
1465356761631799	-39.59961	30.599976	-241.3498	-19.473267	53.7735	-210.44464	
1465356781773401	-38.250732	29.249573	-241.65039	-19.473267	53.7735	-210.44464	
1465356801915003	-36.30066	30.749512	-240.89966	-19.473267	53.7735	-210.44464	
1465356822056604	-36.450195	30.599976	-241.3498	-19.473267	53.7735	-210.44464	
1465356842198206	-37.8006	29.400635	-240.89966	-19.473267	53.7735	-210.44464	
1465356862370325	-36.450195	29.249573	-240.29999	-19.473267	53.7735	-210.44464	
1465356882511926	-35.099792	28.500366	-239.99939	-19.473267	53.7735	-210.44464	
1465356902623010	-34.049988	28.199768	-238.20038	-19.473267	53.7735	-210.44464	
1465356922795130	-35.850525	26.849365	-238.65051	-19.473267	53.7735	-210.44464	
1465356943333460	-33.299255	24.899292	-239.10065	-19.473267	53.7735	-210.44464	
1465356963047815	-33.000183	24.00055	-237.89978	-19.473267	53.7735	-210.44464	
1465356983189417	-31.64978	25.050354	-238.94958	-19.473267	53.7735	-210.44464	
1465357003361536	-32.699585	25.349426	-239.99939	-19.473267	53.7735	-210.44464	
1465357023472620	-31.199646	22.799683	-239.39972	-19.473267	53.7735	-210.44464	
1465357043888880	-31.950378	23.699951	-239.70032	-19.473267	53.7735	-210.44464	
1465357063755823	-30.599976	23.699951	-238.94958	-19.473267	53.7735	-210.44464	
1465357083897424	-30.599976	22.650146	-237.60071	-19.473267	53.7735	-210.44464	
1465357104069544	-30.299377	22.349548	-236.84998	-19.473267	53.7735	-210.44464	
1465357124180628	-31.350708	22.050476	-238.20038	-19.473267	53.7735	-210.44464	
1465357144993616	-30.299377	22.650146	-236.84998	-19.473267	53.7735	-210.44464	
1465357164494348	-30.45044	21.899414	-236.70044	-19.473267	53.7735	-210.44464	
1465357184635950	-31.350708	24.00055	-236.84998	-19.473267	53.7735	-210.44464	
1465357204777551	-29.55017	23.699951	-239.25018	-19.473267	53.7735	-210.44464	
1465357224919153	-30.45044	23.849487	-240.89966	-19.473267	53.7735	-210.44464	
1465357245518518	-30.900574	24.749756	-239.70032	-19.473267	53.7735	-210.44464	
1465357265171839	-32.24945	24.899292	-239.84985	-19.473267	53.7735	-210.44464	
1465357285313440	-30.900574	25.79956	-239.70032	-19.473267	53.7735	-210.44464	
1465357305485559	-31.500244	26.550293	-240.15045	-19.473267	53.7735	-210.44464	
1465357325596643	-31.350708	28.799438	-238.20038	-19.473267	53.7735	-210.44464	
1465357346592737	-32.400513	27.149963	-241.94946	-19.473267	53.7735	-210.44464	
1465357365910364	-31.64978	25.050354	-240.60059	-19.473267	53.7735	-210.44464	
1465357386021448	-30.149841	27.000427	-239.84985	-19.473267	53.7735	-210.44464	
1465357406193567	-31.199646	24.60022	-239.84985	-19.473267	53.7735	-210.44464	
1465357426335169	-29.699707	25.19989	-239.84985	-19.473267	53.7735	-210.44464	
1465357446354700	-29.100037	26.550293	-240.44952	-19.473267	53.7735	-210.44464	
1465357466587854	-32.699585	26.100159	-238.20038	-19.473267	53.7735	-210.44464	
1465357486759973	-31.64978	25.79956	-239.25018	-19.473267	53.7735	-210.44464	
1465357506871057	-30.599976	23.399353	-238.94958	-19.473267	53.7735	-210.44464	
1465357527012659	-30.45044	24.150085	-238.49945	-19.473267	53.7735	-210.44464	
1465357547337366	-31.64978	22.650146	-237.89978	-19.473267	53.7735	-210.44464	
1465357567326380	-29.249573	24.450684	-237.30011	-19.473267	53.7735	-210.44464	
1465357587437464	-29.699707	23.249817	-236.39984	-19.473267	53.7735	-210.44464	
1465357607579065	-29.699707	24.150085	-238.49945	-19.473267	53.7735	-210.44464	
1465357627751184	-28.349304	23.849487	-236.39984	-19.473267	53.7735	-210.44464	
1465357647892786	-28.500366	24.00055	-238.20038	-19.473267	53.7735	-210.44464	
1465357668003870	-30.900574	23.699951	-236.54938	-19.473267	53.7735	-210.44464	
1465357688145471	-31.350708	24.00055	-237.60071	-19.473267	53.7735	-210.44464	
1465357708317590	-30.749512	25.650024	-238.49945	-19.473267	53.7735	-210.44464	
1465357728428674	-31.350708	26.100159	-238.65051	-19.473267	53.7735	-210.44464	
1465357749028040	-31.350708	28.500366	-238.94958	-19.473267	53.7735	-210.44464	
1465357768711878	-30.749512	29.699707	-241.49933	-19.473267	53.7735	-210.44464	
1465357788883997	-33.000183	29.249573	-241.94946	-19.473267	53.7735	-210.44464	
1465357808995081	-31.64978	30.599976	-241.05072	-19.473267	53.7735	-210.44464	
1465357829136682	-31.64978	30.900574	-242.7002	-19.473267	53.7735	-210.44464	
1465357849583460	-33.450317	33.299255	-242.7002	-19.473267	53.7735	-210.44464	
1465357869450403	-34.950256	33.450317	-242.25006	-19.473267	53.7735	-210.44464	
1465357891117883	-36.00006	33.74939	-240.44952	-19.473267	53.7735	-210.44464	
1465357911137415	-37.049866	34.500122	-239.39972	-19.473267	53.7735	-210.44464	
1465357931156946	-38.250732	34.950256	-239.99939	-19.473267	53.7735	-210.44464	
1465357951329065	-38.549805	34.64966	-238.94958	-19.473267	53.7735	-210.44464	
1465357971165491	-38.250732	33.299255	-239.25018	-19.473267	53.7735	-210.44464	
1465357991154505	-39.300537	31.64978	-237.60071	-19.473267	53.7735	-210.44464	
1465358011143518	-37.1994	33.299255	-238.94958	-19.473267	53.7735	-210.44464	
1465358031163049	-37.049866	32.099915	-238.49945	-19.473267	53.7735	-210.44464	
1465358051152063	-39.149475	30.45044	-238.49945	-19.473267	53.7735	-210.44464	
1465358071171594	-37.8006	31.350708	-237.75024	-19.473267	53.7735	-210.44464	
1465358091130090	-38.549805	32.24945	-237.89978	-19.473267	53.7735	-210.44464	
1465358111119104	-38.40027	32.400513	-237.75024	-19.473267	53.7735	-210.44464	
1465358131291223	-38.99994	30.900574	-235.49957	-19.473267	53.7735	-210.44464	
1465358151860071	-38.99994	31.64978	-236.2503	-19.473267	53.7735	-210.44464	
1465358171543909	-39.59961	32.24945	-237.30011	-19.473267	53.7735	-210.44464	
1465358211857630	-41.700745	34.64966	-236.54938	-19.473267	53.7735	-210.44464	
1465358211857630	-41.700745	34.64966	-236.54938	-19.473267	53.7735	-210.44464	
1465358231968714	-41.549683	35.549927	-235.65063	-19.473267	53.7735	-210.44464	
1465358252415491	-43.35022	34.500122	-235.65063	-19.473267	53.7735	-210.44464	
1465358272282434	-41.400146	33.90045	-237.60071	-19.473267	53.7735	-210.44464	
1465358292393518	-39.75067	34.199524	-236.10077	-19.473267	53.7735	-210.44464	
1465358312565637	-40.35034	33.90045	-237.30011	-19.473267	53.7735	-210.44464	
1465358332707239	-40.35034	34.950256	-238.20038	-19.473267	53.7735	-210.44464	
1465358353489710	-38.40027	35.099792	-237.75024	-19.473267	53.7735	-210.44464	
1465358372990442	-40.499878	35.549927	-237.75024	-19.473267	53.7735	-210.44464	
1465358393132044	-39.300537	34.950256	-236.2503	-19.473267	53.7735	-210.44464	
1465358413273645	-40.19928	35.850525	-236.10077	-19.473267	53.7735	-210.44464	
1465358433415247	-38.850403	36.59973	-236.99951	-19.473267	53.7735	-210.44464	
1465358454045130	-40.35034	35.40039	-237.89978	-19.473267	53.7735	-210.44464	
1465358473667932	-40.35034	34.64966	-235.2005	-19.473267	53.7735	-210.44464	
1465358493840051	-39.75067	34.80072	-235.65063	-19.473267	53.7735	-210.44464	
1465358513859583	-38.850403	34.500122	-236.10077	-19.473267	53.7735	-210.44464	
1465358534092737	-40.35034	35.699463	-235.2005	-19.473267	53.7735	-210.44464	
1465358555119348	-38.40027	36.59973	-237.44965	-19.473267	53.7735	-210.44464	
1465358574406458	-39.300537	36.749268	-235.2005	-19.473267	53.7735	-210.44464	
1465358594517542	-40.499878	35.099792	-236.39984	-19.473267	53.7735	-210.44464	
1465358614659143	-39.300537	35.699463	-234.1507	-19.473267	53.7735	-210.44464	
1465358634800745	-40.800476	35.099792	-235.04944	-19.473267	53.7735	-210.44464	
1465358655247522	-39.59961	34.64966	-234.44977	-19.473267	53.7735	-210.44464	
1465358675083948	-39.149475	34.80072	-233.99963	-19.473267	53.7735	-210.44464	
1465358695225549	-40.35034	33.90045	-234.8999	-19.473267	53.7735	-210.44464	
1465358715367151	-39.450073	35.549927	-234.5993	-19.473267	53.7735	-210.44464	
1465358735508753	-41.09955	36.749268	-232.4997	-19.473267	53.7735	-210.44464	
1465358755772424	-40.19928	35.549927	-233.99963	-19.473267	53.7735	-210.44464	
1465358775791956	-40.800476	35.850525	-234.5993	-19.473267	53.7735	-210.44464	
1465358795872522	-40.19928	36.149597	-232.94983	-19.473267	53.7735	-210.44464	
1465358816105676	-40.19928	36.90033	-232.20062	-19.473267	53.7735	-210.44464	
1465358836247278	-40.35034	36.30066	-233.39996	-19.473267	53.7735	-210.44464	
1465358856358362	-39.300537	38.40027	-235.2005	-19.473267	53.7735	-210.44464	
1465358876499964	-39.59961	40.19928	-234.44977	-19.473267	53.7735	-210.44464	
1465358896672083	-38.99994	39.75067	-234.44977	-19.473267	53.7735	-210.44464	
1465358916783167	-41.85028	39.300537	-232.94983	-19.473267	53.7735	-210.44464	
1465358936863733	-40.049744	40.19928	-233.39996	-19.473267	53.7735	-210.44464	
1465358957249475	-40.19928	37.5	-232.65076	-19.473267	53.7735	-210.44464	
1465358977207971	-39.300537	38.69934	-233.09937	-19.473267	53.7735	-210.44464	
1465358997349573	-38.850403	39.300537	-233.25043	-19.473267	53.7735	-210.44464	
1465359017552210	-39.450073	39.59961	-232.94983	-19.473267	53.7735	-210.44464	
1465359037663294	-38.09967	40.35034	-233.25043	-19.473267	53.7735	-210.44464	
1465359057926965	-39.59961	39.75067	-232.04956	-19.473267	53.7735	-210.44464	
1465359077915979	-40.35034	39.450073	-231.44989	-19.473267	53.7735	-210.44464	
1465359098088098	-39.59961	41.85028	-231.44989	-19.473267	53.7735	-210.44464	
1465359118229700	-40.499878	40.35034	-230.85022	-19.473267	53.7735	-210.44464	
1465359138340784	-41.25061	40.649414	-230.54962	-19.473267	53.7735	-210.44464	
1465359159031702	-41.400146	40.800476	-230.99976	-19.473267	53.7735	-210.44464	
1465359178654505	-40.800476	40.950012	-229.94995	-19.473267	53.7735	-210.44464	
1465359198796106	-40.499878	41.999817	-230.85022	-19.473267	53.7735	-210.44464	
1465359218907190	-40.35034	39.75067	-230.09949	-19.473267	53.7735	-210.44464	
1465359239079309	-39.149475	40.950012	-230.25055	-19.473267	53.7735	-210.44464	
1465359261204553	-39.59961	39.450073	-230.09949	-19.473267	53.7735	-210.44464	
1465359280949426	-41.09955	39.450073	-230.70068	-19.473267	53.7735	-210.44464	
1465359300816370	-40.049744	41.09955	-227.99988	-19.473267	53.7735	-210.44464	
1465359320835901	-38.40027	41.700745	-229.49982	-19.473267	53.7735	-210.44464	
1465359340946985	-40.19928	40.649414	-229.49982	-19.473267	53.7735	-210.44464	
1465359361119104	-39.75067	40.649414	-230.25055	-19.473267	53.7735	-210.44464	
1465359380925012	-39.450073	38.99994	-230.25055	-19.473267	53.7735	-210.44464	
1465359400914026	-37.950134	39.75067	-230.09949	-19.473267	53.7735	-210.44464	
1465359420903040	-39.300537	40.800476	-229.35028	-19.473267	53.7735	-210.44464	
1465359440922571	-38.99994	40.499878	-228.30048	-19.473267	53.7735	-210.44464	
1465359460911585	-37.950134	39.149475	-229.64935	-19.473267	53.7735	-210.44464	
1465359480900598	-37.950134	39.75067	-232.4997	-19.473267	53.7735	-210.44464	
1465359500920130	-37.950134	41.549683	-229.64935	-19.473267	53.7735	-210.44464	
1465359521061731	-39.300537	40.800476	-230.09949	-19.473267	53.7735	-210.44464	
1465359541172815	-38.40027	39.59961	-231.90002	-19.473267	53.7735	-210.44464	
1465359561772180	-38.549805	39.450073	-230.99976	-19.473267	53.7735	-210.44464	
1465359581486536	-38.40027	40.649414	-230.85022	-19.473267	53.7735	-210.44464	
1465359601628137	-38.99994	40.800476	-230.40009	-19.473267	53.7735	-210.44464	
1465359621769739	-37.1994	39.149475	-230.40009	-19.473267	53.7735	-210.44464	
1465359641880823	-38.250732	39.149475	-229.64935	-19.473267	53.7735	-210.44464	
1465359662327600	-37.350464	39.300537	-230.54962	-19.473267	53.7735	-210.44464	
1465359682194544	-38.850403	39.59961	-231.59943	-19.473267	53.7735	-210.44464	
1465359702336145	-39.59961	38.40027	-229.64935	-19.473267	53.7735	-210.44464	
1465359722447229	-38.549805	38.40027	-230.70068	-19.473267	53.7735	-210.44464	
1465359742619348	-38.549805	37.8006	-230.99976	-19.473267	53.7735	-210.44464	
1465359763401819	-38.09967	37.1994	-230.85022	-19.473267	53.7735	-210.44464	
1465359782902551	-39.300537	38.40027	-231.75049	-19.473267	53.7735	-210.44464	
1465359803044153	-38.250732	38.09967	-230.70068	-19.473267	53.7735	-210.44464	
1465359823185755	-38.850403	37.950134	-229.49982	-19.473267	53.7735	-210.44464	
1465359843327356	-38.09967	36.90033	-231.59943	-19.473267	53.7735	-210.44464	
1465359863957239	-38.40027	37.5	-230.85022	-19.473267	53.7735	-210.44464	
1465359883610559	-39.149475	38.250732	-232.65076	-19.473267	53.7735	-210.44464	
1465359903630090	-38.40027	37.5	-231.30035	-19.473267	53.7735	-210.44464	
1465359923893762	-37.5	37.350464	-232.04956	-19.473267	53.7735	-210.44464	
1465359944004846	-37.350464	37.1994	-232.65076	-19.473267	53.7735	-210.44464	
1465359964329553	-38.549805	38.09967	-232.4997	-19.473267	53.7735	-210.44464	
1465359984318567	-38.250732	37.8006	-232.04956	-19.473267	53.7735	-210.44464	
1465360004460169	-37.5	36.00006	-232.4997	-19.473267	53.7735	-210.44464	
1465360024601770	-36.749268	36.59973	-232.65076	-19.473267	53.7735	-210.44464	
1465360044743372	-35.699463	34.199524	-234.30023	-19.473267	53.7735	-210.44464	
1465360064884973	-32.699585	33.000183	-234.8999	-19.473267	53.7735	-210.44464	
1465360084996057	-32.400513	32.55005	-234.44977	-19.473267	53.7735	-210.44464	
1465360105137659	-32.850647	32.850647	-235.65063	-19.473267	53.7735	-210.44464	
1465360125309778	-30.000305	31.199646	-236.2503	-19.473267	53.7735	-210.44464	
1465360145420862	-28.649902	30.749512	-233.99963	-19.473267	53.7735	-210.44464	
1465360165745569	-27.2995	28.349304	-234.30023	-19.473267	53.7735	-210.44464	
1465360185734583	-25.950623	28.649902	-235.04944	-19.473267	53.7735	-210.44464	
1465360205876184	-26.249695	26.550293	-235.65063	-19.473267	53.7735	-210.44464	
1465360225987268	-25.79956	27.749634	-235.80017	-19.473267	53.7735	-210.44464	
1465360246159387	-25.19989	27.600098	-236.10077	-19.473267	53.7735	-210.44464	
1465360266300989	-22.799683	29.699707	-237.75024	-19.473267	53.7735	-210.44464	
1465360286412073	-23.849487	28.9505	-237.75024	-19.473267	53.7735	-210.44464	
1465360306553674	-22.50061	29.699707	-239.10065	-19.473267	53.7735	-210.44464	
1465360326725794	-21.600342	32.24945	-240.29999	-19.473267	53.7735	-210.44464	
1465360346836878	-21.899414	32.24945	-239.25018	-19.473267	53.7735	-210.44464	
1465360367405725	-22.799683	32.099915	-240.15045	-19.473267	53.7735	-210.44464	
1465360387120081	-22.349548	31.950378	-240.60059	-19.473267	53.7735	-210.44464	
1465360407292200	-21.299744	33.599854	-238.65051	-19.473267	53.7735	-210.44464	
1465360427403284	-22.200012	33.14972	-240.15045	-19.473267	53.7735	-210.44464	
1465360447575403	-21.44928	33.74939	-239.10065	-19.473267	53.7735	-210.44464	
1465360467991663	-20.84961	35.699463	-239.99939	-19.473267	53.7735	-210.44464	
1465360487858606	-21.749878	34.199524	-239.10065	-19.473267	53.7735	-210.44464	
1465360508000208	-21.150208	35.099792	-241.49933	-19.473267	53.7735	-210.44464	
1465360528111292	-20.700073	35.549927	-240.44952	-19.473267	53.7735	-210.44464	
1465360548283411	-21.44928	34.80072	-240.15045	-19.473267	53.7735	-210.44464	
1465360569065881	-19.200134	34.64966	-241.3498	-19.473267	53.7735	-210.44464	
1465360588536096	-20.249939	34.950256	-240.60059	-19.473267	53.7735	-210.44464	
1465360608586145	-21.44928	34.500122	-242.55066	-19.473267	53.7735	-210.44464	
1465360630375696	-20.700073	34.80072	-241.20026	-19.473267	53.7735	-210.44464	
1465360650486780	-20.550537	35.40039	-241.65039	-19.473267	53.7735	-210.44464	
1465360670780969	-20.700073	35.549927	-241.79993	-19.473267	53.7735	-210.44464	
1465360690464807	-21.299744	35.699463	-240.60059	-19.473267	53.7735	-210.44464	
1465360710453821	-19.650269	34.80072	-241.49933	-19.473267	53.7735	-210.44464	
1465360730473352	-21.44928	34.199524	-242.55066	-19.473267	53.7735	-210.44464	
1465360750462366	-20.84961	33.000183	-241.05072	-19.473267	53.7735	-210.44464	
1465360770603967	-21.299744	33.000183	-242.99927	-19.473267	53.7735	-210.44464	
1465360790440393	-20.550537	33.000183	-243.75	-19.473267	53.7735	-210.44464	
1465360810429407	-19.500732	33.000183	-241.05072	-19.473267	53.7735	-210.44464	
1465360830418421	-20.700073	33.14972	-241.79993	-19.473267	53.7735	-210.44464	
1465360850437952	-19.050598	34.500122	-242.55066	-19.473267	53.7735	-210.44464	
1465360870701624	-19.650269	35.099792	-242.55066	-19.473267	53.7735	-210.44464	
1465360890599085	-19.650269	34.80072	-242.84973	-19.473267	53.7735	-210.44464	
1465360910801721	-17.399597	33.000183	-243.75	-19.473267	53.7735	-210.44464	
1465360930973840	-17.399597	35.699463	-241.94946	-19.473267	53.7735	-210.44464	
1465360951084924	-15.299988	34.350586	-244.0506	-19.473267	53.7735	-210.44464	
1465360971684290	-16.949463	34.80072	-242.55066	-19.473267	53.7735	-210.44464	
1465360991368128	-14.99939	36.30066	-244.0506	-19.473267	53.7735	-210.44464	
1465361011509729	-15.150452	37.950134	-245.55054	-19.473267	53.7735	-210.44464	
1465361031681848	-14.549255	38.250732	-244.94934	-19.473267	53.7735	-210.44464	
1465361051792932	-16.349792	39.450073	-245.84961	-19.473267	53.7735	-210.44464	
1465361072178674	-15.299988	38.40027	-247.20001	-19.473267	53.7735	-210.44464	
1465361092106653	-16.05072	40.19928	-246.44928	-19.473267	53.7735	-210.44464	
1465361112248255	-16.65039	40.649414	-245.55054	-19.473267	53.7735	-210.44464	
1465361132359339	-17.999268	40.35034	-247.34955	-19.473267	53.7735	-210.44464	
1465361152531458	-15.750122	39.450073	-246.74988	-19.473267	53.7735	-210.44464	
1465361173252893	-14.549255	41.400146	-246.00067	-19.473267	53.7735	-210.44464	
1465361192814661	-16.349792	38.40027	-247.50061	-19.473267	53.7735	-210.44464	
1465361212925745	-16.200256	40.35034	-247.34955	-19.473267	53.7735	-210.44464	
1465361233067346	-15.899658	38.250732	-245.55054	-19.473267	53.7735	-210.44464	
1465361253239465	-16.799927	39.75067	-245.39948	-19.473267	53.7735	-210.44464	
1465361273808313	-17.999268	37.1994	-244.94934	-19.473267	53.7735	-210.44464	
1465361293522669	-19.650269	36.59973	-246.29974	-19.473267	53.7735	-210.44464	
1465361313664270	-19.200134	36.00006	-246.44928	-19.473267	53.7735	-210.44464	
1465361333805872	-19.34967	38.250732	-243.89954	-19.473267	53.7735	-210.44464	
1465361353947473	-21.749878	37.5	-246.00067	-19.473267	53.7735	-210.44464	
1465361374882532	-18.600464	35.850525	-246.29974	-19.473267	53.7735	-210.44464	
1465361394200159	-21.749878	36.90033	-244.20013	-19.473267	53.7735	-210.44464	
1465361414341760	-20.100403	37.5	-246.60034	-19.473267	53.7735	-210.44464	
1465361434513880	-21.899414	37.350464	-246.44928	-19.473267	53.7735	-210.44464	
1465361454624964	-21.600342	37.8006	-245.39948	-19.473267	53.7735	-210.44464	
1465361475132776	-22.200012	38.250732	-247.05048	-19.473267	53.7735	-210.44464	
1465361494908167	-21.44928	39.59961	-247.05048	-19.473267	53.7735	-210.44464	
1465361515080286	-20.550537	39.75067	-247.79968	-19.473267	53.7735	-210.44464	
1465361535191370	-20.700073	39.900208	-248.39935	-19.473267	53.7735	-210.44464	
1465361555332971	-19.799805	41.09955	-247.79968	-19.473267	53.7735	-210.44464	
1465361575657678	-19.050598	43.04962	-249.00055	-19.473267	53.7735	-210.44464	
1465361595646692	-18.449402	41.549683	-248.55042	-19.473267	53.7735	-210.44464	
1465361615757776	-17.55066	41.999817	-250.34943	-19.473267	53.7735	-210.44464	
1465361635929895	-19.050598	41.400146	-248.39935	-19.473267	53.7735	-210.44464	
1465361656040979	-17.849731	40.19928	-247.20001	-19.473267	53.7735	-210.44464	
1465361676182581	-19.200134	37.8006	-245.39948	-19.473267	53.7735	-210.44464	
1465361696354700	-17.849731	38.40027	-246.1502	-19.473267	53.7735	-210.44464	
1465361716496301	-18.449402	37.049866	-247.50061	-19.473267	53.7735	-210.44464	
1465361736637903	-17.100525	36.749268	-246.44928	-19.473267	53.7735	-210.44464	
1465361756779505	-17.55066	35.099792	-248.39935	-19.473267	53.7735	-210.44464	
1465361777317835	-17.100525	35.40039	-246.1502	-19.473267	53.7735	-210.44464	
1465361797062708	-16.799927	36.00006	-246.1502	-19.473267	53.7735	-210.44464	
1465361817173792	-19.050598	34.500122	-244.65027	-19.473267	53.7735	-210.44464	
1465361837345911	-19.200134	33.599854	-247.20001	-19.473267	53.7735	-210.44464	
1465361857456995	-20.100403	32.400513	-246.29974	-19.473267	53.7735	-210.44464	
1465361877781702	-21.600342	31.64978	-247.20001	-19.473267	53.7735	-210.44464	
1465361897740198	-20.550537	33.299255	-244.7998	-19.473267	53.7735	-210.44464	
1465361917881799	-19.650269	32.099915	-245.55054	-19.473267	53.7735	-210.44464	
1465361938053919	-21.150208	32.400513	-244.94934	-19.473267	53.7735	-210.44464	
1465361958165003	-18.899536	30.900574	-244.34967	-19.473267	53.7735	-210.44464	
1465361978825403	-20.84961	32.24945	-244.0506	-19.473267	53.7735	-210.44464	
1465362000065637	-19.799805	31.64978	-243.75	-19.473267	53.7735	-210.44464	
1465362020146204	-20.399475	33.450317	-243.60046	-19.473267	53.7735	-210.44464	
1465362040257288	-19.650269	32.099915	-244.94934	-19.473267	53.7735	-210.44464	
1465362060246301	-20.249939	34.350586	-246.1502	-19.473267	53.7735	-210.44464	
1465362080571008	-19.34967	36.90033	-247.65015	-19.473267	53.7735	-210.44464	
1465362100224329	-19.200134	36.749268	-249.15009	-19.473267	53.7735	-210.44464	
1465362120213342	-19.200134	39.450073	-248.84949	-19.473267	53.7735	-210.44464	
1465362140202356	-20.100403	42.75055	-248.69995	-19.473267	53.7735	-210.44464	
1465362160221887	-18.449402	43.499756	-248.24982	-19.473267	53.7735	-210.44464	
1465362180394006	-21.150208	44.099426	-251.10016	-19.473267	53.7735	-210.44464	
1465362200199915	-23.10028	44.700623	-249.74976	-19.473267	53.7735	-210.44464	
1465362220188928	-22.650146	44.54956	-250.95062	-19.473267	53.7735	-210.44464	
1465362240208460	-23.699951	44.85016	-251.2497	-19.473267	53.7735	-210.44464	
1465362260319544	-24.450684	44.85016	-248.84949	-19.473267	53.7735	-210.44464	
1465362280613733	-24.60022	43.35022	-251.84937	-19.473267	53.7735	-210.44464	
1465362300602747	-23.849487	44.400024	-249.74976	-19.473267	53.7735	-210.44464	
1465362320713831	-23.699951	42.599487	-249.60022	-19.473267	53.7735	-210.44464	
1465362340885950	-24.749756	42.599487	-248.55042	-19.473267	53.7735	-210.44464	
1465362360997034	-25.19989	41.999817	-249.00055	-19.473267	53.7735	-210.44464	
1465362381687952	-24.450684	41.09955	-249.15009	-19.473267	53.7735	-210.44464	
1465362401280237	-27.450562	41.549683	-249.60022	-19.473267	53.7735	-210.44464	
1465362421452356	-26.69983	41.400146	-249.00055	-19.473267	53.7735	-210.44464	
1465362441593958	-26.100159	42.599487	-248.24982	-19.473267	53.7735	-210.44464	
1465362461705042	-28.9505	42.149353	-248.84949	-19.473267	53.7735	-210.44464	
1465362482151819	-28.349304	41.400146	-247.34955	-19.473267	53.7735	-210.44464	
1465362502018762	-29.699707	40.950012	-247.34955	-19.473267	53.7735	-210.44464	
1465362522160364	-28.649902	41.999817	-247.34955	-19.473267	53.7735	-210.44464	
1465362542301965	-30.599976	41.549683	-247.20001	-19.473267	53.7735	-210.44464	
1465362562321497	-32.55005	39.59961	-246.29974	-19.473267	53.7735	-210.44464	
1465362583226038	-33.450317	41.09955	-246.1502	-19.473267	53.7735	-210.44464	
1465362602696253	-36.00006	40.950012	-246.29974	-19.473267	53.7735	-210.44464	
1465362622837854	-34.80072	42.599487	-245.1004	-19.473267	53.7735	-210.44464	
1465362643009973	-34.80072	41.549683	-245.39948	-19.473267	53.7735	-210.44464	
1465362663121057	-37.1994	40.800476	-244.34967	-19.473267	53.7735	-210.44464	
1465362683781458	-35.850525	42.900085	-245.39948	-19.473267	53.7735	-210.44464	
1465362703312708	-36.00006	44.099426	-244.65027	-19.473267	53.7735	-210.44464	
1465362723549836	-36.749268	43.04962	-243.60046	-19.473267	53.7735	-210.44464	
1465362743721955	-36.450195	43.499756	-244.34967	-19.473267	53.7735	-210.44464	
1465362763833039	-37.5	42.900085	-243.75	-19.473267	53.7735	-210.44464	
1465362784157746	-36.749268	40.950012	-243.89954	-19.473267	53.7735	-210.44464	
1465362804146760	-37.8006	40.649414	-245.55054	-19.473267	53.7735	-210.44464	
1465362824257844	-38.250732	43.200684	-244.7998	-19.473267	53.7735	-210.44464	
1465362844338410	-37.8006	42.300415	-244.20013	-19.473267	53.7735	-210.44464	
1465362864541047	-37.049866	42.300415	-245.24994	-19.473267	53.7735	-210.44464	
1465362884682648	-38.549805	42.599487	-244.34967	-19.473267	53.7735	-210.44464	
1465362904854768	-38.40027	40.950012	-242.84973	-19.473267	53.7735	-210.44464	
1465362924996369	-37.5	40.499878	-242.3996	-19.473267	53.7735	-210.44464	
1465362945107453	-40.499878	41.700745	-242.55066	-19.473267	53.7735	-210.44464	
1465362965279572	-37.8006	40.649414	-245.55054	-19.473267	53.7735	-210.44464	
1465362985573762	-38.40027	40.950012	-244.94934	-19.473267	53.7735	-210.44464	
1465363005532258	-38.09967	41.999817	-245.55054	-19.473267	53.7735	-210.44464	
1465363025673859	-37.049866	40.649414	-244.94934	-19.473267	53.7735	-210.44464	
1465363045845979	-37.950134	41.09955	-244.34967	-19.473267	53.7735	-210.44464	
1465363065957063	-36.749268	39.300537	-243.89954	-19.473267	53.7735	-210.44464	
1465363086098664	-35.699463	39.900208	-244.20013	-19.473267	53.7735	-210.44464	
1465363106270783	-34.500122	38.09967	-244.7998	-19.473267	53.7735	-210.44464	
1465363126412385	-34.950256	38.549805	-243.89954	-19.473267	53.7735	-210.44464	
1465363146523469	-34.950256	37.950134	-245.55054	-19.473267	53.7735	-210.44464	
1465363166695588	-35.24933	37.950134	-246.29974	-19.473267	53.7735	-210.44464	
1465363187264436	-34.049988	39.75067	-246.74988	-19.473267	53.7735	-210.44464	
1465363206948273	-35.24933	40.649414	-246.00067	-19.473267	53.7735	-210.44464	
1465363227089875	-34.950256	42.300415	-246.29974	-19.473267	53.7735	-210.44464	
1465363247261994	-35.699463	43.04962	-245.24994	-19.473267	53.7735	-210.44464	
1465363267373078	-36.00006	44.400024	-247.34955	-19.473267	53.7735	-210.44464	
1465363287819855	-36.30066	46.0495	-243.89954	-19.473267	53.7735	-210.44464	
1465363307686799	-38.09967	45.150757	-245.24994	-19.473267	53.7735	-210.44464	
1465363327797883	-40.049744	46.650696	-242.99927	-19.473267	53.7735	-210.44464	
1465363347970002	-38.40027	47.850037	-245.24994	-19.473267	53.7735	-210.44464	
1465363369698518	-41.400146	45.899963	-244.0506	-19.473267	53.7735	-210.44464	
1465363390542023	-40.800476	45.750427	-243.60046	-19.473267	53.7735	-210.44464	
1465363409890168	-40.19928	43.35022	-244.20013	-19.473267	53.7735	-210.44464	
1465363429879182	-40.19928	45.150757	-243.89954	-19.473267	53.7735	-210.44464	
1465363449868195	-41.999817	45.300293	-241.94946	-19.473267	53.7735	-210.44464	
1465363469887727	-43.35022	45.150757	-241.79993	-19.473267	53.7735	-210.44464	
1465363489907258	-43.800354	45.300293	-241.3498	-19.473267	53.7735	-210.44464	
1465363509865754	-44.700623	43.35022	-239.10065	-19.473267	53.7735	-210.44464	
1465363529885285	-43.35022	43.800354	-240.44952	-19.473267	53.7735	-210.44464	
1465363549874299	-43.04962	44.25049	-239.99939	-19.473267	53.7735	-210.44464	
1465363569893830	-42.300415	44.700623	-241.20026	-19.473267	53.7735	-210.44464	
1465363590035432	-41.700745	43.200684	-241.3498	-19.473267	53.7735	-210.44464	
1465363609841340	-41.999817	43.200684	-241.94946	-19.473267	53.7735	-210.44464	
1465363629952424	-43.35022	44.099426	-240.15045	-19.473267	53.7735	-210.44464	
1465363650063508	-42.300415	43.800354	-239.10065	-19.473267	53.7735	-210.44464	
1465363670235627	-44.099426	43.499756	-239.70032	-19.473267	53.7735	-210.44464	
1465363690529816	-43.94989	44.099426	-239.84985	-19.473267	53.7735	-210.44464	
1465363710518830	-43.94989	43.800354	-241.49933	-19.473267	53.7735	-210.44464	
1465363730629914	-45.750427	45.44983	-241.49933	-19.473267	53.7735	-210.44464	
1465363750802033	-43.649292	46.0495	-240.89966	-19.473267	53.7735	-210.44464	
1465363770913117	-44.54956	46.350098	-240.60059	-19.473267	53.7735	-210.44464	
1465363791481965	-45.750427	45.44983	-240.89966	-19.473267	53.7735	-210.44464	
1465363811226838	-44.400024	43.35022	-240.15045	-19.473267	53.7735	-210.44464	
1465363831337922	-44.85016	42.900085	-239.99939	-19.473267	53.7735	-210.44464	
1465363851510041	-43.499756	44.25049	-239.99939	-19.473267	53.7735	-210.44464	
1465363871651643	-44.999695	42.300415	-238.80005	-19.473267	53.7735	-210.44464	
1465363892067902	-43.499756	41.09955	-239.99939	-19.473267	53.7735	-210.44464	
1465363911934846	-44.400024	39.900208	-240.89966	-19.473267	53.7735	-210.44464	
1465363932076447	-42.75055	39.75067	-240.29999	-19.473267	53.7735	-210.44464	
1465363952218049	-41.549683	38.549805	-240.89966	-19.473267	53.7735	-210.44464	
1465363972359650	-43.800354	37.8006	-238.20038	-19.473267	53.7735	-210.44464	
1465363993142121	-41.85028	37.1994	-240.15045	-19.473267	53.7735	-210.44464	
1465364012642854	-42.44995	38.69934	-238.20038	-19.473267	53.7735	-210.44464	
1465364032753938	-42.599487	36.90033	-238.49945	-19.473267	53.7735	-210.44464	
1465364052926057	-44.54956	37.350464	-239.25018	-19.473267	53.7735	-210.44464	
1465364073037141	-41.700745	35.699463	-239.99939	-19.473267	53.7735	-210.44464	
1465364093697541	-41.400146	34.950256	-237.30011	-19.473267	53.7735	-210.44464	
1465364113350861	-41.700745	35.699463	-238.94958	-19.473267	53.7735	-210.44464	
1465364133492463	-41.700745	32.55005	-236.2503	-19.473267	53.7735	-210.44464	
1465364153603547	-43.649292	33.74939	-238.49945	-19.473267	53.7735	-210.44464	
1465364173775666	-43.04962	33.90045	-237.60071	-19.473267	53.7735	-210.44464	
1465364194771760	-42.599487	33.74939	-236.10077	-19.473267	53.7735	-210.44464	
1465364214028352	-42.44995	34.64966	-237.30011	-19.473267	53.7735	-210.44464	
1465364234169953	-42.900085	35.099792	-238.04932	-19.473267	53.7735	-210.44464	
1465364254342072	-43.04962	34.64966	-238.65051	-19.473267	53.7735	-210.44464	
1465364274453156	-42.900085	37.1994	-237.44965	-19.473267	53.7735	-210.44464	
1465364294503205	-42.900085	37.950134	-238.04932	-19.473267	53.7735	-210.44464	
1465364314766877	-44.54956	38.40027	-238.94958	-19.473267	53.7735	-210.44464	
1465364334908479	-42.75055	40.499878	-239.25018	-19.473267	53.7735	-210.44464	
1465364355019563	-46.20056	43.200684	-238.65051	-19.473267	53.7735	-210.44464	
1465364375191682	-47.399902	44.400024	-236.99951	-19.473267	53.7735	-210.44464	
1465364395485871	-46.949768	44.54956	-236.54938	-19.473267	53.7735	-210.44464	
1465364415444367	-47.099304	44.700623	-236.99951	-19.473267	53.7735	-210.44464	
1465364435585969	-48.599243	44.54956	-237.30011	-19.473267	53.7735	-210.44464	
1465364455727570	-47.250366	45.300293	-238.20038	-19.473267	53.7735	-210.44464	
1465364475899689	-48.30017	44.85016	-238.65051	-19.473267	53.7735	-210.44464	
1465364496010773	-47.54944	43.94989	-239.25018	-19.473267	53.7735	-210.44464	
1465364516152375	-46.949768	42.900085	-237.60071	-19.473267	53.7735	-210.44464	
1465364536324494	-45.899963	42.900085	-239.25018	-19.473267	53.7735	-210.44464	
1465364556466096	-46.800232	41.700745	-237.44965	-19.473267	53.7735	-210.44464	
1465364576577180	-45.300293	42.75055	-237.75024	-19.473267	53.7735	-210.44464	
1465364596901887	-46.949768	42.900085	-237.30011	-19.473267	53.7735	-210.44464	
1465364616890900	-46.800232	42.75055	-238.80005	-19.473267	53.7735	-210.44464	
1465364637032502	-46.350098	43.800354	-238.04932	-19.473267	53.7735	-210.44464	
1465364657174104	-46.20056	43.94989	-238.20038	-19.473267	53.7735	-210.44464	
1465364677193635	-47.099304	43.35022	-237.44965	-19.473267	53.7735	-210.44464	
1465364697579377	-47.099304	45.150757	-237.75024	-19.473267	53.7735	-210.44464	
1465364717568391	-44.700623	45.750427	-239.10065	-19.473267	53.7735	-210.44464	
1465364737740510	-48.599243	44.25049	-238.94958	-19.473267	53.7735	-210.44464	
1465364759438508	-47.250366	45.599365	-236.84998	-19.473267	53.7735	-210.44464	
1465364779549592	-48.89984	46.499634	-237.44965	-19.473267	53.7735	-210.44464	
1465364800332063	-47.850037	46.800232	-236.10077	-19.473267	53.7735	-210.44464	
1465364819527619	-49.49951	46.0495	-237.75024	-19.473267	53.7735	-210.44464	
1465364839516633	-48.150635	45.750427	-235.04944	-19.473267	53.7735	-210.44464	
1465364859505646	-48.599243	46.350098	-235.80017	-19.473267	53.7735	-210.44464	
1465364879525178	-50.549316	46.499634	-235.65063	-19.473267	53.7735	-210.44464	
1465364899514191	-49.650574	46.350098	-234.1507	-19.473267	53.7735	-210.44464	
1465364919503205	-50.549316	46.800232	-234.5993	-19.473267	53.7735	-210.44464	
1465364939522736	-49.349976	47.250366	-235.49957	-19.473267	53.7735	-210.44464	
1465364959481232	-50.39978	44.54956	-234.1507	-19.473267	53.7735	-210.44464	
1465364979470246	-47.999573	42.900085	-235.2005	-19.473267	53.7735	-210.44464	
1465364999764436	-47.850037	41.999817	-236.10077	-19.473267	53.7735	-210.44464	
1465365019692414	-50.39978	42.149353	-235.49957	-19.473267	53.7735	-210.44464	
1465365039864533	-46.800232	41.400146	-235.65063	-19.473267	53.7735	-210.44464	
1465365059975617	-49.949646	41.700745	-236.10077	-19.473267	53.7735	-210.44464	
1465365080117219	-49.20044	41.700745	-235.04944	-19.473267	53.7735	-210.44464	
1465365100289338	-48.599243	39.75067	-235.2005	-19.473267	53.7735	-210.44464	
1465365120430939	-47.999573	39.149475	-233.8501	-19.473267	53.7735	-210.44464	
1465365140542023	-48.449707	40.649414	-235.35004	-19.473267	53.7735	-210.44464	
1465365160714143	-46.650696	41.09955	-235.49957	-19.473267	53.7735	-210.44464	
1465365180825227	-47.54944	41.09955	-234.44977	-19.473267	53.7735	-210.44464	
1465365201394074	-48.599243	39.75067	-234.44977	-19.473267	53.7735	-210.44464	
1465365221108430	-49.49951	42.75055	-236.10077	-19.473267	53.7735	-210.44464	
1465365241280549	-49.349976	40.800476	-234.8999	-19.473267	53.7735	-210.44464	
1465365261422150	-49.20044	41.700745	-235.35004	-19.473267	53.7735	-210.44464	
1465365281563752	-48.150635	43.35022	-234.5993	-19.473267	53.7735	-210.44464	
1465365301949494	-49.049377	43.94989	-235.49957	-19.473267	53.7735	-210.44464	
1465365321816438	-50.100708	42.900085	-234.44977	-19.473267	53.7735	-210.44464	
1465365341958039	-50.100708	45.599365	-233.39996	-19.473267	53.7735	-210.44464	
1465365362130158	-51.30005	43.800354	-235.35004	-19.473267	53.7735	-210.44464	
1465365382241242	-47.999573	45.599365	-234.1507	-19.473267	53.7735	-210.44464	
1465365403054230	-50.70038	47.7005	-233.8501	-19.473267	53.7735	-210.44464	
1465365422554963	-49.49951	48.150635	-233.99963	-19.473267	53.7735	-210.44464	
1465365442666047	-50.70038	47.999573	-233.39996	-19.473267	53.7735	-210.44464	
1465365462838166	-49.949646	48.89984	-234.5993	-19.473267	53.7735	-210.44464	
1465365482979768	-50.100708	50.100708	-233.8501	-19.473267	53.7735	-210.44464	
1465365503579133	-51.30005	49.20044	-232.94983	-19.473267	53.7735	-210.44464	
1465365523232453	-50.849915	49.949646	-232.20062	-19.473267	53.7735	-210.44464	
1465365543374055	-50.849915	48.150635	-232.94983	-19.473267	53.7735	-210.44464	
1465365563546174	-51.449585	46.949768	-234.1507	-19.473267	53.7735	-210.44464	
1465365583657258	-49.650574	47.250366	-233.8501	-19.473267	53.7735	-210.44464	
1465365604683869	-49.949646	47.850037	-233.99963	-19.473267	53.7735	-210.44464	
1465365623940461	-50.39978	47.7005	-235.49957	-19.473267	53.7735	-210.44464	
1465365644112580	-48.599243	45.599365	-234.44977	-19.473267	53.7735	-210.44464	
1465365664223664	-49.650574	46.350098	-233.39996	-19.473267	53.7735	-210.44464	
1465365684395783	-48.89984	46.499634	-234.30023	-19.473267	53.7735	-210.44464	
1465365704415314	-51.150513	45.899963	-234.8999	-19.473267	53.7735	-210.44464	
1465365764931672	-52.49939	49.650574	-231.44989	-19.473267	53.7735	-210.44464	
1465365764931672	-52.49939	49.650574	-231.44989	-19.473267	53.7735	-210.44464	
1465365764931672	-52.49939	49.650574	-231.44989	-19.473267	53.7735	-210.44464	
1465365785073273	-52.49939	50.100708	-230.40009	-19.473267	53.7735	-210.44464	
1465365805367463	-53.39966	51.600647	-228.90015	-19.473267	53.7735	-210.44464	
1465365825386994	-54.75006	51.30005	-227.85034	-19.473267	53.7735	-210.44464	
1465365845528596	-53.99933	52.65045	-228.14941	-19.473267	53.7735	-210.44464	
1465365865639680	-53.55072	54.449463	-226.95007	-19.473267	53.7735	-210.44464	
1465365885781281	-54.899597	54.899597	-227.69928	-19.473267	53.7735	-210.44464	
1465365905922883	-53.700256	55.05066	-228.14941	-19.473267	53.7735	-210.44464	
1465365926064484	-53.100586	53.100586	-225.90027	-19.473267	53.7735	-210.44464	
1465365946206086	-54.600525	52.799988	-227.25067	-19.473267	53.7735	-210.44464	
1465365966286652	-55.65033	54.15039	-227.99988	-19.473267	53.7735	-210.44464	
1465365986519807	-53.700256	54.299927	-228.90015	-19.473267	53.7735	-210.44464	
1465366006783479	-54.600525	54.449463	-227.69928	-19.473267	53.7735	-210.44464	
1465366026803010	-53.99933	53.250122	-227.85034	-19.473267	53.7735	-210.44464	
1465366046914094	-52.949524	52.949524	-229.20074	-19.473267	53.7735	-210.44464	
1465366067055695	-53.100586	53.849792	-228.30048	-19.473267	53.7735	-210.44464	
1465366087197297	-53.39966	51.89972	-230.25055	-19.473267	53.7735	-210.44464	
1465366107338898	-53.100586	54.449463	-230.40009	-19.473267	53.7735	-210.44464	
1465366129006379	-50.70038	52.049255	-233.09937	-19.473267	53.7735	-210.44464	
1465366149209016	-53.55072	53.55072	-233.39996	-19.473267	53.7735	-210.44464	
1465366169198029	-53.55072	52.049255	-233.39996	-19.473267	53.7735	-210.44464	
1465366189187043	-52.799988	52.049255	-232.8003	-19.473267	53.7735	-210.44464	
1465366209664338	-51.150513	52.49939	-232.04956	-19.473267	53.7735	-210.44464	
1465366229165070	-50.250244	51.600647	-234.5993	-19.473267	53.7735	-210.44464	
1465366249184602	-51.150513	53.55072	-234.1507	-19.473267	53.7735	-210.44464	
1465366269143098	-51.30005	52.65045	-233.99963	-19.473267	53.7735	-210.44464	
1465366289132111	-50.549316	50.250244	-235.04944	-19.473267	53.7735	-210.44464	
1465366309151643	-49.949646	52.65045	-235.35004	-19.473267	53.7735	-210.44464	
1465366329140656	-50.100708	51.449585	-236.54938	-19.473267	53.7735	-210.44464	
1465366349038117	-49.20044	52.65045	-238.49945	-19.473267	53.7735	-210.44464	
1465366369179719	-48.89984	52.349854	-236.70044	-19.473267	53.7735	-210.44464	
1465366389351838	-48.449707	52.65045	-238.80005	-19.473267	53.7735	-210.44464	
1465366409676545	-46.949768	53.100586	-240.29999	-19.473267	53.7735	-210.44464	
1465366429635041	-47.399902	54.299927	-239.10065	-19.473267	53.7735	-210.44464	
1465366449776643	-46.650696	53.849792	-239.25018	-19.473267	53.7735	-210.44464	
1465366469887727	-45.599365	53.55072	-239.70032	-19.473267	53.7735	-210.44464	
1465366490059846	-44.999695	53.99933	-240.44952	-19.473267	53.7735	-210.44464	
1465366510201447	-44.999695	54.75006	-240.89966	-19.473267	53.7735	-210.44464	
1465366530312531	-44.54956	55.200195	-240.29999	-19.473267	53.7735	-210.44464	
1465366550454133	-44.999695	56.100464	-240.44952	-19.473267	53.7735	-210.44464	
1465366570626252	-44.54956	55.200195	-241.65039	-19.473267	53.7735	-210.44464	
1465366590737336	-46.20056	53.55072	-240.29999	-19.473267	53.7735	-210.44464	
1465366611336701	-45.150757	53.55072	-241.3498	-19.473267	53.7735	-210.44464	
1465366631020539	-45.150757	54.15039	-241.05072	-19.473267	53.7735	-210.44464	
1465366651192658	-45.599365	51.150513	-240.29999	-19.473267	53.7735	-210.44464	
1465366671303742	-44.400024	53.700256	-241.79993	-19.473267	53.7735	-210.44464	
1465366691445344	-45.599365	51.750183	-242.99927	-19.473267	53.7735	-210.44464	
1465366711861604	-44.700623	51.89972	-241.20026	-19.473267	53.7735	-210.44464	
1465366731728547	-45.899963	50.39978	-240.60059	-19.473267	53.7735	-210.44464	
1465366751870148	-47.250366	51.750183	-241.65039	-19.473267	53.7735	-210.44464	
1465366772042268	-47.54944	50.39978	-241.05072	-19.473267	53.7735	-210.44464	
1465366792153352	-46.800232	52.949524	-242.25006	-19.473267	53.7735	-210.44464	
1465366812966340	-48.89984	51.600647	-241.20026	-19.473267	53.7735	-210.44464	
1465366832467072	-45.599365	51.750183	-240.60059	-19.473267	53.7735	-210.44464	
1465366852608674	-46.650696	51.150513	-239.70032	-19.473267	53.7735	-210.44464	
1465366872719758	-49.20044	51.89972	-240.15045	-19.473267	53.7735	-210.44464	
1465366892891877	-48.599243	52.049255	-239.99939	-19.473267	53.7735	-210.44464	
1465366913491242	-50.39978	51.750183	-238.65051	-19.473267	53.7735	-210.44464	
1465366933144563	-50.100708	50.39978	-239.25018	-19.473267	53.7735	-210.44464	
1465366953286164	-50.549316	51.600647	-239.10065	-19.473267	53.7735	-210.44464	
1465366973458283	-48.599243	50.70038	-238.65051	-19.473267	53.7735	-210.44464	
1465366993569367	-50.549316	51.89972	-237.75024	-19.473267	53.7735	-210.44464	
1465367014595979	-48.89984	50.250244	-239.84985	-19.473267	53.7735	-210.44464	
1465367033852570	-48.30017	51.750183	-239.25018	-19.473267	53.7735	-210.44464	
1465367053994172	-47.250366	51.750183	-237.89978	-19.473267	53.7735	-210.44464	
1465367074166291	-48.30017	51.750183	-237.89978	-19.473267	53.7735	-210.44464	
1465367094277375	-48.89984	49.949646	-237.75024	-19.473267	53.7735	-210.44464	
1465367114327424	-47.850037	51.600647	-239.10065	-19.473267	53.7735	-210.44464	
1465367134591096	-47.999573	48.30017	-238.65051	-19.473267	53.7735	-210.44464	
1465367154702180	-48.599243	47.999573	-240.60059	-19.473267	53.7735	-210.44464	
1465367174843781	-48.150635	47.850037	-240.89966	-19.473267	53.7735	-210.44464	
1465367195015900	-48.150635	48.449707	-240.15045	-19.473267	53.7735	-210.44464	
1465367215310090	-47.999573	46.949768	-238.94958	-19.473267	53.7735	-210.44464	
1465367235268586	-48.599243	47.7005	-239.99939	-19.473267	53.7735	-210.44464	
1465367255410188	-48.449707	46.800232	-238.80005	-19.473267	53.7735	-210.44464	
1465367275582307	-47.54944	44.85016	-238.94958	-19.473267	53.7735	-210.44464	
1465367295723908	-49.049377	44.25049	-239.70032	-19.473267	53.7735	-210.44464	
1465367315865510	-46.650696	44.54956	-239.70032	-19.473267	53.7735	-210.44464	
1465367335976594	-46.800232	45.150757	-239.39972	-19.473267	53.7735	-210.44464	
1465367356118195	-46.949768	43.94989	-239.70032	-19.473267	53.7735	-210.44464	
1465367376290314	-45.899963	45.300293	-240.29999	-19.473267	53.7735	-210.44464	
1465367396401398	-46.20056	44.25049	-239.25018	-19.473267	53.7735	-210.44464	
1465367417000764	-46.20056	42.900085	-239.25018	-19.473267	53.7735	-210.44464	
1465367436715119	-45.300293	44.700623	-238.49945	-19.473267	53.7735	-210.44464	
1465367456856721	-44.85016	44.25049	-239.99939	-19.473267	53.7735	-210.44464	
1465367476998322	-44.999695	43.35022	-240.44952	-19.473267	53.7735	-210.44464	
1465367498665803	-45.750427	46.800232	-240.89966	-19.473267	53.7735	-210.44464	
1465367519204133	-44.099426	48.30017	-240.60059	-19.473267	53.7735	-210.44464	
1465367538857453	-45.300293	50.250244	-241.79993	-19.473267	53.7735	-210.44464	
1465367558846467	-43.499756	49.049377	-241.65039	-19.473267	53.7735	-210.44464	
1465367578835480	-44.999695	49.49951	-241.79993	-19.473267	53.7735	-210.44464	
1465367598824494	-44.54956	50.100708	-241.65039	-19.473267	53.7735	-210.44464	
1465367618844025	-44.54956	50.100708	-241.3498	-19.473267	53.7735	-210.44464	
1465367638710969	-43.04962	47.999573	-242.99927	-19.473267	53.7735	-210.44464	
1465367658761018	-43.04962	47.7005	-242.3996	-19.473267	53.7735	-210.44464	
1465367678811066	-42.599487	48.449707	-242.84973	-19.473267	53.7735	-210.44464	
1465367698800080	-42.900085	46.0495	-243.89954	-19.473267	53.7735	-210.44464	
1465367718789094	-41.85028	45.150757	-242.55066	-19.473267	53.7735	-210.44464	
1465367738808625	-40.800476	45.44983	-242.55066	-19.473267	53.7735	-210.44464	
1465367758980744	-42.599487	44.099426	-243.15033	-19.473267	53.7735	-210.44464	
1465367779122346	-42.900085	45.44983	-242.55066	-19.473267	53.7735	-210.44464	
1465367799233430	-42.300415	44.400024	-241.79993	-19.473267	53.7735	-210.44464	
1465367819802277	-43.94989	43.35022	-242.25006	-19.473267	53.7735	-210.44464	
1465367839516633	-43.04962	44.25049	-242.3996	-19.473267	53.7735	-210.44464	
1465367859658234	-43.649292	41.700745	-241.79993	-19.473267	53.7735	-210.44464	
1465367879830354	-42.75055	42.149353	-242.3996	-19.473267	53.7735	-210.44464	
1465367899941438	-43.499756	43.200684	-241.3498	-19.473267	53.7735	-210.44464	
1465367920357697	-42.75055	43.94989	-240.60059	-19.473267	53.7735	-210.44464	
1465367940255158	-41.999817	42.149353	-242.99927	-19.473267	53.7735	-210.44464	
1465367960366242	-41.700745	42.900085	-240.29999	-19.473267	53.7735	-210.44464	
1465367980538361	-41.549683	43.04962	-241.20026	-19.473267	53.7735	-210.44464	
1465368000649445	-41.09955	42.149353	-241.94946	-19.473267	53.7735	-210.44464	
1465368021462434	-43.35022	41.999817	-240.44952	-19.473267	53.7735	-210.44464	
1465368040932648	-41.549683	41.400146	-241.49933	-19.473267	53.7735	-210.44464	
1465368061104768	-40.35034	41.549683	-241.65039	-19.473267	53.7735	-210.44464	
1465368081215852	-40.35034	40.800476	-242.7002	-19.473267	53.7735	-210.44464	
1465368101387971	-40.049744	40.499878	-242.7002	-19.473267	53.7735	-210.44464	
1465368121987336	-41.549683	39.59961	-239.39972	-19.473267	53.7735	-210.44464	
1465368141671174	-42.599487	38.99994	-241.20026	-19.473267	53.7735	-210.44464	
1465368161782258	-43.35022	40.649414	-240.15045	-19.473267	53.7735	-210.44464	
1465368181954377	-42.599487	39.300537	-240.89966	-19.473267	53.7735	-210.44464	
1465368202065461	-41.400146	39.75067	-240.60059	-19.473267	53.7735	-210.44464	
1465368223092072	-42.44995	39.149475	-241.3498	-19.473267	53.7735	-210.44464	
1465368242348664	-41.700745	40.19928	-239.99939	-19.473267	53.7735	-210.44464	
1465368262490266	-41.700745	40.499878	-239.70032	-19.473267	53.7735	-210.44464	
1465368282662385	-41.25061	40.35034	-241.49933	-19.473267	53.7735	-210.44464	
1465368302773469	-40.499878	40.649414	-240.44952	-19.473267	53.7735	-210.44464	
1465368322823518	-42.599487	40.35034	-241.79993	-19.473267	53.7735	-210.44464	
1465368343087189	-41.999817	40.19928	-239.70032	-19.473267	53.7735	-210.44464	
1465368363198273	-43.35022	40.950012	-240.44952	-19.473267	53.7735	-210.44464	
1465368383370393	-41.85028	40.649414	-242.25006	-19.473267	53.7735	-210.44464	
1465368403511994	-41.549683	40.950012	-239.39972	-19.473267	53.7735	-210.44464	
1465368423775666	-41.700745	39.450073	-240.29999	-19.473267	53.7735	-210.44464	
1465368443764680	-41.400146	41.09955	-239.70032	-19.473267	53.7735	-210.44464	
1465368463936799	-43.35022	40.649414	-239.10065	-19.473267	53.7735	-210.44464	
1465368484078400	-43.800354	41.85028	-240.29999	-19.473267	53.7735	-210.44464	
1465368504220002	-44.099426	41.09955	-239.99939	-19.473267	53.7735	-210.44464	
1465368524331086	-44.999695	40.35034	-239.39972	-19.473267	53.7735	-210.44464	
1465368544472688	-44.54956	42.149353	-239.70032	-19.473267	53.7735	-210.44464	
1465368564644807	-43.649292	40.950012	-238.80005	-19.473267	53.7735	-210.44464	
1465368584755891	-44.099426	42.900085	-240.60059	-19.473267	53.7735	-210.44464	
1465368604928010	-43.649292	43.800354	-240.89966	-19.473267	53.7735	-210.44464	
1465368625466340	-45.150757	44.85016	-241.3498	-19.473267	53.7735	-210.44464	
1465368645211213	-43.04962	46.350098	-238.94958	-19.473267	53.7735	-210.44464	
1465368665322297	-44.400024	45.44983	-239.39972	-19.473267	53.7735	-210.44464	
1465368685494416	-45.300293	46.0495	-240.15045	-19.473267	53.7735	-210.44464	
1465368705605500	-46.0495	45.750427	-238.80005	-19.473267	53.7735	-210.44464	
1465368726021760	-46.800232	46.800232	-237.44965	-19.473267	53.7735	-210.44464	
1465368745919221	-45.899963	45.300293	-238.20038	-19.473267	53.7735	-210.44464	
1465368766060822	-46.0495	47.099304	-238.49945	-19.473267	53.7735	-210.44464	
1465368786202424	-48.150635	47.54944	-238.04932	-19.473267	53.7735	-210.44464	
1465368806344025	-44.700623	45.150757	-238.80005	-19.473267	53.7735	-210.44464	
1465368827126496	-47.54944	47.999573	-236.84998	-19.473267	53.7735	-210.44464	
1465368846627229	-44.999695	45.750427	-236.39984	-19.473267	53.7735	-210.44464	
1465368868325227	-46.650696	47.999573	-237.60071	-19.473267	53.7735	-210.44464	
1465368888497346	-48.150635	45.44983	-236.70044	-19.473267	53.7735	-210.44464	
1465368908364289	-46.650696	46.350098	-237.30011	-19.473267	53.7735	-210.44464	
1465368928811066	-47.099304	46.800232	-237.44965	-19.473267	53.7735	-210.44464	
1465368948494904	-47.54944	47.250366	-236.2503	-19.473267	53.7735	-210.44464	
1465368968483918	-48.449707	46.800232	-236.10077	-19.473267	53.7735	-210.44464	
1465368988472932	-46.949768	47.7005	-235.2005	-19.473267	53.7735	-210.44464	
1465369008492463	-48.89984	48.89984	-236.10077	-19.473267	53.7735	-210.44464	
1465369028664582	-49.650574	45.899963	-235.2005	-19.473267	53.7735	-210.44464	
1465369048501008	-47.399902	46.0495	-235.35004	-19.473267	53.7735	-210.44464	
1465369068459504	-47.099304	45.750427	-235.65063	-19.473267	53.7735	-210.44464	
1465369088418000	-48.599243	44.85016	-235.49957	-19.473267	53.7735	-210.44464	
1465369108468049	-47.999573	45.599365	-235.49957	-19.473267	53.7735	-210.44464	
1465369128792756	-47.399902	45.150757	-238.04932	-19.473267	53.7735	-210.44464	
1465369148720734	-47.850037	46.800232	-238.04932	-19.473267	53.7735	-210.44464	
1465369168892854	-46.800232	46.499634	-237.44965	-19.473267	53.7735	-210.44464	
1465369189003938	-47.850037	44.099426	-236.39984	-19.473267	53.7735	-210.44464	
1465369209176057	-47.250366	41.549683	-236.54938	-19.473267	53.7735	-210.44464	
1465369229866975	-47.850037	39.900208	-235.65063	-19.473267	53.7735	-210.44464	
1465369249428742	-45.750427	40.649414	-236.70044	-19.473267	53.7735	-210.44464	
1465369269570344	-46.350098	39.59961	-236.10077	-19.473267	53.7735	-210.44464	
1465369289742463	-44.700623	39.300537	-236.99951	-19.473267	53.7735	-210.44464	
1465369309884064	-43.649292	38.250732	-238.04932	-19.473267	53.7735	-210.44464	
1465369330361359	-43.94989	37.5	-236.70044	-19.473267	53.7735	-210.44464	
1465369350136750	-42.75055	37.049866	-239.25018	-19.473267	53.7735	-210.44464	
1465369370278352	-42.75055	39.149475	-237.89978	-19.473267	53.7735	-210.44464	
1465369390450471	-43.04962	38.40027	-237.60071	-19.473267	53.7735	-210.44464	
1465369410561555	-43.94989	37.5	-236.99951	-19.473267	53.7735	-210.44464	
1465369431435578	-43.94989	39.300537	-237.44965	-19.473267	53.7735	-210.44464	
1465369450844758	-43.35022	37.5	-237.75024	-19.473267	53.7735	-210.44464	
1465369471016877	-43.04962	38.40027	-237.89978	-19.473267	53.7735	-210.44464	
1465369491127961	-43.499756	37.350464	-236.84998	-19.473267	53.7735	-210.44464	
1465369511269563	-45.150757	36.749268	-239.25018	-19.473267	53.7735	-210.44464	
1465369531990998	-43.94989	40.35034	-238.80005	-19.473267	53.7735	-210.44464	
1465369551552766	-45.150757	39.450073	-236.2503	-19.473267	53.7735	-210.44464	
1465369571724885	-45.300293	39.59961	-236.99951	-19.473267	53.7735	-210.44464	
1465369591866486	-45.599365	39.149475	-237.30011	-19.473267	53.7735	-210.44464	
1465369611977570	-44.099426	38.09967	-238.20038	-19.473267	53.7735	-210.44464	
1465369632332795	-45.300293	38.99994	-236.99951	-19.473267	53.7735	-210.44464	
1465369652260773	-45.599365	38.40027	-235.49957	-19.473267	53.7735	-210.44464	
1465369672432893	-44.999695	39.300537	-234.5993	-19.473267	53.7735	-210.44464	
1465369692543977	-45.300293	38.250732	-236.70044	-19.473267	53.7735	-210.44464	
1465369712716096	-45.750427	38.99994	-236.10077	-19.473267	53.7735	-210.44464	
1465369732857697	-46.800232	40.35034	-236.10077	-19.473267	53.7735	-210.44464	
1465369752968781	-47.399902	41.400146	-235.65063	-19.473267	53.7735	-210.44464	
1465369773110383	-45.150757	39.75067	-234.44977	-19.473267	53.7735	-210.44464	
1465369793282502	-46.650696	40.499878	-235.2005	-19.473267	53.7735	-210.44464	
1465369813424104	-44.999695	39.59961	-233.99963	-19.473267	53.7735	-210.44464	
1465369833687775	-46.0495	41.400146	-233.70056	-19.473267	53.7735	-210.44464	
1465369853676789	-47.099304	39.900208	-233.70056	-19.473267	53.7735	-210.44464	
1465369873848908	-46.20056	41.85028	-236.54938	-19.473267	53.7735	-210.44464	
1465369893990510	-47.250366	42.900085	-236.54938	-19.473267	53.7735	-210.44464	
1465369914132111	-47.850037	42.75055	-235.04944	-19.473267	53.7735	-210.44464	
1465369934243195	-46.350098	43.800354	-236.99951	-19.473267	53.7735	-210.44464	
1465369954384797	-46.350098	43.800354	-234.30023	-19.473267	53.7735	-210.44464	
1465369974526398	-46.949768	44.85016	-234.8999	-19.473267	53.7735	-210.44464	
1465369994698518	-48.30017	45.300293	-234.44977	-19.473267	53.7735	-210.44464	
1465370014809602	-46.350098	43.800354	-235.35004	-19.473267	53.7735	-210.44464	
1465370035408967	-49.20044	45.44983	-235.35004	-19.473267	53.7735	-210.44464	
1465370055123322	-47.54944	43.94989	-236.2503	-19.473267	53.7735	-210.44464	
1465370075264924	-47.399902	43.04962	-234.30023	-19.473267	53.7735	-210.44464	
1465370095406525	-47.999573	43.499756	-235.2005	-19.473267	53.7735	-210.44464	
1465370115548127	-47.999573	42.599487	-234.8999	-19.473267	53.7735	-210.44464	
1465370135964387	-47.54944	44.25049	-234.44977	-19.473267	53.7735	-210.44464	
1465370155800813	-47.999573	44.25049	-234.8999	-19.473267	53.7735	-210.44464	
1465370175972932	-49.20044	44.400024	-234.5993	-19.473267	53.7735	-210.44464	
1465370196114533	-50.549316	44.099426	-232.20062	-19.473267	53.7735	-210.44464	
1465370216225617	-48.89984	44.099426	-232.65076	-19.473267	53.7735	-210.44464	
1465370238686555	-50.250244	44.400024	-233.99963	-19.473267	53.7735	-210.44464	
1465370258034699	-50.549316	45.750427	-232.65076	-19.473267	53.7735	-210.44464	
1465370278145783	-50.39978	44.54956	-233.8501	-19.473267	53.7735	-210.44464	
1465370298134797	-49.20044	44.700623	-231.90002	-19.473267	53.7735	-210.44464	
1465370318154328	-49.20044	44.099426	-233.25043	-19.473267	53.7735	-210.44464	
1465370338143342	-48.599243	44.85016	-232.4997	-19.473267	53.7735	-210.44464	
1465370358132355	-48.599243	44.85016	-233.39996	-19.473267	53.7735	-210.44464	
1465370378151887	-49.049377	45.599365	-232.4997	-19.473267	53.7735	-210.44464	
1465370398140900	-49.049377	44.54956	-234.44977	-19.473267	53.7735	-210.44464	
1465370418129914	-49.650574	45.300293	-234.1507	-19.473267	53.7735	-210.44464	
1465370438271516	-48.150635	45.750427	-232.94983	-19.473267	53.7735	-210.44464	
1465370458107941	-49.20044	45.44983	-233.25043	-19.473267	53.7735	-210.44464	
1465370478096955	-48.449707	44.700623	-231.59943	-19.473267	53.7735	-210.44464	
1465370498238557	-50.100708	44.54956	-231.44989	-19.473267	53.7735	-210.44464	
1465370518349641	-49.949646	43.35022	-230.54962	-19.473267	53.7735	-210.44464	
1465370538674348	-50.849915	44.700623	-230.54962	-19.473267	53.7735	-210.44464	
1465370558632844	-49.650574	45.300293	-229.04968	-19.473267	53.7735	-210.44464	
1465370578774445	-51.449585	44.54956	-227.99988	-19.473267	53.7735	-210.44464	
1465370598946564	-50.70038	46.949768	-227.99988	-19.473267	53.7735	-210.44464	
1465370619057648	-52.799988	44.85016	-229.35028	-19.473267	53.7735	-210.44464	
1465370639748566	-51.150513	44.85016	-230.09949	-19.473267	53.7735	-210.44464	
1465370659340852	-51.449585	45.599365	-228.30048	-19.473267	53.7735	-210.44464	
1465370679482453	-52.349854	46.499634	-228.14941	-19.473267	53.7735	-210.44464	
1465370699654572	-50.849915	45.750427	-229.94995	-19.473267	53.7735	-210.44464	
1465370719765656	-49.650574	46.949768	-230.70068	-19.473267	53.7735	-210.44464	
1465370740303986	-50.549316	48.89984	-232.20062	-19.473267	53.7735	-210.44464	
1465370760048859	-50.100708	49.650574	-230.70068	-19.473267	53.7735	-210.44464	
1465370780190461	-51.449585	51.750183	-231.75049	-19.473267	53.7735	-210.44464	
1465370800362580	-49.949646	49.49951	-229.94995	-19.473267	53.7735	-210.44464	
1465370820473664	-49.650574	51.750183	-229.35028	-19.473267	53.7735	-210.44464	
1465370841286652	-48.89984	51.600647	-230.85022	-19.473267	53.7735	-210.44464	
1465370860787385	-47.999573	50.70038	-230.70068	-19.473267	53.7735	-210.44464	
1465370880928986	-47.999573	51.750183	-232.4997	-19.473267	53.7735	-210.44464	
1465370901040070	-49.949646	52.349854	-232.20062	-19.473267	53.7735	-210.44464	
1465370921181672	-47.999573	52.799988	-232.8003	-19.473267	53.7735	-210.44464	
1465370941781037	-49.20044	53.99933	-233.70056	-19.473267	53.7735	-210.44464	
1465370961495393	-47.999573	54.899597	-232.04956	-19.473267	53.7735	-210.44464	
1465370981636994	-46.800232	54.75006	-231.90002	-19.473267	53.7735	-210.44464	
1465371001778596	-45.599365	57.299805	-233.39996	-19.473267	53.7735	-210.44464	
1465371021889680	-46.650696	57.600403	-233.8501	-19.473267	53.7735	-210.44464	
1465371042733186	-46.800232	58.50067	-233.70056	-19.473267	53.7735	-210.44464	
1465371062172883	-47.54944	60.299683	-232.8003	-19.473267	53.7735	-210.44464	
1465371082314484	-46.20056	59.249878	-233.09937	-19.473267	53.7735	-210.44464	
1465371102486604	-46.350098	59.399414	-232.94983	-19.473267	53.7735	-210.44464	
1465371122597688	-44.999695	62.550354	-233.70056	-19.473267	53.7735	-210.44464	
1465371143258088	-43.35022	63.900757	-235.04944	-19.473267	53.7735	-210.44464	
1465371162880891	-42.44995	64.05029	-235.49957	-19.473267	53.7735	-210.44464	
1465371183022492	-40.049744	66.1499	-235.80017	-19.473267	53.7735	-210.44464	
1465371203194611	-39.450073	65.69977	-234.5993	-19.473267	53.7735	-210.44464	
1465371223305695	-41.85028	67.05017	-237.44965	-19.473267	53.7735	-210.44464	
1465371243630402	-41.25061	66.29944	-236.39984	-19.473267	53.7735	-210.44464	
1465371263619416	-40.800476	66.60004	-235.04944	-19.473267	53.7735	-210.44464	
1465371283761018	-41.09955	66.1499	-234.1507	-19.473267	53.7735	-210.44464	
1465371303902619	-43.04962	67.500305	-234.44977	-19.473267	53.7735	-210.44464	
1465371324013703	-41.549683	66.60004	-236.39984	-19.473267	53.7735	-210.44464	
1465371344155305	-40.649414	67.79938	-234.8999	-19.473267	53.7735	-210.44464	
1465371364327424	-39.59961	67.500305	-235.80017	-19.473267	53.7735	-210.44464	
1465371384469025	-40.19928	68.699646	-234.30023	-19.473267	53.7735	-210.44464	
1465371404580109	-37.5	68.55011	-234.8999	-19.473267	53.7735	-210.44464	
1465371424752229	-40.049744	67.79938	-235.49957	-19.473267	53.7735	-210.44464	
1465371445046418	-39.450073	68.40057	-234.30023	-19.473267	53.7735	-210.44464	
1465371465004914	-41.700745	66.4505	-235.2005	-19.473267	53.7735	-210.44464	
1465371485146516	-41.09955	68.55011	-235.2005	-19.473267	53.7735	-210.44464	
1465371505318635	-40.649414	66.1499	-235.49957	-19.473267	53.7735	-210.44464	
1465371525429719	-39.75067	67.34924	-235.35004	-19.473267	53.7735	-210.44464	
1465371545571320	-39.450073	67.34924	-235.35004	-19.473267	53.7735	-210.44464	
1465371565743439	-39.59961	66.74957	-235.2005	-19.473267	53.7735	-210.44464	
1465371585885041	-40.35034	67.79938	-234.8999	-19.473267	53.7735	-210.44464	
1465371605996125	-39.59961	67.500305	-236.2503	-19.473267	53.7735	-210.44464	
1465371627694123	-39.75067	66.29944	-236.99951	-19.473267	53.7735	-210.44464	
1465371648262971	-38.850403	63.900757	-236.70044	-19.473267	53.7735	-210.44464	
1465371667794221	-40.19928	66.60004	-236.99951	-19.473267	53.7735	-210.44464	
1465371687813752	-39.300537	66.1499	-237.60071	-19.473267	53.7735	-210.44464	
1465371707741730	-38.250732	65.400696	-236.54938	-19.473267	53.7735	-210.44464	
1465371727791779	-38.40027	66.60004	-239.10065	-19.473267	53.7735	-210.44464	
1465371747780793	-37.5	67.19971	-238.20038	-19.473267	53.7735	-210.44464	
1465371767800324	-37.5	66.1499	-238.65051	-19.473267	53.7735	-210.44464	
1465371787758820	-37.1994	65.849304	-239.70032	-19.473267	53.7735	-210.44464	
1465371807778352	-36.749268	65.69977	-239.39972	-19.473267	53.7735	-210.44464	
1465371827767365	-37.049866	64.95056	-238.49945	-19.473267	53.7735	-210.44464	
1465371847939484	-38.09967	65.69977	-239.84985	-19.473267	53.7735	-210.44464	
1465371867867463	-36.00006	66.29944	-238.04932	-19.473267	53.7735	-210.44464	
1465371888009064	-36.30066	66.60004	-239.39972	-19.473267	53.7735	-210.44464	
1465371908150666	-37.5	66.74957	-239.25018	-19.473267	53.7735	-210.44464	
1465371928261750	-36.30066	67.64984	-238.80005	-19.473267	53.7735	-210.44464	
1465371948586457	-36.149597	65.400696	-238.20038	-19.473267	53.7735	-210.44464	
1465371968575471	-37.049866	64.95056	-239.39972	-19.473267	53.7735	-210.44464	
1465371988717072	-38.09967	65.69977	-238.80005	-19.473267	53.7735	-210.44464	
1465372008858674	-38.40027	65.69977	-238.80005	-19.473267	53.7735	-210.44464	
1465372029000275	-37.5	65.849304	-238.94958	-19.473267	53.7735	-210.44464	
1465372049660676	-38.09967	67.95044	-238.80005	-19.473267	53.7735	-210.44464	
1465372069283479	-37.350464	65.24963	-238.04932	-19.473267	53.7735	-210.44464	
1465372089394563	-37.1994	65.400696	-240.29999	-19.473267	53.7735	-210.44464	
1465372109566682	-36.90033	66.4505	-239.25018	-19.473267	53.7735	-210.44464	
1465372129708283	-36.749268	66.00037	-240.15045	-19.473267	53.7735	-210.44464	
1465372150216096	-38.09967	66.60004	-240.89966	-19.473267	53.7735	-210.44464	
1465372169960969	-37.5	66.1499	-238.20038	-19.473267	53.7735	-210.44464	
1465372190133088	-36.00006	67.64984	-239.10065	-19.473267	53.7735	-210.44464	
1465372210274689	-37.8006	67.05017	-240.15045	-19.473267	53.7735	-210.44464	
1465372230385773	-36.00006	66.00037	-241.20026	-19.473267	53.7735	-210.44464	
1465372251198762	-35.850525	68.55011	-239.70032	-19.473267	53.7735	-210.44464	
1465372270668977	-37.1994	67.19971	-239.70032	-19.473267	53.7735	-210.44464	
1465372290810578	-39.300537	64.05029	-239.25018	-19.473267	53.7735	-210.44464	
1465372310982697	-38.99994	65.400696	-239.70032	-19.473267	53.7735	-210.44464	
1465372331093781	-37.350464	65.24963	-240.15045	-19.473267	53.7735	-210.44464	
1465372351693146	-39.300537	63.749695	-241.3498	-19.473267	53.7735	-210.44464	
1465372371376984	-39.300537	63.450623	-241.05072	-19.473267	53.7735	-210.44464	
1465372391549104	-40.049744	64.7995	-240.60059	-19.473267	53.7735	-210.44464	
1465372411660188	-37.1994	64.50043	-240.60059	-19.473267	53.7735	-210.44464	
1465372431832307	-38.40027	62.849426	-239.84985	-19.473267	53.7735	-210.44464	
1465372452797883	-39.75067	63.900757	-240.89966	-19.473267	53.7735	-210.44464	
1465372472115510	-39.75067	62.849426	-240.44952	-19.473267	53.7735	-210.44464	
1465372492226594	-40.35034	63.00049	-239.99939	-19.473267	53.7735	-210.44464	
1465372512398713	-41.999817	62.10022	-241.3498	-19.473267	53.7735	-210.44464	
1465372532540314	-40.649414	61.650085	-241.05072	-19.473267	53.7735	-210.44464	
1465372552987092	-42.300415	60.450745	-238.80005	-19.473267	53.7735	-210.44464	
1465372572731965	-40.649414	61.050415	-239.99939	-19.473267	53.7735	-210.44464	
1465372592965119	-41.549683	62.550354	-238.49945	-19.473267	53.7735	-210.44464	
1465372613076203	-42.44995	61.050415	-239.25018	-19.473267	53.7735	-210.44464	
1465372633217805	-43.800354	60.00061	-240.29999	-19.473267	53.7735	-210.44464	
1465372653542512	-43.800354	60.00061	-239.70032	-19.473267	53.7735	-210.44464	
1465372673531525	-41.09955	58.94928	-239.70032	-19.473267	53.7735	-210.44464	
1465372693673127	-43.800354	60.00061	-239.99939	-19.473267	53.7735	-210.44464	
1465372713814729	-41.999817	59.700012	-239.99939	-19.473267	53.7735	-210.44464	
1465372733977427	-41.400146	58.650208	-239.25018	-19.473267	53.7735	-210.44464	
1465372754119029	-39.450073	60.150146	-239.84985	-19.473267	53.7735	-210.44464	
1465372774260630	-40.649414	60.299683	-239.99939	-19.473267	53.7735	-210.44464	
1465372794371714	-40.19928	62.249756	-241.79993	-19.473267	53.7735	-210.44464	
1465372814543833	-39.300537	62.10022	-242.7002	-19.473267	53.7735	-210.44464	
1465372834654917	-37.350464	60.150146	-244.94934	-19.473267	53.7735	-210.44464	
1465372855223765	-37.5	62.10022	-242.7002	-19.473267	53.7735	-210.44464	
1465372874938120	-38.250732	63.749695	-242.3996	-19.473267	53.7735	-210.44464	
1465372895079722	-37.950134	62.399292	-241.3498	-19.473267	53.7735	-210.44464	
1465372915251841	-37.950134	63.450623	-242.3996	-19.473267	53.7735	-210.44464	
1465372935362925	-37.950134	63.00049	-241.94946	-19.473267	53.7735	-210.44464	
1465372955809702	-40.19928	63.60016	-241.49933	-19.473267	53.7735	-210.44464	
1465372975676646	-38.99994	62.399292	-241.94946	-19.473267	53.7735	-210.44464	
1465372997344126	-39.75067	62.249756	-240.89966	-19.473267	53.7735	-210.44464	
1465373017485728	-40.049744	61.349487	-241.05072	-19.473267	53.7735	-210.44464	
1465373037474742	-40.35034	61.650085	-241.3498	-19.473267	53.7735	-210.44464	
1465373057646861	-37.950134	61.650085	-241.3498	-19.473267	53.7735	-210.44464	
1465373077452769	-39.59961	61.050415	-241.05072	-19.473267	53.7735	-210.44464	
1465373097441783	-39.75067	61.19995	-241.79993	-19.473267	53.7735	-210.44464	
1465373117461314	-40.649414	61.349487	-241.3498	-19.473267	53.7735	-210.44464	
1465373137450327	-40.649414	60.60028	-242.3996	-19.473267	53.7735	-210.44464	
1465373157439341	-38.549805	60.00061	-242.3996	-19.473267	53.7735	-210.44464	
1465373177458872	-38.99994	60.00061	-243.4494	-19.473267	53.7735	-210.44464	
1465373197417368	-39.75067	60.899353	-240.44952	-19.473267	53.7735	-210.44464	
1465373217436900	-39.149475	57.74994	-241.79993	-19.473267	53.7735	-210.44464	
1465373237517466	-38.09967	59.10034	-241.79993	-19.473267	53.7735	-210.44464	
1465373258086314	-38.99994	60.60028	-241.65039	-19.473267	53.7735	-210.44464	
1465373277800669	-39.450073	60.150146	-240.89966	-19.473267	53.7735	-210.44464	
1465373297911753	-38.549805	60.00061	-241.3498	-19.473267	53.7735	-210.44464	
1465373318083872	-39.450073	59.399414	-242.84973	-19.473267	53.7735	-210.44464	
1465373338194956	-41.400146	60.60028	-241.3498	-19.473267	53.7735	-210.44464	
1465373358641734	-38.40027	60.899353	-241.79993	-19.473267	53.7735	-210.44464	
1465373378478160	-41.85028	60.150146	-239.84985	-19.473267	53.7735	-210.44464	
1465373398619761	-39.59961	60.60028	-241.65039	-19.473267	53.7735	-210.44464	
1465373418791880	-40.049744	61.650085	-239.25018	-19.473267	53.7735	-210.44464	
1465373438902964	-41.999817	60.60028	-238.65051	-19.473267	53.7735	-210.44464	
1465373459715952	-40.499878	61.79962	-239.84985	-19.473267	53.7735	-210.44464	
1465373479216685	-41.25061	60.899353	-239.84985	-19.473267	53.7735	-210.44464	
1465373499327769	-40.499878	61.50055	-241.20026	-19.473267	53.7735	-210.44464	
1465373519499888	-41.400146	60.60028	-241.05072	-19.473267	53.7735	-210.44464	
1465373539610972	-41.400146	60.00061	-240.29999	-19.473267	53.7735	-210.44464	
1465373560271372	-42.300415	59.84955	-239.10065	-19.473267	53.7735	-210.44464	
1465373579924693	-41.400146	58.94928	-238.20038	-19.473267	53.7735	-210.44464	
1465373600066294	-42.75055	59.249878	-238.65051	-19.473267	53.7735	-210.44464	
1465373620207896	-41.85028	58.050537	-239.39972	-19.473267	53.7735	-210.44464	
1465373640349497	-43.94989	58.050537	-238.49945	-19.473267	53.7735	-210.44464	
1465373660643687	-42.599487	58.799744	-238.49945	-19.473267	53.7735	-210.44464	
1465373680602183	-42.44995	58.650208	-239.70032	-19.473267	53.7735	-210.44464	
1465373700774302	-43.499756	56.5506	-237.89978	-19.473267	53.7735	-210.44464	
1465373720854868	-42.900085	58.50067	-239.39972	-19.473267	53.7735	-210.44464	
1465373741026988	-41.400146	58.200073	-237.89978	-19.473267	53.7735	-210.44464	
1465373761199107	-43.35022	58.050537	-237.44965	-19.473267	53.7735	-210.44464	
1465373781340708	-45.150757	56.84967	-238.65051	-19.473267	53.7735	-210.44464	
1465373801451792	-43.94989	56.700134	-238.49945	-19.473267	53.7735	-210.44464	
1465373821623911	-43.800354	56.5506	-236.84998	-19.473267	53.7735	-210.44464	
1465373841765513	-44.999695	57.74994	-236.99951	-19.473267	53.7735	-210.44464	
1465373862029185	-44.099426	59.249878	-237.89978	-19.473267	53.7735	-210.44464	
1465373882018199	-42.900085	59.10034	-237.44965	-19.473267	53.7735	-210.44464	
1465373902190318	-42.900085	58.799744	-238.49945	-19.473267	53.7735	-210.44464	
1465373922331919	-43.35022	60.450745	-238.04932	-19.473267	53.7735	-210.44464	
1465373942443003	-42.599487	59.84955	-236.70044	-19.473267	53.7735	-210.44464	
1465373962584605	-43.94989	61.19995	-237.44965	-19.473267	53.7735	-210.44464	
1465373982756724	-45.300293	61.79962	-236.39984	-19.473267	53.7735	-210.44464	
1465374002898326	-41.999817	62.69989	-237.30011	-19.473267	53.7735	-210.44464	
1465374023039927	-43.35022	62.849426	-236.39984	-19.473267	53.7735	-210.44464	
1465374043151011	-41.549683	63.29956	-238.80005	-19.473267	53.7735	-210.44464	
1465374063750376	-40.19928	63.60016	-238.04932	-19.473267	53.7735	-210.44464	
1465374083464732	-40.049744	63.749695	-238.20038	-19.473267	53.7735	-210.44464	
1465374103606333	-38.850403	64.19983	-239.84985	-19.473267	53.7735	-210.44464	
1465374123717417	-40.499878	64.64996	-237.75024	-19.473267	53.7735	-210.44464	
1465374143889536	-38.99994	64.7995	-239.99939	-19.473267	53.7735	-210.44464	
1465374164275279	-40.499878	64.95056	-239.10065	-19.473267	53.7735	-210.44464	
1465374184142222	-38.549805	64.05029	-238.94958	-19.473267	53.7735	-210.44464	
1465374204283824	-39.300537	62.69989	-239.70032	-19.473267	53.7735	-210.44464	
1465374224455943	-39.75067	64.64996	-238.04932	-19.473267	53.7735	-210.44464	
1465374244567027	-39.450073	62.550354	-238.04932	-19.473267	53.7735	-210.44464	
1465374265380015	-38.40027	61.79962	-238.80005	-19.473267	53.7735	-210.44464	
1465374284880747	-40.19928	63.29956	-239.10065	-19.473267	53.7735	-210.44464	
1465374305022349	-39.450073	62.849426	-239.39972	-19.473267	53.7735	-210.44464	
1465374325163951	-40.35034	65.1001	-237.30011	-19.473267	53.7735	-210.44464	
1465374345305552	-39.75067	63.60016	-238.49945	-19.473267	53.7735	-210.44464	
1465374367552867	-38.99994	60.00061	-238.20038	-19.473267	53.7735	-210.44464	
1465374387175669	-40.649414	63.00049	-236.54938	-19.473267	53.7735	-210.44464	
1465374407134165	-39.59961	61.349487	-236.54938	-19.473267	53.7735	-210.44464	
1465374427153697	-41.25061	61.79962	-235.65063	-19.473267	53.7735	-210.44464	
1465374447142710	-41.400146	61.650085	-235.80017	-19.473267	53.7735	-210.44464	
1465374467314829	-41.700745	62.69989	-236.84998	-19.473267	53.7735	-210.44464	
1465374487151255	-39.59961	61.650085	-235.80017	-19.473267	53.7735	-210.44464	
1465374507140269	-41.09955	63.450623	-236.54938	-19.473267	53.7735	-210.44464	
1465374527098765	-40.499878	62.249756	-236.39984	-19.473267	53.7735	-210.44464	
1465374547118296	-39.75067	62.849426	-237.44965	-19.473267	53.7735	-210.44464	
1465374567107310	-40.499878	63.29956	-235.65063	-19.473267	53.7735	-210.44464	
1465374587126841	-40.049744	63.450623	-236.84998	-19.473267	53.7735	-210.44464	
1465374607146372	-39.450073	60.450745	-236.99951	-19.473267	53.7735	-210.44464	
1465374627287974	-39.75067	62.249756	-237.75024	-19.473267	53.7735	-210.44464	
1465374647460093	-38.40027	62.550354	-235.65063	-19.473267	53.7735	-210.44464	
1465374667906870	-39.149475	61.50055	-234.5993	-19.473267	53.7735	-210.44464	
1465374687682261	-39.59961	61.650085	-235.49957	-19.473267	53.7735	-210.44464	
1465374707823863	-39.149475	62.550354	-235.35004	-19.473267	53.7735	-210.44464	
1465374727995982	-37.950134	62.69989	-235.49957	-19.473267	53.7735	-210.44464	
1465374748107066	-38.99994	63.450623	-233.8501	-19.473267	53.7735	-210.44464	
1465374768492808	-38.09967	61.79962	-235.04944	-19.473267	53.7735	-210.44464	
1465374788298716	-38.99994	62.399292	-234.8999	-19.473267	53.7735	-210.44464	
1465374808531870	-37.049866	61.50055	-235.35004	-19.473267	53.7735	-210.44464	
1465374828703990	-37.350464	61.19995	-235.35004	-19.473267	53.7735	-210.44464	
1465374848815074	-37.5	61.050415	-236.2503	-19.473267	53.7735	-210.44464	
1465374869597544	-38.549805	60.60028	-236.2503	-19.473267	53.7735	-210.44464	
1465374889098277	-36.30066	64.19983	-235.65063	-19.473267	53.7735	-210.44464	
1465374909270396	-36.149597	63.450623	-236.2503	-19.473267	53.7735	-210.44464	
1465374929289927	-35.24933	63.29956	-235.35004	-19.473267	53.7735	-210.44464	
1465374949523081	-35.549927	64.7995	-236.84998	-19.473267	53.7735	-210.44464	
1465374970122447	-34.950256	62.249756	-237.75024	-19.473267	53.7735	-210.44464	
1465374989806285	-34.500122	65.1001	-237.30011	-19.473267	53.7735	-210.44464	
1465375009978404	-34.500122	64.50043	-238.20038	-19.473267	53.7735	-210.44464	
1465375030089488	-33.299255	66.00037	-235.65063	-19.473267	53.7735	-210.44464	
1465375050261607	-33.599854	65.24963	-238.04932	-19.473267	53.7735	-210.44464	
1465375071227183	-31.350708	66.4505	-237.60071	-19.473267	53.7735	-210.44464	
1465375090544810	-31.350708	66.4505	-237.30011	-19.473267	53.7735	-210.44464	
1465375110655894	-31.199646	67.95044	-239.10065	-19.473267	53.7735	-210.44464	
1465375130828013	-33.450317	67.19971	-238.94958	-19.473267	53.7735	-210.44464	
1465375150939097	-29.400635	66.60004	-240.15045	-19.473267	53.7735	-210.44464	
1465375170958628	-31.64978	68.24951	-238.65051	-19.473267	53.7735	-210.44464	
1465375191222300	-31.500244	66.29944	-239.39972	-19.473267	53.7735	-210.44464	
1465375211394419	-31.799316	67.64984	-238.80005	-19.473267	53.7735	-210.44464	
1465375231505503	-32.55005	66.00037	-239.39972	-19.473267	53.7735	-210.44464	
1465375251677622	-31.350708	66.4505	-239.25018	-19.473267	53.7735	-210.44464	
1465375271971812	-30.599976	66.74957	-238.20038	-19.473267	53.7735	-210.44464	
1465375291930308	-30.599976	68.55011	-239.25018	-19.473267	53.7735	-210.44464	
1465375312071910	-30.749512	68.40057	-240.89966	-19.473267	53.7735	-210.44464	
1465375332213511	-30.45044	68.699646	-239.84985	-19.473267	53.7735	-210.44464	
1465375352355113	-29.100037	68.699646	-239.10065	-19.473267	53.7735	-210.44464	
1465375372527232	-29.55017	70.199585	-239.99939	-19.473267	53.7735	-210.44464	
1465375392638316	-29.55017	70.95032	-241.65039	-19.473267	53.7735	-210.44464	
1465375412779917	-31.500244	70.35065	-239.39972	-19.473267	53.7735	-210.44464	
1465375432952036	-29.249573	69.14978	-240.60059	-19.473267	53.7735	-210.44464	
1465375453063120	-31.199646	70.05005	-238.80005	-19.473267	53.7735	-210.44464	
1465375473631968	-30.149841	72.14966	-239.10065	-19.473267	53.7735	-210.44464	
1465375493346324	-30.299377	72.00012	-239.25018	-19.473267	53.7735	-210.44464	
1465375513518443	-29.699707	71.850586	-237.75024	-19.473267	53.7735	-210.44464	
1465375533660044	-29.699707	72.74933	-240.15045	-19.473267	53.7735	-210.44464	
1465375553771128	-29.55017	72.00012	-241.3498	-19.473267	53.7735	-210.44464	
1465375574217906	-31.64978	72.00012	-239.25018	-19.473267	53.7735	-210.44464	
1465375594054331	-30.299377	72.00012	-242.3996	-19.473267	53.7735	-210.44464	
1465375614226451	-29.699707	73.19946	-241.79993	-19.473267	53.7735	-210.44464	
1465375634337535	-29.55017	72.30072	-240.60059	-19.473267	53.7735	-210.44464	
1465375654509654	-31.199646	72.14966	-240.89966	-19.473267	53.7735	-210.44464	
1465375675322642	-31.64978	72.30072	-240.60059	-19.473267	53.7735	-210.44464	
1465375694792857	-31.799316	72.45026	-241.79993	-19.473267	53.7735	-210.44464	
1465375714934458	-32.400513	72.59979	-241.65039	-19.473267	53.7735	-210.44464	
1465375736601939	-34.80072	73.6496	-239.99939	-19.473267	53.7735	-210.44464	
1465375756804576	-33.90045	73.19946	-241.49933	-19.473267	53.7735	-210.44464	
1465375777129283	-33.599854	73.80066	-239.10065	-19.473267	53.7735	-210.44464	
1465375796813120	-34.049988	73.04993	-241.3498	-19.473267	53.7735	-210.44464	
1465375816771617	-34.500122	73.6496	-240.29999	-19.473267	53.7735	-210.44464	
1465375836760630	-35.699463	73.50006	-240.15045	-19.473267	53.7735	-210.44464	
1465375856780161	-36.00006	73.19946	-240.44952	-19.473267	53.7735	-210.44464	
1465375876952281	-35.24933	72.14966	-239.39972	-19.473267	53.7735	-210.44464	
1465375896758189	-36.149597	73.04993	-240.60059	-19.473267	53.7735	-210.44464	
1465375916747202	-34.500122	72.30072	-239.99939	-19.473267	53.7735	-210.44464	
1465375936644663	-32.699585	72.59979	-241.05072	-19.473267	53.7735	-210.44464	
1465375956633677	-36.450195	71.54999	-239.99939	-19.473267	53.7735	-210.44464	
1465375976958384	-35.099792	71.24939	-240.60059	-19.473267	53.7735	-210.44464	
1465375996916880	-35.24933	72.45026	-241.49933	-19.473267	53.7735	-210.44464	
1465376017027964	-34.049988	73.04993	-239.99939	-19.473267	53.7735	-210.44464	
1465376037200083	-34.500122	73.350525	-239.99939	-19.473267	53.7735	-210.44464	
1465376057311167	-34.500122	73.350525	-239.99939	-19.473267	53.7735	-210.44464	
1465376078032603	-34.64966	72.74933	-240.44952	-19.473267	53.7735	-210.44464	
1465376097594370	-33.90045	72.14966	-240.89966	-19.473267	53.7735	-210.44464	
1465376117735972	-32.850647	72.14966	-240.89966	-19.473267	53.7735	-210.44464	
1465376137908091	-34.80072	73.04993	-238.94958	-19.473267	53.7735	-210.44464	
1465376158019175	-34.80072	73.04993	-241.3498	-19.473267	53.7735	-210.44464	
1465376178588023	-34.500122	73.350525	-240.29999	-19.473267	53.7735	-210.44464	
1465376198332896	-34.80072	72.30072	-240.60059	-19.473267	53.7735	-210.44464	
1465376218443980	-34.500122	71.24939	-240.60059	-19.473267	53.7735	-210.44464	
1465376238585581	-35.850525	70.95032	-239.25018	-19.473267	53.7735	-210.44464	
1465376258757701	-34.80072	71.24939	-240.29999	-19.473267	53.7735	-210.44464	
1465376279570689	-37.350464	72.14966	-239.84985	-19.473267	53.7735	-210.44464	
1465376299010386	-37.8006	71.09985	-240.89966	-19.473267	53.7735	-210.44464	
1465376319151988	-36.30066	71.850586	-240.44952	-19.473267	53.7735	-210.44464	
1465376339324107	-35.549927	71.54999	-240.29999	-19.473267	53.7735	-210.44464	
1465376359435191	-36.149597	72.30072	-239.25018	-19.473267	53.7735	-210.44464	
1465376380065074	-36.450195	71.54999	-239.99939	-19.473267	53.7735	-210.44464	
1465376399748911	-38.250732	72.00012	-238.94958	-19.473267	53.7735	-210.44464	
1465376419859995	-37.5	73.350525	-239.25018	-19.473267	53.7735	-210.44464	
1465376440001597	-38.09967	73.19946	-238.80005	-19.473267	53.7735	-210.44464	
1465376460143199	-36.30066	70.799255	-238.80005	-19.473267	53.7735	-210.44464	
1465376481169810	-37.049866	70.35065	-239.10065	-19.473267	53.7735	-210.44464	
1465376500456919	-38.850403	69.74945	-238.80005	-19.473267	53.7735	-210.44464	
1465376520598521	-39.300537	71.24939	-239.25018	-19.473267	53.7735	-210.44464	
1465376540709605	-37.950134	70.95032	-238.20038	-19.473267	53.7735	-210.44464	
1465376560881724	-38.40027	71.09985	-236.70044	-19.473267	53.7735	-210.44464	
1465376580901255	-37.8006	71.850586	-238.04932	-19.473267	53.7735	-210.44464	
1465376601134410	-39.59961	70.95032	-238.20038	-19.473267	53.7735	-210.44464	
1465376621276011	-40.049744	69.599915	-237.89978	-19.473267	53.7735	-210.44464	
1465376641448130	-40.800476	70.35065	-238.04932	-19.473267	53.7735	-210.44464	
1465376661589732	-39.75067	69.000244	-236.99951	-19.473267	53.7735	-210.44464	
1465376681883921	-39.75067	67.95044	-237.75024	-19.473267	53.7735	-210.44464	
1465376701842417	-41.25061	69.45038	-238.49945	-19.473267	53.7735	-210.44464	
1465376722014536	-41.25061	69.45038	-236.70044	-19.473267	53.7735	-210.44464	
1465376742125620	-43.04962	69.14978	-236.84998	-19.473267	53.7735	-210.44464	
1465376762297740	-41.700745	68.55011	-236.84998	-19.473267	53.7735	-210.44464	
1465376782439341	-40.800476	69.45038	-237.44965	-19.473267	53.7735	-210.44464	
1465376802550425	-42.300415	68.40057	-236.70044	-19.473267	53.7735	-210.44464	
1465376822692027	-42.44995	68.24951	-235.80017	-19.473267	53.7735	-210.44464	
1465376842864146	-43.800354	68.24951	-236.54938	-19.473267	53.7735	-210.44464	
1465376863005747	-43.35022	68.40057	-236.99951	-19.473267	53.7735	-210.44464	
1465376883574595	-41.549683	67.34924	-236.10077	-19.473267	53.7735	-210.44464	
1465376903288951	-43.04962	67.500305	-236.84998	-19.473267	53.7735	-210.44464	
1465376923400035	-43.649292	68.699646	-237.75024	-19.473267	53.7735	-210.44464	
1465376943572154	-43.649292	68.40057	-236.39984	-19.473267	53.7735	-210.44464	
1465376963713755	-44.099426	68.85071	-234.1507	-19.473267	53.7735	-210.44464	
1465376984130015	-40.499878	69.000244	-237.44965	-19.473267	53.7735	-210.44464	
1465377003996958	-40.19928	69.000244	-235.65063	-19.473267	53.7735	-210.44464	
1465377024138560	-39.75067	70.35065	-236.39984	-19.473267	53.7735	-210.44464	
1465377044249644	-40.19928	71.850586	-235.35004	-19.473267	53.7735	-210.44464	
1465377064421763	-39.450073	71.850586	-236.39984	-19.473267	53.7735	-210.44464	
1465377085234751	-37.950134	71.24939	-236.84998	-19.473267	53.7735	-210.44464	
1465377106261363	-38.250732	73.350525	-235.49957	-19.473267	53.7735	-210.44464	
1465377126463999	-38.250732	72.59979	-237.89978	-19.473267	53.7735	-210.44464	
1465377146422495	-37.049866	72.45026	-236.10077	-19.473267	53.7735	-210.44464	
1465377166442027	-38.549805	72.00012	-236.54938	-19.473267	53.7735	-210.44464	
1465377186766734	-37.5	70.95032	-237.30011	-19.473267	53.7735	-210.44464	
1465377206420054	-37.350464	72.14966	-237.75024	-19.473267	53.7735	-210.44464	
1465377226317515	-39.149475	70.799255	-239.10065	-19.473267	53.7735	-210.44464	
1465377246306529	-37.5	71.54999	-237.89978	-19.473267	53.7735	-210.44464	
1465377266295542	-39.149475	70.35065	-237.44965	-19.473267	53.7735	-210.44464	
1465377286467661	-38.250732	71.24939	-236.54938	-19.473267	53.7735	-210.44464	
1465377306304087	-37.350464	71.40045	-237.44965	-19.473267	53.7735	-210.44464	
1465377326293101	-37.5	71.54999	-238.20038	-19.473267	53.7735	-210.44464	
1465377346373667	-39.59961	71.54999	-236.84998	-19.473267	53.7735	-210.44464	
1465377366545786	-37.350464	71.09985	-238.04932	-19.473267	53.7735	-210.44464	
1465377386809458	-37.350464	71.09985	-238.04932	-19.473267	53.7735	-210.44464	
1465377406798472	-36.149597	72.00012	-236.54938	-19.473267	53.7735	-210.44464	
1465377426940074	-37.5	72.30072	-237.89978	-19.473267	53.7735	-210.44464	
1465377447112193	-35.099792	70.95032	-238.20038	-19.473267	53.7735	-210.44464	
1465377467223277	-38.549805	71.24939	-237.89978	-19.473267	53.7735	-210.44464	
1465377487883677	-37.8006	70.05005	-236.39984	-19.473267	53.7735	-210.44464	
1465377507536997	-38.40027	72.45026	-236.70044	-19.473267	53.7735	-210.44464	
1465377527678599	-38.40027	72.14966	-236.39984	-19.473267	53.7735	-210.44464	
1465377547820201	-37.1994	74.6994	-236.84998	-19.473267	53.7735	-210.44464	
1465377567961802	-37.049866	71.850586	-238.04932	-19.473267	53.7735	-210.44464	
1465377588408579	-37.350464	72.74933	-236.70044	-19.473267	53.7735	-210.44464	
1465377608214488	-38.250732	72.30072	-237.60071	-19.473267	53.7735	-210.44464	
1465377628386607	-38.09967	72.14966	-236.39984	-19.473267	53.7735	-210.44464	
1465377648528208	-38.250732	70.95032	-235.80017	-19.473267	53.7735	-210.44464	
1465377668669810	-38.549805	71.24939	-235.2005	-19.473267	53.7735	-210.44464	
1465377689513316	-38.850403	71.09985	-237.44965	-19.473267	53.7735	-210.44464	
1465377708953013	-37.049866	69.45038	-236.39984	-19.473267	53.7735	-210.44464	
1465377729064097	-39.300537	70.199585	-237.30011	-19.473267	53.7735	-210.44464	
1465377749236216	-38.09967	70.35065	-237.44965	-19.473267	53.7735	-210.44464	
1465377769347300	-39.149475	68.40057	-237.75024	-19.473267	53.7735	-210.44464	
1465377790038218	-39.149475	69.74945	-237.44965	-19.473267	53.7735	-210.44464	
1465377809630503	-40.35034	69.14978	-237.30011	-19.473267	53.7735	-210.44464	
1465377829772105	-40.35034	68.24951	-236.54938	-19.473267	53.7735	-210.44464	
1465377849944224	-40.649414	68.24951	-236.84998	-19.473267	53.7735	-210.44464	
1465377870055308	-39.149475	69.000244	-236.70044	-19.473267	53.7735	-210.44464	
1465377890380015	-41.400146	68.24951	-237.89978	-19.473267	53.7735	-210.44464	
1465377910338511	-41.400146	68.55011	-236.2503	-19.473267	53.7735	-210.44464	
1465377930480113	-42.75055	66.4505	-236.54938	-19.473267	53.7735	-210.44464	
1465377950621714	-40.499878	66.29944	-236.39984	-19.473267	53.7735	-210.44464	
1465377970763316	-40.049744	68.55011	-237.30011	-19.473267	53.7735	-210.44464	
1465377990935435	-41.85028	67.64984	-237.44965	-19.473267	53.7735	-210.44464	
1465378011077036	-40.049744	69.599915	-237.60071	-19.473267	53.7735	-210.44464	
1465378031188120	-40.649414	69.599915	-236.84998	-19.473267	53.7735	-210.44464	
1465378051329722	-40.049744	69.599915	-236.2503	-19.473267	53.7735	-210.44464	
1465378071501841	-39.300537	68.85071	-238.65051	-19.473267	53.7735	-210.44464	
1465378091796031	-38.99994	69.90051	-237.60071	-19.473267	53.7735	-210.44464	
1465378111754527	-39.75067	70.35065	-237.44965	-19.473267	53.7735	-210.44464	
1465378131896128	-38.850403	70.35065	-237.75024	-19.473267	53.7735	-210.44464	
1465378152068247	-38.250732	70.95032	-235.80017	-19.473267	53.7735	-210.44464	
1465378172209849	-38.850403	71.850586	-237.75024	-19.473267	53.7735	-210.44464	
1465378192320933	-37.8006	70.799255	-236.10077	-19.473267	53.7735	-210.44464	
1465378212462535	-38.99994	69.90051	-236.2503	-19.473267	53.7735	-210.44464	
1465378232604136	-38.09967	70.35065	-238.04932	-19.473267	53.7735	-210.44464	
1465378252776255	-38.09967	70.35065	-238.04932	-19.473267	53.7735	-210.44464	
1465378272887339	-37.350464	71.40045	-237.44965	-19.473267	53.7735	-210.44464	
1465378293486704	-38.250732	70.64972	-237.30011	-19.473267	53.7735	-210.44464	
1465378313201060	-38.549805	70.64972	-236.54938	-19.473267	53.7735	-210.44464	
1465378333342661	-40.049744	69.90051	-237.30011	-19.473267	53.7735	-210.44464	
1465378353453745	-39.149475	70.799255	-236.70044	-19.473267	53.7735	-210.44464	
1465378373625865	-37.8006	71.09985	-238.04932	-19.473267	53.7735	-210.44464	
1465378394011607	-37.5	71.24939	-237.89978	-19.473267	53.7735	-210.44464	
1465378413878550	-37.950134	70.199585	-238.20038	-19.473267	53.7735	-210.44464	
1465378434020152	-37.950134	70.199585	-237.89978	-19.473267	53.7735	-210.44464	
1465378454192271	-37.8006	71.09985	-236.99951	-19.473267	53.7735	-210.44464	
1465378475920786	-37.1994	70.95032	-237.30011	-19.473267	53.7735	-210.44464	
1465378496550669	-37.8006	71.09985	-237.75024	-19.473267	53.7735	-210.44464	
1465378515959849	-37.350464	71.40045	-236.99951	-19.473267	53.7735	-210.44464	
1465378536101451	-36.450195	73.6496	-236.54938	-19.473267	53.7735	-210.44464	
1465378556090464	-40.049744	72.00012	-236.2503	-19.473267	53.7735	-210.44464	
1465378576079478	-38.850403	72.14966	-236.39984	-19.473267	53.7735	-210.44464	
1465378596068492	-37.5	72.30072	-236.84998	-19.473267	53.7735	-210.44464	
1465378616088023	-38.40027	72.45026	-236.10077	-19.473267	53.7735	-210.44464	
1465378636077036	-39.75067	72.14966	-235.65063	-19.473267	53.7735	-210.44464	
1465378656066050	-37.049866	72.74933	-237.44965	-19.473267	53.7735	-210.44464	
1465378676055064	-38.09967	71.40045	-235.65063	-19.473267	53.7735	-210.44464	
1465378696257701	-39.300537	70.64972	-235.80017	-19.473267	53.7735	-210.44464	
1465378716063609	-38.850403	70.05005	-236.99951	-19.473267	53.7735	-210.44464	
1465378736144175	-40.19928	70.05005	-236.99951	-19.473267	53.7735	-210.44464	
1465378756316294	-39.59961	69.90051	-237.60071	-19.473267	53.7735	-210.44464	
1465378776427378	-39.300537	69.599915	-236.84998	-19.473267	53.7735	-210.44464	
1465378796752085	-38.09967	68.40057	-237.44965	-19.473267	53.7735	-210.44464	
1465378816710581	-40.35034	68.55011	-236.54938	-19.473267	53.7735	-210.44464	
1465378836852183	-39.75067	68.699646	-236.10077	-19.473267	53.7735	-210.44464	
1465378857024302	-39.149475	67.64984	-238.04932	-19.473267	53.7735	-210.44464	
1465378877135386	-41.09955	67.19971	-236.84998	-19.473267	53.7735	-210.44464	
1465378897826304	-40.649414	68.55011	-236.54938	-19.473267	53.7735	-210.44464	
1465378917418589	-39.450073	67.05017	-237.44965	-19.473267	53.7735	-210.44464	
1465378937560191	-39.75067	68.699646	-237.75024	-19.473267	53.7735	-210.44464	
1465378957732310	-39.59961	67.19971	-237.60071	-19.473267	53.7735	-210.44464	
1465378977843394	-41.400146	66.74957	-238.65051	-19.473267	53.7735	-210.44464	
1465378998381724	-41.700745	67.19971	-237.89978	-19.473267	53.7735	-210.44464	
1465379018126597	-41.700745	67.79938	-237.30011	-19.473267	53.7735	-210.44464	
1465379038268199	-42.300415	66.60004	-236.70044	-19.473267	53.7735	-210.44464	
1465379058440318	-41.09955	68.55011	-237.30011	-19.473267	53.7735	-210.44464	
1465379078551402	-38.549805	69.90051	-237.30011	-19.473267	53.7735	-210.44464	
1465379099486460	-39.300537	69.14978	-236.84998	-19.473267	53.7735	-210.44464	
1465379118834605	-39.450073	70.05005	-238.04932	-19.473267	53.7735	-210.44464	
1465379138976206	-38.40027	70.05005	-238.80005	-19.473267	53.7735	-210.44464	
1465379159148326	-36.00006	69.74945	-238.49945	-19.473267	53.7735	-210.44464	
1465379179259410	-36.149597	72.59979	-238.65051	-19.473267	53.7735	-210.44464	
1465379200041880	-37.350464	71.09985	-239.10065	-19.473267	53.7735	-210.44464	
1465379219573130	-37.5	71.24939	-237.89978	-19.473267	53.7735	-210.44464	
1465379239714732	-37.350464	71.09985	-238.49945	-19.473267	53.7735	-210.44464	
1465379259856333	-36.749268	70.05005	-237.75024	-19.473267	53.7735	-210.44464	
1465379279967417	-37.1994	70.95032	-237.89978	-19.473267	53.7735	-210.44464	
1465379300292124	-37.5	69.14978	-238.20038	-19.473267	53.7735	-210.44464	
1465379320281138	-36.149597	70.95032	-237.89978	-19.473267	53.7735	-210.44464	
1465379340422740	-37.1994	69.14978	-238.65051	-19.473267	53.7735	-210.44464	
1465379360564341	-36.749268	70.799255	-238.04932	-19.473267	53.7735	-210.44464	
1465379380705943	-36.749268	71.40045	-238.80005	-19.473267	53.7735	-210.44464	
1465379400817027	-36.149597	70.64972	-239.25018	-19.473267	53.7735	-210.44464	
1465379420958628	-37.049866	72.14966	-239.39972	-19.473267	53.7735	-210.44464	
1465379441130747	-36.90033	70.64972	-238.65051	-19.473267	53.7735	-210.44464	
1465379461241831	-36.30066	71.850586	-236.99951	-19.473267	53.7735	-210.44464	
1465379481383433	-37.1994	71.24939	-237.89978	-19.473267	53.7735	-210.44464	
1465379501708140	-38.549805	70.64972	-236.84998	-19.473267	53.7735	-210.44464	
1465379521666636	-38.850403	72.14966	-236.39984	-19.473267	53.7735	-210.44464	
1465379541808238	-38.850403	72.45026	-236.99951	-19.473267	53.7735	-210.44464	
1465379561949839	-40.049744	72.00012	-234.8999	-19.473267	53.7735	-210.44464	
1465379582091441	-40.049744	71.24939	-235.49957	-19.473267	53.7735	-210.44464	
1465379602233042	-40.649414	72.59979	-234.44977	-19.473267	53.7735	-210.44464	
1465379622374644	-40.649414	72.00012	-235.2005	-19.473267	53.7735	-210.44464	
1465379642516245	-40.649414	71.54999	-233.39996	-19.473267	53.7735	-210.44464	
1465379662688365	-41.700745	71.24939	-235.2005	-19.473267	53.7735	-210.44464	
1465379682799449	-40.499878	70.799255	-234.5993	-19.473267	53.7735	-210.44464	
1465379703307261	-39.300537	71.54999	-235.2005	-19.473267	53.7735	-210.44464	
1465379723082652	-39.450073	72.45026	-232.94983	-19.473267	53.7735	-210.44464	
1465379743224253	-40.499878	70.05005	-235.35004	-19.473267	53.7735	-210.44464	
1465379763396372	-40.649414	70.95032	-235.80017	-19.473267	53.7735	-210.44464	
1465379783507456	-41.09955	70.64972	-236.2503	-19.473267	53.7735	-210.44464	
1465379803893199	-41.700745	69.90051	-234.8999	-19.473267	53.7735	-210.44464	
1465379823790660	-41.85028	70.799255	-234.30023	-19.473267	53.7735	-210.44464	
1465379843932261	-40.649414	69.90051	-235.49957	-19.473267	53.7735	-210.44464	
1465379865630259	-41.25061	71.09985	-234.5993	-19.473267	53.7735	-210.44464	
1465379885771861	-42.75055	70.64972	-233.8501	-19.473267	53.7735	-210.44464	
1465379906645884	-41.549683	69.000244	-233.25043	-19.473267	53.7735	-210.44464	
1465379925749888	-41.85028	69.74945	-235.65063	-19.473267	53.7735	-210.44464	
1465379945738902	-43.35022	70.05005	-234.5993	-19.473267	53.7735	-210.44464	
1465379965727915	-42.75055	67.79938	-233.8501	-19.473267	53.7735	-210.44464	
1465379985747447	-42.75055	67.19971	-234.1507	-19.473267	53.7735	-210.44464	
1465380005736460	-43.04962	68.55011	-233.8501	-19.473267	53.7735	-210.44464	
1465380025725474	-42.599487	69.74945	-233.70056	-19.473267	53.7735	-210.44464	
1465380045745005	-44.099426	69.14978	-232.8003	-19.473267	53.7735	-210.44464	
1465380065703501	-41.999817	72.00012	-234.44977	-19.473267	53.7735	-210.44464	
1465380085723033	-43.04962	70.199585	-233.39996	-19.473267	53.7735	-210.44464	
1465380105956187	-41.400146	70.64972	-233.8501	-19.473267	53.7735	-210.44464	
1465380125914683	-42.300415	69.45038	-232.65076	-19.473267	53.7735	-210.44464	
1465380146086802	-41.25061	69.74945	-232.94983	-19.473267	53.7735	-210.44464	
1465380166197886	-42.44995	70.64972	-233.09937	-19.473267	53.7735	-210.44464	
1465380186339488	-39.450073	71.40045	-233.70056	-19.473267	53.7735	-210.44464	
1465380206511607	-40.649414	72.30072	-235.80017	-19.473267	53.7735	-210.44464	
1465380226653208	-41.400146	71.24939	-234.1507	-19.473267	53.7735	-210.44464	
1465380246764292	-39.149475	73.19946	-233.25043	-19.473267	53.7735	-210.44464	
1465380266936411	-40.800476	73.50006	-234.30023	-19.473267	53.7735	-210.44464	
1465380287047495	-39.59961	72.30072	-235.2005	-19.473267	53.7735	-210.44464	
1465380307646861	-38.40027	72.14966	-234.30023	-19.473267	53.7735	-210.44464	
1465380327361216	-39.300537	72.30072	-234.8999	-19.473267	53.7735	-210.44464	
1465380347502818	-40.049744	70.95032	-235.49957	-19.473267	53.7735	-210.44464	
1465380367644419	-40.800476	72.14966	-234.5993	-19.473267	53.7735	-210.44464	
1465380387786021	-40.049744	72.00012	-235.2005	-19.473267	53.7735	-210.44464	
1465380408202281	-40.499878	71.40045	-235.65063	-19.473267	53.7735	-210.44464	
1465380428038706	-41.85028	69.74945	-236.10077	-19.473267	53.7735	-210.44464	
1465380448180308	-40.499878	70.05005	-235.35004	-19.473267	53.7735	-210.44464	
1465380468352427	-39.75067	71.40045	-235.04944	-19.473267	53.7735	-210.44464	
1465380488463511	-39.59961	70.64972	-235.2005	-19.473267	53.7735	-210.44464	
1465380509276499	-41.400146	71.54999	-234.44977	-19.473267	53.7735	-210.44464	
1465380528777232	-40.649414	71.24939	-233.09937	-19.473267	53.7735	-210.44464	
1465380548888316	-39.59961	72.30072	-233.8501	-19.473267	53.7735	-210.44464	
1465380569060435	-41.09955	72.30072	-233.09937	-19.473267	53.7735	-210.44464	
1465380589171519	-40.649414	72.59979	-231.75049	-19.473267	53.7735	-210.44464	
1465380609831919	-41.85028	71.40045	-232.94983	-19.473267	53.7735	-210.44464	
1465380629485240	-41.549683	70.799255	-231.90002	-19.473267	53.7735	-210.44464	
1465380649626841	-42.599487	70.799255	-232.94983	-19.473267	53.7735	-210.44464	
1465380669768443	-42.900085	71.09985	-234.30023	-19.473267	53.7735	-210.44464	
1465380689910044	-41.85028	69.74945	-231.90002	-19.473267	53.7735	-210.44464	
1465380710204234	-43.04962	70.64972	-231.75049	-19.473267	53.7735	-210.44464	
1465380730162730	-42.599487	70.799255	-232.65076	-19.473267	53.7735	-210.44464	
1465380750365367	-43.35022	69.000244	-233.25043	-19.473267	53.7735	-210.44464	
1465380770445933	-43.35022	70.799255	-234.5993	-19.473267	53.7735	-210.44464	
1465380790587535	-41.85028	69.45038	-235.04944	-19.473267	53.7735	-210.44464	
1465380810759654	-42.599487	69.45038	-232.94983	-19.473267	53.7735	-210.44464	
1465380830870738	-42.300415	69.74945	-233.99963	-19.473267	53.7735	-210.44464	
1465380851012339	-42.900085	68.40057	-233.99963	-19.473267	53.7735	-210.44464	
1465380871184458	-43.499756	69.599915	-232.04956	-19.473267	53.7735	-210.44464	
1465380891326060	-43.800354	70.64972	-232.4997	-19.473267	53.7735	-210.44464	
1465380911589732	-44.099426	69.599915	-234.1507	-19.473267	53.7735	-210.44464	
1465380931578745	-44.099426	68.85071	-232.8003	-19.473267	53.7735	-210.44464	
1465380951750865	-44.54956	67.79938	-233.39996	-19.473267	53.7735	-210.44464	
1465380971892466	-44.999695	67.64984	-233.99963	-19.473267	53.7735	-210.44464	
1465380992003550	-44.099426	67.79938	-232.8003	-19.473267	53.7735	-210.44464	
1465381012145152	-42.44995	68.24951	-233.39996	-19.473267	53.7735	-210.44464	
1465381032286753	-43.94989	67.34924	-233.25043	-19.473267	53.7735	-210.44464	
1465381052428355	-44.400024	68.699646	-232.20062	-19.473267	53.7735	-210.44464	
1465381072569956	-44.54956	69.14978	-233.8501	-19.473267	53.7735	-210.44464	
1465381092711558	-43.04962	68.85071	-232.4997	-19.473267	53.7735	-210.44464	
1465381113249888	-44.099426	68.85071	-231.75049	-19.473267	53.7735	-210.44464	
1465381133025279	-43.94989	69.000244	-232.65076	-19.473267	53.7735	-210.44464	
1465381153136363	-41.400146	71.24939	-232.8003	-19.473267	53.7735	-210.44464	
1465381173277964	-41.25061	70.35065	-233.99963	-19.473267	53.7735	-210.44464	
1465381193419566	-41.400146	71.54999	-233.09937	-19.473267	53.7735	-210.44464	
1465381213835826	-40.499878	69.74945	-235.04944	-19.473267	53.7735	-210.44464	
1465381235228648	-40.649414	72.00012	-233.39996	-19.473267	53.7735	-210.44464	
1465381255431285	-40.499878	72.45026	-233.25043	-19.473267	53.7735	-210.44464	
1465381275420298	-40.19928	71.40045	-233.99963	-19.473267	53.7735	-210.44464	
1465381295409312	-39.75067	71.850586	-233.99963	-19.473267	53.7735	-210.44464	
1465381315581431	-39.450073	71.09985	-235.35004	-19.473267	53.7735	-210.44464	
1465381335387339	-38.850403	73.50006	-234.5993	-19.473267	53.7735	-210.44464	
1465381355376353	-38.09967	72.74933	-235.35004	-19.473267	53.7735	-210.44464	
1465381375395884	-40.049744	72.00012	-233.8501	-19.473267	53.7735	-210.44464	
1465381395384898	-39.450073	73.50006	-234.5993	-19.473267	53.7735	-210.44464	
1465381415373911	-40.19928	74.24927	-233.70056	-19.473267	53.7735	-210.44464	
1465381435362925	-38.549805	73.950195	-234.1507	-19.473267	53.7735	-210.44464	
1465381455382456	-38.250732	74.6994	-233.39996	-19.473267	53.7735	-210.44464	
1465381475432505	-38.99994	73.6496	-233.8501	-19.473267	53.7735	-210.44464	
1465381495574107	-38.549805	72.30072	-234.1507	-19.473267	53.7735	-210.44464	
1465381516142954	-38.09967	72.74933	-234.5993	-19.473267	53.7735	-210.44464	
1465381535857310	-39.450073	72.45026	-232.94983	-19.473267	53.7735	-210.44464	
1465381555968394	-38.850403	73.50006	-235.35004	-19.473267	53.7735	-210.44464	
1465381576140513	-40.19928	72.74933	-233.99963	-19.473267	53.7735	-210.44464	
1465381596251597	-39.149475	74.549866	-233.25043	-19.473267	53.7735	-210.44464	
1465381616698374	-40.35034	73.04993	-232.8003	-19.473267	53.7735	-210.44464	
1465381636565318	-40.499878	72.45026	-230.25055	-19.473267	53.7735	-210.44464	
1465381656706919	-40.049744	72.30072	-233.09937	-19.473267	53.7735	-210.44464	
1465381676848521	-39.300537	73.6496	-232.4997	-19.473267	53.7735	-210.44464	
1465381696990122	-39.149475	72.45026	-233.70056	-19.473267	53.7735	-210.44464	
1465381717650523	-39.59961	74.40033	-233.8501	-19.473267	53.7735	-210.44464	
1465381737242808	-39.149475	73.50006	-233.70056	-19.473267	53.7735	-210.44464	
1465381757414927	-39.450073	73.19946	-234.30023	-19.473267	53.7735	-210.44464	
1465381777526011	-39.75067	73.19946	-233.70056	-19.473267	53.7735	-210.44464	
1465381797698130	-40.35034	73.04993	-233.8501	-19.473267	53.7735	-210.44464	
1465381818205943	-38.40027	73.80066	-235.65063	-19.473267	53.7735	-210.44464	
1465381837950816	-40.800476	73.19946	-235.04944	-19.473267	53.7735	-210.44464	
1465381858122935	-37.350464	72.45026	-235.04944	-19.473267	53.7735	-210.44464	
1465381878234019	-38.850403	71.40045	-234.5993	-19.473267	53.7735	-210.44464	
1465381898406138	-39.59961	73.04993	-235.2005	-19.473267	53.7735	-210.44464	
1465381919280161	-39.450073	73.19946	-234.5993	-19.473267	53.7735	-210.44464	
1465381938658824	-39.149475	72.14966	-233.99963	-19.473267	53.7735	-210.44464	
1465381958800425	-41.400146	70.95032	-234.8999	-19.473267	53.7735	-210.44464	
1465381978972544	-40.049744	70.64972	-235.49957	-19.473267	53.7735	-210.44464	
1465381999083628	-38.99994	71.54999	-234.44977	-19.473267	53.7735	-210.44464	
1465382019835581	-40.499878	71.40045	-236.39984	-19.473267	53.7735	-210.44464	
1465382039366831	-40.35034	71.54999	-237.60071	-19.473267	53.7735	-210.44464	
1465382059538951	-39.59961	72.59979	-234.8999	-19.473267	53.7735	-210.44464	
1465382079650035	-40.35034	72.59979	-233.8501	-19.473267	53.7735	-210.44464	
1465382120116343	-38.99994	73.6496	-235.80017	-19.473267	53.7735	-210.44464	
1465382120116343	-38.99994	73.6496	-235.80017	-19.473267	53.7735	-210.44464	
1465382140105357	-38.40027	71.850586	-235.35004	-19.473267	53.7735	-210.44464	
1465382160216441	-39.300537	73.350525	-234.8999	-19.473267	53.7735	-210.44464	
1465382180388560	-39.450073	73.50006	-235.04944	-19.473267	53.7735	-210.44464	
1465382200499644	-37.049866	72.14966	-236.39984	-19.473267	53.7735	-210.44464	
1465382220641245	-37.350464	74.24927	-236.10077	-19.473267	53.7735	-210.44464	
1465382240813365	-38.549805	74.40033	-235.80017	-19.473267	53.7735	-210.44464	
1465382260954966	-36.90033	74.40033	-236.54938	-19.473267	53.7735	-210.44464	
1465382281066050	-37.049866	74.24927	-235.35004	-19.473267	53.7735	-210.44464	
1465382301238169	-35.699463	74.850464	-235.65063	-19.473267	53.7735	-210.44464	
1465382321532359	-36.90033	73.950195	-236.54938	-19.473267	53.7735	-210.44464	
1465382341490855	-38.09967	73.19946	-236.99951	-19.473267	53.7735	-210.44464	
1465382361632456	-36.450195	73.950195	-236.54938	-19.473267	53.7735	-210.44464	
1465382381774058	-36.749268	73.19946	-236.10077	-19.473267	53.7735	-210.44464	
1465382401915660	-38.250732	74.40033	-237.60071	-19.473267	53.7735	-210.44464	
1465382422057261	-37.1994	73.350525	-237.89978	-19.473267	53.7735	-210.44464	
1465382442229380	-37.049866	73.19946	-236.70044	-19.473267	53.7735	-210.44464	
1465382462370982	-37.350464	73.50006	-236.10077	-19.473267	53.7735	-210.44464	
1465382482512583	-36.749268	72.14966	-236.39984	-19.473267	53.7735	-210.44464	
1465382502654185	-36.749268	74.24927	-235.35004	-19.473267	53.7735	-210.44464	
1465382523192515	-36.90033	75.450134	-235.49957	-19.473267	53.7735	-210.44464	
1465382542937388	-37.049866	74.549866	-236.70044	-19.473267	53.7735	-210.44464	
1465382562956919	-38.850403	73.80066	-236.70044	-19.473267	53.7735	-210.44464	
1465382583220591	-37.8006	74.549866	-237.44965	-19.473267	53.7735	-210.44464	
1465382604857554	-40.19928	72.74933	-233.99963	-19.473267	53.7735	-210.44464	
1465382625395884	-40.800476	74.850464	-233.70056	-19.473267	53.7735	-210.44464	
1465382644957652	-41.09955	73.950195	-233.8501	-19.473267	53.7735	-210.44464	
1465382665068736	-41.25061	73.50006	-232.20062	-19.473267	53.7735	-210.44464	
1465382685057749	-41.999817	73.950195	-233.39996	-19.473267	53.7735	-210.44464	
1465382705046763	-42.75055	73.04993	-232.8003	-19.473267	53.7735	-210.44464	
1465382725240317	-41.85028	73.50006	-231.90002	-19.473267	53.7735	-210.44464	
1465382745015707	-41.700745	73.04993	-232.8003	-19.473267	53.7735	-210.44464	
1465382765035239	-43.649292	73.19946	-231.30035	-19.473267	53.7735	-210.44464	
1465382785024252	-44.400024	72.45026	-230.85022	-19.473267	53.7735	-210.44464	
1465382805013266	-44.54956	71.54999	-232.4997	-19.473267	53.7735	-210.44464	
1465382825002280	-44.700623	71.850586	-230.85022	-19.473267	53.7735	-210.44464	
1465382845052328	-43.499756	72.59979	-232.4997	-19.473267	53.7735	-210.44464	
1465382865193930	-44.85016	69.90051	-232.04956	-19.473267	53.7735	-210.44464	
1465382885335532	-44.700623	71.09985	-231.90002	-19.473267	53.7735	-210.44464	
1465382905477133	-44.700623	71.40045	-231.30035	-19.473267	53.7735	-210.44464	
1465382926045981	-44.700623	69.45038	-230.85022	-19.473267	53.7735	-210.44464	
1465382945760336	-45.150757	69.599915	-230.99976	-19.473267	53.7735	-210.44464	
1465382965901938	-47.250366	68.24951	-232.8003	-19.473267	53.7735	-210.44464	
1465382986013022	-45.150757	68.24951	-231.44989	-19.473267	53.7735	-210.44464	
1465383006185141	-46.20056	68.24951	-231.44989	-19.473267	53.7735	-210.44464	
1465383026601401	-46.949768	67.500305	-231.75049	-19.473267	53.7735	-210.44464	
1465383046437827	-45.599365	67.79938	-231.44989	-19.473267	53.7735	-210.44464	
1465383066609946	-46.800232	66.60004	-233.25043	-19.473267	53.7735	-210.44464	
1465383086751547	-45.300293	67.34924	-231.90002	-19.473267	53.7735	-210.44464	
1465383106862631	-46.350098	67.05017	-232.20062	-19.473267	53.7735	-210.44464	
1465383127675619	-48.150635	67.95044	-230.54962	-19.473267	53.7735	-210.44464	
1465383147145834	-45.750427	67.34924	-232.20062	-19.473267	53.7735	-210.44464	
1465383167287436	-46.800232	67.64984	-231.90002	-19.473267	53.7735	-210.44464	
1465383187459555	-44.999695	67.34924	-233.25043	-19.473267	53.7735	-210.44464	
1465383207570639	-45.300293	67.34924	-233.99963	-19.473267	53.7735	-210.44464	
1465383228231039	-43.35022	69.000244	-233.70056	-19.473267	53.7735	-210.44464	
1465383247884360	-44.099426	69.599915	-234.44977	-19.473267	53.7735	-210.44464	
1465383268025961	-41.85028	69.000244	-235.04944	-19.473267	53.7735	-210.44464	
1465383288167563	-42.44995	70.95032	-235.2005	-19.473267	53.7735	-210.44464	
1465383308309164	-41.09955	70.95032	-235.2005	-19.473267	53.7735	-210.44464	
1465383328603354	-40.049744	72.59979	-235.49957	-19.473267	53.7735	-210.44464	
1465383348561850	-39.59961	72.00012	-235.2005	-19.473267	53.7735	-210.44464	
1465383368733969	-41.09955	70.95032	-235.2005	-19.473267	53.7735	-210.44464	
1465383388845053	-41.400146	71.54999	-235.2005	-19.473267	53.7735	-210.44464	
1465383408986655	-39.149475	71.09985	-236.39984	-19.473267	53.7735	-210.44464	
1465383429158774	-41.700745	72.30072	-234.44977	-19.473267	53.7735	-210.44464	
1465383449300375	-40.35034	70.95032	-234.1507	-19.473267	53.7735	-210.44464	
1465383469411459	-42.44995	70.199585	-235.49957	-19.473267	53.7735	-210.44464	
1465383489583578	-41.999817	69.14978	-234.1507	-19.473267	53.7735	-210.44464	
1465383509725180	-41.400146	71.24939	-235.49957	-19.473267	53.7735	-210.44464	
1465383529988852	-41.400146	70.95032	-234.8999	-19.473267	53.7735	-210.44464	
1465383549977866	-41.400146	71.54999	-234.44977	-19.473267	53.7735	-210.44464	
1465383570119467	-40.649414	70.64972	-235.2005	-19.473267	53.7735	-210.44464	
1465383590291586	-41.09955	71.54999	-234.44977	-19.473267	53.7735	-210.44464	
1465383610433188	-40.649414	73.350525	-235.2005	-19.473267	53.7735	-210.44464	
1465383630574789	-41.400146	71.24939	-234.8999	-19.473267	53.7735	-210.44464	
1465383650685873	-40.19928	70.799255	-235.04944	-19.473267	53.7735	-210.44464	
1465383670827475	-40.19928	72.74933	-234.30023	-19.473267	53.7735	-210.44464	
1465383690999594	-41.85028	73.50006	-234.30023	-19.473267	53.7735	-210.44464	
1465383711019125	-41.09955	72.00012	-232.4997	-19.473267	53.7735	-210.44464	
1465383731679526	-38.850403	72.14966	-234.5993	-19.473267	53.7735	-210.44464	
1465383751393881	-39.450073	71.850586	-232.94983	-19.473267	53.7735	-210.44464	
1465383771535483	-41.25061	71.40045	-233.25043	-19.473267	53.7735	-210.44464	
1465383791707602	-41.400146	71.24939	-237.30011	-19.473267	53.7735	-210.44464	
1465383811818686	-41.25061	72.14966	-236.10077	-19.473267	53.7735	-210.44464	
1465383832234946	-41.999817	72.59979	-235.49957	-19.473267	53.7735	-210.44464	
1465383852132407	-41.09955	69.599915	-234.8999	-19.473267	53.7735	-210.44464	
1465383872243491	-40.19928	72.14966	-236.10077	-19.473267	53.7735	-210.44464	
1465383892415610	-40.499878	71.09985	-233.99963	-19.473267	53.7735	-210.44464	
1465383912526694	-41.400146	71.54999	-236.54938	-19.473267	53.7735	-210.44464	
1465383933370200	-41.09955	70.199585	-235.2005	-19.473267	53.7735	-210.44464	
1465383952809897	-39.75067	70.05005	-236.10077	-19.473267	53.7735	-210.44464	
1465383974507895	-40.19928	70.35065	-235.04944	-19.473267	53.7735	-210.44464	
1465384014730063	-42.44995	69.14978	-236.84998	-19.473267	53.7735	-210.44464	
1465384014730063	-42.44995	69.14978	-236.84998	-19.473267	53.7735	-210.44464	
1465384035054770	-40.19928	71.09985	-235.35004	-19.473267	53.7735	-210.44464	
1465384054708090	-40.19928	69.74945	-235.65063	-19.473267	53.7735	-210.44464	
1465384074697104	-40.649414	70.199585	-235.2005	-19.473267	53.7735	-210.44464	
1465384094686118	-41.09955	69.90051	-236.2503	-19.473267	53.7735	-210.44464	
1465384114675131	-38.99994	69.14978	-236.54938	-19.473267	53.7735	-210.44464	
1465384134725180	-41.25061	67.34924	-236.10077	-19.473267	53.7735	-210.44464	
1465384154683676	-40.649414	70.199585	-237.89978	-19.473267	53.7735	-210.44464	
1465384174672690	-41.999817	68.24951	-237.89978	-19.473267	53.7735	-210.44464	
1465384194661703	-41.09955	67.500305	-236.84998	-19.473267	53.7735	-210.44464	
1465384214681235	-42.44995	68.55011	-237.89978	-19.473267	53.7735	-210.44464	
1465384235005942	-41.700745	68.24951	-236.84998	-19.473267	53.7735	-210.44464	
1465384254964438	-40.649414	67.19971	-236.84998	-19.473267	53.7735	-210.44464	
1465384275106039	-39.75067	68.699646	-236.39984	-19.473267	53.7735	-210.44464	
1465384295247641	-40.499878	67.34924	-237.44965	-19.473267	53.7735	-210.44464	
1465384315389243	-37.8006	70.35065	-237.75024	-19.473267	53.7735	-210.44464	
1465384336080160	-39.450073	69.45038	-238.49945	-19.473267	53.7735	-210.44464	
1465384355641928	-35.699463	68.40057	-239.10065	-19.473267	53.7735	-210.44464	
1465384375783530	-36.00006	71.850586	-238.04932	-19.473267	53.7735	-210.44464	
1465384395955649	-36.450195	72.00012	-237.89978	-19.473267	53.7735	-210.44464	
1465384416066733	-35.24933	73.19946	-236.99951	-19.473267	53.7735	-210.44464	
1465384436635580	-37.350464	70.799255	-238.49945	-19.473267	53.7735	-210.44464	
1465384456380453	-37.5	70.95032	-238.94958	-19.473267	53.7735	-210.44464	
1465384476491537	-37.1994	72.00012	-237.89978	-19.473267	53.7735	-210.44464	
1465384496663657	-38.09967	71.09985	-238.04932	-19.473267	53.7735	-210.44464	
1465384516805258	-37.5	71.54999	-238.20038	-19.473267	53.7735	-210.44464	
1465384537709799	-37.5	71.54999	-237.89978	-19.473267	53.7735	-210.44464	
1465384557057944	-37.350464	71.850586	-239.10065	-19.473267	53.7735	-210.44464	
1465384577199545	-36.90033	71.24939	-238.20038	-19.473267	53.7735	-210.44464	
1465384597371664	-38.09967	72.14966	-236.39984	-19.473267	53.7735	-210.44464	
1465384617482748	-38.250732	72.00012	-236.84998	-19.473267	53.7735	-210.44464	
1465384637929526	-37.8006	72.14966	-236.99951	-19.473267	53.7735	-210.44464	
1465384657765952	-36.450195	71.54999	-237.30011	-19.473267	53.7735	-210.44464	
1465384677938071	-37.5	72.00012	-237.89978	-19.473267	53.7735	-210.44464	
1465384698049155	-38.09967	72.14966	-237.44965	-19.473267	53.7735	-210.44464	
1465384718190756	-38.09967	71.40045	-238.04932	-19.473267	53.7735	-210.44464	
1465384738454428	-37.5	72.00012	-236.84998	-19.473267	53.7735	-210.44464	
1465384758473959	-36.90033	71.24939	-235.80017	-19.473267	53.7735	-210.44464	
1465384778615561	-38.40027	71.09985	-235.65063	-19.473267	53.7735	-210.44464	
1465384798757162	-37.950134	70.64972	-235.49957	-19.473267	53.7735	-210.44464	
1465384818898764	-40.649414	71.24939	-235.80017	-19.473267	53.7735	-210.44464	
1465384839070883	-40.35034	73.04993	-235.80017	-19.473267	53.7735	-210.44464	
1465384859181967	-39.300537	70.95032	-236.54938	-19.473267	53.7735	-210.44464	
1465384879323569	-39.450073	70.799255	-236.99951	-19.473267	53.7735	-210.44464	
1465384899465170	-39.75067	71.850586	-236.39984	-19.473267	53.7735	-210.44464	
