# OpenSignals Text File Format
# {"00:07:80:4D:2E:AD": {"sensor": ["EMG", "EMG", "XYZ"], "device name": "00:07:80:4D:2E:AD", "column": ["nSeq", "DI", "CH1", "CH2", "CH3"], "sync interval": 2, "time": "15:29:38.228", "comments": "no action | ch1_flexor_digitorum_superficialis ch2_aductor_policis ch3_acc_z [trial 5]", "device connection": "BTH00:07:80:4D:2E:AD", "channels": [1, 2, 3], "keywords": "", "mode": 0, "digital IO": [0, 1], "firmware version": 773, "device": "biosignalsplux", "position": 0, "sampling rate": 1000, "label": ["CH1", "CH2", "CH3"], "resolution": [16, 16, 16], "date": "2019-1-23", "special": [{}, {}, {}]}}
# EndOfHeader
0	0	32732	33262	34416	
1	0	32674	32876	34415	
2	0	32660	32716	34404	
3	0	32728	32612	34384	
4	0	32685	32580	34385	
5	0	32636	32409	34372	
6	0	32629	32390	34359	
7	0	32758	32364	34333	
8	0	32804	32625	34308	
9	0	32870	32852	34317	
10	0	32836	32712	34345	
11	0	32846	32684	34332	
12	0	32820	32736	34328	
13	0	32897	32745	34333	
14	0	32740	33064	34348	
15	0	32926	33197	34356	
16	0	32925	33248	34357	
17	0	32844	33319	34376	
18	0	32908	33204	34352	
19	0	32814	33065	34369	
20	0	32700	33141	34386	
21	0	32724	32764	34388	
22	0	32652	32643	34364	
23	0	32664	32501	34365	
24	0	32648	32474	34377	
25	0	32672	32438	34336	
26	0	32680	32604	34342	
27	0	32722	32444	34349	
28	0	32884	32516	34350	
29	0	32768	32645	34352	
30	0	32834	32688	34352	
31	0	32816	32717	34360	
32	0	32838	32723	34366	
33	0	32864	32856	34332	
34	0	32860	33000	34344	
35	0	32908	33212	34387	
36	0	32889	33364	34405	
37	0	32844	33444	34407	
38	0	32846	33476	34408	
39	0	32832	33305	34424	
40	0	32744	33191	34432	
41	0	32724	32877	34400	
42	0	32700	32559	34382	
43	0	32776	32629	34396	
44	0	32628	32513	34380	
45	0	32644	32451	34389	
46	0	32736	32414	34382	
47	0	32756	32552	34372	
48	0	32828	32598	34364	
49	0	32805	32624	34342	
50	0	32804	32596	34343	
51	0	32832	32676	34336	
52	0	32932	32700	34338	
53	0	32882	32745	34332	
54	0	32872	33004	34314	
55	0	32856	33286	34311	
56	0	32921	33316	34329	
57	0	32868	33349	34342	
58	0	32808	33438	34351	
59	0	32756	33390	34356	
60	0	32758	33188	34368	
61	0	32736	32903	34364	
62	0	32648	32572	34354	
63	0	32680	32448	34376	
64	0	32624	32436	34391	
65	0	32660	32501	34379	
66	0	32669	32416	34389	
67	0	32816	32388	34378	
68	0	32840	32786	34404	
69	0	32860	32617	34393	
70	0	32844	32525	34404	
71	0	32844	32644	34412	
72	0	32932	32664	34412	
73	0	32898	32858	34390	
74	0	32852	33104	34376	
75	0	32888	33176	34358	
76	0	32935	33200	34390	
77	0	32792	33312	34402	
78	0	32808	33352	34394	
79	0	32768	33397	34401	
80	0	32748	33192	34388	
81	0	32560	32824	34384	
82	0	32775	32592	34382	
83	0	32726	32385	34382	
84	0	32650	32376	34400	
85	0	32684	32463	34421	
86	0	32742	32622	34404	
87	0	32709	32564	34391	
88	0	32740	32760	34388	
89	0	32792	32705	34356	
90	0	32782	32728	34353	
91	0	32840	32703	34361	
92	0	32900	32848	34364	
93	0	32900	32960	34357	
94	0	32800	33104	34384	
95	0	32956	33218	34358	
96	0	32960	33166	34376	
97	0	32824	33120	34400	
98	0	32856	33104	34384	
99	0	32792	33208	34394	
100	0	32760	33044	34388	
101	0	32660	32832	34376	
102	0	32672	32526	34365	
103	0	32688	32432	34361	
104	0	32576	32504	34367	
105	0	32717	32464	34348	
106	0	32677	32456	34333	
107	0	32736	32512	34332	
108	0	32812	32817	34332	
109	0	32790	32856	34333	
110	0	32794	32640	34318	
111	0	32840	32744	34320	
112	0	32804	32718	34332	
113	0	32914	32907	34322	
114	0	32937	33124	34332	
115	0	32944	33170	34330	
116	0	32853	33236	34352	
117	0	32836	33212	34369	
118	0	32824	33301	34389	
119	0	32800	33252	34384	
120	0	32756	33115	34385	
121	0	32752	32672	34368	
122	0	32649	32622	34352	
123	0	32564	32604	34353	
124	0	32644	32527	34366	
125	0	32700	32356	34377	
126	0	32788	32293	34383	
127	0	32716	32274	34392	
128	0	32804	32525	34385	
129	0	32846	32497	34384	
130	0	32804	32552	34378	
131	0	32854	32564	34374	
132	0	32881	32716	34393	
133	0	32898	32936	34400	
134	0	32892	32994	34390	
135	0	32832	33192	34394	
136	0	32821	33331	34400	
137	0	32816	33333	34444	
138	0	32836	33376	34454	
139	0	32856	33374	34453	
140	0	32820	33250	34461	
141	0	32776	32872	34460	
142	0	32734	32570	34461	
143	0	32669	32505	34465	
144	0	32688	32381	34469	
145	0	32580	32312	34496	
146	0	32686	32368	34496	
147	0	32716	32396	34479	
148	0	32821	32598	34481	
149	0	32764	32701	34465	
150	0	32836	32679	34456	
151	0	32774	32697	34452	
152	0	32824	32762	34456	
153	0	32833	32828	34468	
154	0	32852	32950	34464	
155	0	32848	33120	34488	
156	0	32968	33240	34500	
157	0	32858	33328	34518	
158	0	32769	33280	34513	
159	0	32804	33232	34536	
160	0	32684	33024	34533	
161	0	32772	32816	34517	
162	0	32728	32708	34484	
163	0	32616	32784	34488	
164	0	32577	32552	34484	
165	0	32676	32445	34484	
166	0	32660	32498	34468	
167	0	32790	32488	34468	
168	0	32844	32543	34474	
169	0	32832	32760	34456	
170	0	32860	32608	34452	
171	0	32852	32548	34456	
172	0	32864	32762	34468	
173	0	32868	32836	34461	
174	0	32844	32956	34444	
175	0	32964	33220	34460	
176	0	32921	33088	34468	
177	0	32865	33252	34487	
178	0	32868	33287	34488	
179	0	32728	33266	34502	
180	0	32757	33088	34512	
181	0	32740	32794	34496	
182	0	32660	32648	34468	
183	0	32604	32700	34444	
184	0	32688	32476	34465	
185	0	32696	32306	34457	
186	0	32580	32401	34476	
187	0	32704	32486	34469	
188	0	32870	32420	34448	
189	0	32820	32898	34432	
190	0	32792	32804	34397	
191	0	32808	32856	34388	
192	0	32904	32828	34380	
193	0	32758	33072	34353	
194	0	32908	33100	34348	
195	0	32864	33108	34348	
196	0	32905	33092	34341	
197	0	32836	33301	34348	
198	0	32856	33312	34346	
199	0	32760	33316	34354	
200	0	32780	33079	34372	
201	0	32805	33001	34372	
202	0	32696	32756	34376	
203	0	32676	32405	34368	
204	0	32664	32341	34365	
205	0	32664	32340	34361	
206	0	32789	32447	34353	
207	0	32855	32574	34343	
208	0	32764	32753	34314	
209	0	32812	32548	34287	
210	0	32798	32592	34265	
211	0	32828	32544	34268	
212	0	32828	32702	34263	
213	0	32836	32789	34252	
214	0	32764	33072	34241	
215	0	32884	33225	34262	
216	0	32880	33262	34265	
217	0	32752	33476	34288	
218	0	32800	33412	34292	
219	0	32876	33373	34296	
220	0	32732	33248	34310	
221	0	32736	32995	34316	
222	0	32708	32688	34304	
223	0	32652	32644	34307	
224	0	32629	32533	34297	
225	0	32650	32288	34304	
226	0	32708	32429	34299	
227	0	32752	32247	34297	
228	0	32908	32377	34292	
229	0	32920	32460	34292	
230	0	32848	32586	34296	
231	0	32773	32744	34308	
232	0	32832	32792	34293	
233	0	32917	33060	34310	
234	0	32808	33160	34328	
235	0	32876	33300	34326	
236	0	32912	33322	34340	
237	0	32876	33352	34365	
238	0	32908	33321	34365	
239	0	32828	33309	34380	
240	0	32736	33084	34400	
241	0	32648	32772	34390	
242	0	32673	32594	34392	
243	0	32692	32590	34433	
244	0	32650	32442	34417	
245	0	32576	32356	34430	
246	0	32696	32573	34425	
247	0	32744	32536	34421	
248	0	32801	32519	34446	
249	0	32824	32628	34456	
250	0	32828	32572	34480	
251	0	32904	32590	34472	
252	0	32808	32753	34471	
253	0	32856	32840	34496	
254	0	32884	32968	34500	
255	0	32948	33182	34524	
256	0	32884	33156	34517	
257	0	32832	33324	34541	
258	0	32848	33446	34561	
259	0	32792	33316	34560	
260	0	32680	33344	34556	
261	0	32652	32910	34588	
262	0	32644	32569	34572	
263	0	32728	32484	34573	
264	0	32676	32585	34579	
265	0	32633	32613	34568	
266	0	32656	32529	34560	
267	0	32740	32600	34558	
268	0	32817	32541	34564	
269	0	32820	32600	34584	
270	0	32768	32640	34560	
271	0	32868	32544	34540	
272	0	32816	32455	34528	
273	0	32816	32700	34520	
274	0	32928	32844	34524	
275	0	32912	33201	34512	
276	0	32896	33252	34504	
277	0	32903	33322	34516	
278	0	32856	33340	34540	
279	0	32817	33300	34540	
280	0	32745	33156	34533	
281	0	32720	32824	34519	
282	0	32668	32576	34512	
283	0	32696	32604	34498	
284	0	32685	32568	34485	
285	0	32648	32398	34468	
286	0	32704	32487	34476	
287	0	32781	32440	34460	
288	0	32728	32802	34453	
289	0	32856	32736	34413	
290	0	32897	32692	34415	
291	0	32804	32696	34384	
292	0	32816	32623	34362	
293	0	32844	32838	34375	
294	0	32844	32928	34358	
295	0	32825	33253	34366	
296	0	32908	33404	34358	
297	0	32862	33516	34372	
298	0	32836	33374	34385	
299	0	32896	33340	34392	
300	0	32732	33076	34390	
301	0	32758	32862	34392	
302	0	32680	32508	34380	
303	0	32632	32458	34372	
304	0	32720	32505	34351	
305	0	32662	32347	34348	
306	0	32682	32344	34380	
307	0	32760	32431	34351	
308	0	32769	32759	34348	
309	0	32871	32644	34356	
310	0	32809	32720	34333	
311	0	32756	32804	34324	
312	0	32880	32896	34327	
313	0	32898	32936	34348	
314	0	32876	33009	34340	
315	0	32917	33068	34360	
316	0	32836	33293	34352	
317	0	32840	33396	34364	
318	0	32912	33320	34389	
319	0	32844	33256	34392	
320	0	32764	32940	34392	
321	0	32764	32731	34392	
322	0	32608	32702	34404	
323	0	32648	32695	34384	
324	0	32596	32493	34377	
325	0	32706	32485	34365	
326	0	32765	32633	34352	
327	0	32762	32592	34321	
328	0	32844	32668	34311	
329	0	32864	32581	34325	
330	0	32912	32458	34340	
331	0	32840	32440	34333	
332	0	32848	32500	34310	
333	0	32828	32682	34310	
334	0	32917	32924	34304	
335	0	32890	33077	34301	
336	0	32900	33244	34310	
337	0	32824	33375	34324	
338	0	32820	33202	34325	
339	0	32774	33168	34338	
340	0	32821	33159	34345	
341	0	32714	32824	34346	
342	0	32660	32644	34316	
343	0	32647	32574	34313	
344	0	32652	32573	34311	
345	0	32660	32573	34300	
346	0	32728	32592	34324	
347	0	32680	32601	34310	
348	0	32804	32708	34296	
349	0	32784	32677	34281	
350	0	32765	32558	34269	
351	0	32844	32492	34244	
352	0	32954	32708	34240	
353	0	32924	32784	34248	
354	0	32876	32908	34252	
355	0	32848	33159	34260	
356	0	32968	33368	34245	
357	0	32865	33450	34268	
358	0	32856	33644	34289	
359	0	32876	33324	34277	
360	0	32722	33074	34294	
361	0	32700	32876	34303	
362	0	32685	32552	34292	
363	0	32660	32492	34312	
364	0	32608	32552	34300	
365	0	32568	32516	34302	
366	0	32728	32545	34284	
367	0	32760	32536	34262	
368	0	32844	32660	34272	
369	0	32844	32917	34286	
370	0	32872	32685	34304	
371	0	32704	32712	34303	
372	0	32762	32700	34312	
373	0	32928	32836	34309	
374	0	32972	33016	34304	
375	0	32837	33240	34312	
376	0	32944	33308	34311	
377	0	32852	33204	34324	
378	0	32856	33358	34336	
379	0	32808	33268	34362	
380	0	32672	33098	34384	
381	0	32752	32838	34396	
382	0	32809	32455	34412	
383	0	32720	32494	34413	
384	0	32588	32448	34408	
385	0	32548	32345	34428	
386	0	32690	32400	34433	
387	0	32704	32444	34456	
388	0	32820	32551	34449	
389	0	32776	32716	34436	
390	0	32836	32944	34444	
391	0	32812	32904	34452	
392	0	32816	32732	34458	
393	0	32824	32673	34472	
394	0	32781	32992	34476	
395	0	32888	33188	34484	
396	0	32908	33321	34495	
397	0	32808	33302	34485	
398	0	32848	33452	34484	
399	0	32820	33498	34493	
400	0	32797	33368	34484	
401	0	32824	33001	34488	
402	0	32693	32775	34500	
403	0	32704	32634	34489	
404	0	32652	32581	34489	
405	0	32648	32536	34464	
406	0	32716	32378	34468	
407	0	32764	32271	34440	
408	0	32732	32409	34428	
409	0	32760	32566	34428	
410	0	32888	32552	34432	
411	0	32800	32519	34417	
412	0	32712	32722	34412	
413	0	32890	32854	34416	
414	0	32864	32972	34417	
415	0	32944	33164	34416	
416	0	32870	33307	34428	
417	0	32852	33445	34441	
418	0	32821	33468	34444	
419	0	32840	33393	34452	
420	0	32784	33188	34452	
421	0	32704	32885	34452	
422	0	32652	32668	34436	
423	0	32713	32524	34444	
424	0	32680	32450	34433	
425	0	32680	32529	34416	
426	0	32732	32302	34433	
427	0	32760	32485	34469	
428	0	32785	32550	34458	
429	0	32832	32636	34441	
430	0	32812	32660	34424	
431	0	32760	32685	34428	
432	0	32849	32888	34405	
433	0	32868	32948	34408	
434	0	32864	32957	34405	
435	0	32860	33114	34446	
436	0	32880	33193	34454	
437	0	32800	33308	34452	
438	0	32804	33444	34426	
439	0	32744	33392	34436	
440	0	32850	33168	34469	
441	0	32864	32881	34468	
442	0	32693	32582	34473	
443	0	32565	32554	34472	
444	0	32624	32428	34437	
445	0	32688	32364	34420	
446	0	32714	32489	34408	
447	0	32774	32500	34407	
448	0	32804	32680	34404	
449	0	32856	32656	34384	
450	0	32868	32656	34369	
451	0	32840	32556	34356	
452	0	32942	32712	34380	
453	0	32908	32805	34375	
454	0	32864	33040	34370	
455	0	32841	33247	34384	
456	0	32924	33260	34391	
457	0	32812	33225	34405	
458	0	32840	33233	34420	
459	0	32722	33444	34432	
460	0	32756	33194	34408	
461	0	32738	32876	34404	
462	0	32692	32644	34400	
463	0	32706	32596	34376	
464	0	32716	32596	34367	
465	0	32668	32519	34368	
466	0	32710	32697	34381	
467	0	32753	32717	34383	
468	0	32772	32876	34380	
469	0	32813	32894	34392	
470	0	32764	32767	34380	
471	0	32736	32710	34351	
472	0	32898	32661	34353	
473	0	32904	32640	34340	
474	0	32872	32844	34352	
475	0	32928	33092	34357	
476	0	32928	32956	34367	
477	0	32772	33072	34356	
478	0	32824	33144	34356	
479	0	32888	33142	34372	
480	0	32732	32984	34366	
481	0	32732	32729	34388	
482	0	32696	32540	34372	
483	0	32645	32497	34368	
484	0	32681	32412	34365	
485	0	32580	32448	34361	
486	0	32668	32654	34378	
487	0	32850	32604	34384	
488	0	32773	32530	34348	
489	0	32872	32516	34346	
490	0	32800	32597	34320	
491	0	32868	32624	34308	
492	0	32892	32703	34332	
493	0	32824	33032	34325	
494	0	32873	33028	34348	
495	0	32916	33228	34352	
496	0	32908	33320	34352	
497	0	32856	33412	34349	
498	0	32816	33261	34372	
499	0	32834	33192	34397	
500	0	32688	33040	34388	
501	0	32724	32881	34392	
502	0	32745	32796	34402	
503	0	32696	32618	34388	
504	0	32640	32533	34384	
505	0	32612	32509	34391	
506	0	32636	32598	34406	
507	0	32761	32588	34409	
508	0	32788	32714	34412	
509	0	32796	32881	34388	
510	0	32892	32688	34396	
511	0	32838	32568	34389	
512	0	32852	32732	34382	
513	0	32832	32825	34388	
514	0	32844	33071	34420	
515	0	32885	33200	34438	
516	0	32898	33253	34428	
517	0	32840	33201	34450	
518	0	32848	33196	34453	
519	0	32730	33082	34472	
520	0	32757	33053	34460	
521	0	32777	32718	34468	
522	0	32738	32582	34469	
523	0	32628	32536	34432	
524	0	32612	32586	34420	
525	0	32692	32468	34426	
526	0	32748	32417	34430	
527	0	32720	32500	34408	
528	0	32692	32641	34382	
529	0	32868	32925	34380	
530	0	32884	32900	34372	
531	0	32856	32903	34356	
532	0	32872	32943	34373	
533	0	32896	32944	34384	
534	0	32826	32964	34368	
535	0	32828	33153	34376	
536	0	32976	33310	34392	
537	0	32854	33408	34400	
538	0	32936	33450	34413	
539	0	32708	33287	34404	
540	0	32616	33161	34412	
541	0	32706	32846	34405	
542	0	32660	32516	34404	
543	0	32729	32356	34420	
544	0	32668	32502	34417	
545	0	32724	32377	34417	
546	0	32720	32519	34393	
547	0	32676	32540	34378	
548	0	32740	32552	34412	
549	0	32808	32684	34420	
550	0	32796	32748	34428	
551	0	32812	32712	34428	
552	0	32800	32634	34407	
553	0	32844	32804	34388	
554	0	32798	33094	34420	
555	0	32836	33244	34425	
556	0	32872	33257	34414	
557	0	32864	33324	34434	
558	0	32864	33392	34444	
559	0	32720	33300	34438	
560	0	32841	33140	34439	
561	0	32728	32819	34449	
562	0	32790	32605	34463	
563	0	32696	32480	34468	
564	0	32680	32553	34452	
565	0	32612	32510	34452	
566	0	32684	32484	34452	
567	0	32754	32409	34444	
568	0	32730	32556	34432	
569	0	32830	32632	34448	
570	0	32869	32688	34429	
571	0	32818	32712	34402	
572	0	32840	32760	34406	
573	0	32820	32852	34389	
574	0	32864	33020	34380	
575	0	32868	33208	34380	
576	0	32912	33389	34400	
577	0	32784	33336	34404	
578	0	32905	33344	34415	
579	0	32848	33237	34420	
580	0	32792	33154	34409	
581	0	32724	32806	34400	
582	0	32716	32518	34428	
583	0	32656	32324	34388	
584	0	32614	32464	34388	
585	0	32660	32396	34368	
586	0	32676	32452	34336	
587	0	32764	32680	34349	
588	0	32824	32818	34342	
589	0	32752	32748	34328	
590	0	32828	32729	34304	
591	0	32826	32700	34308	
592	0	32844	32752	34300	
593	0	32929	32836	34322	
594	0	32952	32892	34317	
595	0	32841	32964	34310	
596	0	32809	33164	34316	
597	0	32840	33125	34332	
598	0	32894	33272	34348	
599	0	32738	33270	34352	
600	0	32772	33216	34368	
601	0	32730	32956	34348	
602	0	32736	32661	34360	
603	0	32644	32788	34349	
604	0	32660	32496	34356	
605	0	32728	32409	34364	
606	0	32704	32340	34384	
607	0	32744	32276	34357	
608	0	32794	32433	34344	
609	0	32862	32788	34356	
610	0	32808	32586	34356	
611	0	32701	32596	34356	
612	0	32812	32704	34334	
613	0	32900	32738	34324	
614	0	32864	33104	34326	
615	0	32924	33232	34326	
616	0	32928	33229	34348	
617	0	32832	33380	34384	
618	0	32848	33287	34377	
619	0	32780	33364	34390	
620	0	32794	33292	34396	
621	0	32808	33046	34405	
622	0	32736	32612	34397	
623	0	32748	32416	34404	
624	0	32576	32364	34398	
625	0	32628	32212	34403	
626	0	32788	32344	34414	
627	0	32812	32408	34404	
628	0	32880	32519	34428	
629	0	32797	32672	34422	
630	0	32800	32623	34440	
631	0	32800	32641	34444	
632	0	32880	32800	34464	
633	0	32840	32864	34436	
634	0	32856	33020	34456	
635	0	32812	33161	34470	
636	0	32876	33272	34464	
637	0	32772	33253	34468	
638	0	32837	33297	34486	
639	0	32796	33292	34496	
640	0	32772	33182	34502	
641	0	32763	32942	34504	
642	0	32704	32641	34500	
643	0	32668	32433	34492	
644	0	32608	32388	34488	
645	0	32564	32298	34468	
646	0	32770	32488	34456	
647	0	32728	32456	34432	
648	0	32777	32740	34434	
649	0	32753	32695	34420	
650	0	32840	32774	34408	
651	0	32826	32673	34404	
652	0	32920	32764	34382	
653	0	32860	32832	34378	
654	0	32857	33020	34364	
655	0	32885	33236	34382	
656	0	32956	33369	34390	
657	0	32892	33380	34394	
658	0	32842	33294	34384	
659	0	32836	33237	34394	
660	0	32714	33088	34399	
661	0	32644	32909	34397	
662	0	32703	32720	34377	
663	0	32690	32566	34351	
664	0	32608	32468	34358	
665	0	32652	32261	34374	
666	0	32744	32485	34380	
667	0	32744	32605	34368	
668	0	32736	32676	34369	
669	0	32812	32726	34369	
670	0	32728	32652	34366	
671	0	32788	32498	34349	
672	0	32700	32620	34353	
673	0	32920	32873	34366	
674	0	32958	33116	34368	
675	0	32919	33133	34379	
676	0	32940	33142	34394	
677	0	32844	33172	34404	
678	0	32884	33150	34396	
679	0	32788	33230	34412	
680	0	32766	33124	34431	
681	0	32714	33057	34433	
682	0	32709	32884	34420	
683	0	32677	32625	34423	
684	0	32757	32538	34425	
685	0	32608	32534	34420	
686	0	32600	32560	34424	
687	0	32718	32552	34420	
688	0	32853	32570	34420	
689	0	32830	32881	34437	
690	0	32832	32913	34410	
691	0	32840	32760	34412	
692	0	32808	32772	34397	
693	0	32893	32913	34401	
694	0	32876	32992	34404	
695	0	32849	33212	34384	
696	0	32913	33253	34389	
697	0	32850	33265	34406	
698	0	32864	33217	34416	
699	0	32820	33159	34422	
700	0	32750	33008	34428	
701	0	32668	32822	34389	
702	0	32689	32612	34372	
703	0	32688	32462	34372	
704	0	32672	32492	34367	
705	0	32649	32394	34340	
706	0	32724	32512	34338	
707	0	32734	32545	34318	
708	0	32788	32658	34325	
709	0	32760	32704	34308	
710	0	32840	32673	34308	
711	0	32801	32704	34293	
712	0	32817	32814	34292	
713	0	32936	32924	34286	
714	0	32836	32976	34280	
715	0	32940	33222	34280	
716	0	32896	33302	34280	
717	0	32825	33253	34310	
718	0	32752	33312	34336	
719	0	32866	33253	34340	
720	0	32764	33072	34341	
721	0	32852	32743	34361	
722	0	32677	32516	34337	
723	0	32633	32632	34338	
724	0	32781	32560	34320	
725	0	32701	32420	34326	
726	0	32696	32445	34316	
727	0	32708	32420	34309	
728	0	32748	32536	34332	
729	0	32816	32816	34348	
730	0	32828	32695	34372	
731	0	32780	32519	34383	
732	0	32828	32824	34393	
733	0	32868	32892	34384	
734	0	32864	32908	34380	
735	0	32892	33128	34376	
736	0	33021	33184	34357	
737	0	32822	33286	34372	
738	0	32824	33336	34386	
739	0	32800	33280	34393	
740	0	32688	33240	34400	
741	0	32696	33059	34412	
742	0	32784	32726	34401	
743	0	32668	32745	34404	
744	0	32596	32404	34380	
745	0	32658	32345	34382	
746	0	32630	32448	34376	
747	0	32696	32412	34372	
748	0	32844	32458	34369	
749	0	32804	32648	34368	
750	0	32804	32712	34354	
751	0	32804	32712	34334	
752	0	32884	32742	34340	
753	0	32832	32844	34332	
754	0	32828	32932	34344	
755	0	32818	33215	34333	
756	0	32936	33277	34326	
757	0	32820	33357	34349	
758	0	32840	33412	34364	
759	0	32872	33254	34360	
760	0	32760	33092	34354	
761	0	32736	32882	34360	
762	0	32640	32436	34364	
763	0	32724	32394	34352	
764	0	32708	32548	34344	
765	0	32652	32362	34324	
766	0	32708	32552	34306	
767	0	32748	32588	34316	
768	0	32776	32640	34320	
769	0	32844	32664	34296	
770	0	32800	32789	34290	
771	0	32808	32767	34281	
772	0	32868	32743	34277	
773	0	32836	32775	34276	
774	0	32848	32952	34288	
775	0	32892	33196	34306	
776	0	32920	33432	34308	
777	0	32877	33540	34322	
778	0	32871	33516	34326	
779	0	32760	33342	34326	
780	0	32728	33028	34338	
781	0	32764	32800	34364	
782	0	32644	32556	34372	
783	0	32644	32564	34400	
784	0	32632	32478	34391	
785	0	32648	32454	34382	
786	0	32700	32342	34380	
787	0	32741	32356	34369	
788	0	32828	32622	34386	
789	0	32752	32632	34391	
790	0	32860	32740	34384	
791	0	32772	32601	34384	
792	0	32830	32718	34384	
793	0	32928	32806	34404	
794	0	32840	33124	34415	
795	0	32888	33193	34428	
796	0	32924	33332	34449	
797	0	32852	33428	34460	
798	0	32836	33421	34462	
799	0	32840	33308	34452	
800	0	32784	33049	34468	
801	0	32773	32888	34473	
802	0	32672	32756	34471	
803	0	32648	32692	34473	
804	0	32677	32596	34464	
805	0	32736	32572	34456	
806	0	32696	32430	34416	
807	0	32728	32441	34396	
808	0	32764	32524	34376	
809	0	32805	32484	34360	
810	0	32750	32404	34352	
811	0	32824	32444	34332	
812	0	32857	32745	34328	
813	0	32840	32814	34344	
814	0	32796	32936	34340	
815	0	32897	33213	34380	
816	0	33012	33217	34376	
817	0	32836	33383	34369	
818	0	32860	33465	34348	
819	0	32896	33422	34356	
820	0	32724	33175	34342	
821	0	32730	32988	34356	
822	0	32820	32616	34356	
823	0	32620	32554	34341	
824	0	32724	32444	34324	
825	0	32616	32476	34352	
826	0	32664	32352	34352	
827	0	32657	32390	34350	
828	0	32772	32565	34368	
829	0	32796	32612	34364	
830	0	32836	32740	34356	
831	0	32848	32609	34364	
832	0	32900	32784	34392	
833	0	32900	32812	34383	
834	0	32888	33024	34380	
835	0	32904	33161	34388	
836	0	32948	33244	34394	
837	0	32760	33464	34416	
838	0	32832	33447	34408	
839	0	32833	33408	34432	
840	0	32736	33310	34428	
841	0	32784	32944	34425	
842	0	32724	32680	34413	
843	0	32672	32508	34407	
844	0	32696	32325	34420	
845	0	32624	32150	34418	
846	0	32808	32332	34412	
847	0	32777	32397	34426	
848	0	32804	32492	34419	
849	0	32858	32623	34420	
850	0	32868	32781	34410	
851	0	32828	32778	34405	
852	0	32757	32958	34412	
853	0	32808	32772	34426	
854	0	32861	33081	34441	
855	0	32880	33232	34452	
856	0	32868	33404	34476	
857	0	32904	33194	34484	
858	0	32892	33209	34481	
859	0	32840	33149	34487	
860	0	32664	33024	34481	
861	0	32828	32802	34508	
862	0	32628	32584	34505	
863	0	32646	32528	34525	
864	0	32684	32360	34521	
865	0	32612	32647	34498	
866	0	32736	32702	34492	
867	0	32672	32543	34484	
868	0	32772	32694	34485	
869	0	32804	32766	34472	
870	0	32864	32686	34456	
871	0	32856	32732	34452	
872	0	32828	32736	34445	
873	0	32940	32765	34436	
874	0	32876	32916	34440	
875	0	32826	33127	34444	
876	0	32920	33041	34436	
877	0	32860	33348	34448	
878	0	32860	33252	34456	
879	0	32754	33356	34482	
880	0	32756	33124	34464	
881	0	32728	32969	34472	
882	0	32608	32638	34469	
883	0	32668	32494	34492	
884	0	32680	32412	34481	
885	0	32620	32373	34488	
886	0	32711	32316	34468	
887	0	32728	32356	34465	
888	0	32744	32497	34441	
889	0	32837	32660	34448	
890	0	32788	32768	34437	
891	0	32856	32768	34445	
892	0	32904	32836	34456	
893	0	32892	32860	34462	
894	0	32821	33116	34468	
895	0	32904	33217	34468	
896	0	32940	33268	34468	
897	0	32808	33277	34476	
898	0	32852	33220	34473	
899	0	32800	33269	34492	
900	0	32780	33090	34505	
901	0	32788	32997	34500	
902	0	32676	32633	34479	
903	0	32708	32625	34463	
904	0	32680	32556	34457	
905	0	32636	32474	34456	
906	0	32640	32557	34439	
907	0	32744	32516	34409	
908	0	32720	32712	34377	
909	0	32734	32640	34369	
910	0	32872	32794	34356	
911	0	32863	32769	34344	
912	0	32869	32865	34346	
913	0	32864	32873	34320	
914	0	32845	33053	34316	
915	0	32888	33208	34293	
916	0	32885	33348	34292	
917	0	32840	33312	34311	
918	0	32898	33389	34330	
919	0	32821	33348	34337	
920	0	32746	33180	34336	
921	0	32704	32908	34336	
922	0	32616	32680	34327	
923	0	32700	32496	34324	
924	0	32712	32312	34312	
925	0	32708	32110	34296	
926	0	32680	32384	34311	
927	0	32734	32436	34304	
928	0	32832	32817	34312	
929	0	32784	32646	34322	
930	0	32812	32628	34312	
931	0	32786	32658	34310	
932	0	32937	32696	34322	
933	0	32968	32933	34324	
934	0	32856	33020	34332	
935	0	32818	33376	34350	
936	0	32893	33316	34349	
937	0	32880	33324	34354	
938	0	32852	33289	34377	
939	0	32836	33260	34361	
940	0	32764	33000	34384	
941	0	32762	32780	34368	
942	0	32712	32481	34357	
943	0	32632	32401	34384	
944	0	32712	32440	34360	
945	0	32704	32324	34356	
946	0	32644	32543	34366	
947	0	32716	32484	34344	
948	0	32732	32696	34359	
949	0	32788	33005	34343	
950	0	32802	32784	34348	
951	0	32760	32636	34350	
952	0	32848	32648	34340	
953	0	32844	32784	34348	
954	0	32896	33044	34372	
955	0	32900	33356	34361	
956	0	32884	33484	34364	
957	0	32880	33174	34372	
958	0	32840	33252	34377	
959	0	32784	33248	34383	
960	0	32668	33066	34392	
961	0	32748	32892	34382	
962	0	32728	32484	34407	
963	0	32692	32472	34379	
964	0	32704	32446	34376	
965	0	32641	32478	34376	
966	0	32637	32394	34378	
967	0	32730	32480	34396	
968	0	32748	32476	34390	
969	0	32760	32682	34384	
970	0	32824	32804	34382	
971	0	32848	32711	34344	
972	0	32857	32833	34357	
973	0	32864	32797	34361	
974	0	32853	33122	34372	
975	0	32936	33157	34393	
976	0	32924	33313	34400	
977	0	32812	33332	34396	
978	0	32848	33427	34419	
979	0	32836	33391	34438	
980	0	32764	33164	34449	
981	0	32742	32893	34449	
982	0	32572	32592	34444	
983	0	32720	32616	34433	
984	0	32744	32658	34430	
985	0	32664	32544	34422	
986	0	32684	32556	34440	
987	0	32716	32432	34441	
988	0	32781	32418	34426	
989	0	32784	32617	34433	
990	0	32808	32709	34428	
991	0	32812	32712	34396	
992	0	32901	32765	34376	
993	0	32894	32680	34372	
994	0	32816	33013	34395	
995	0	32908	33178	34412	
996	0	32892	33126	34416	
997	0	32796	33276	34421	
998	0	32900	33388	34400	
999	0	32772	33103	34432	
1000	0	32694	32956	34408	
1001	0	32714	32621	34416	
1002	0	32768	32544	34406	
1003	0	32656	32703	34406	
1004	0	32704	32590	34396	
1005	0	32680	32512	34377	
1006	0	32712	32452	34372	
1007	0	32716	32551	34377	
1008	0	32756	32500	34372	
1009	0	32782	32664	34388	
1010	0	32876	32750	34393	
1011	0	32888	32768	34405	
1012	0	32770	32782	34412	
1013	0	32808	32874	34404	
1014	0	32936	33164	34404	
1015	0	32908	33264	34421	
1016	0	32824	33158	34436	
1017	0	32902	33344	34448	
1018	0	32960	33468	34437	
1019	0	32824	33431	34457	
1020	0	32768	33303	34454	
1021	0	32744	32837	34456	
1022	0	32604	32600	34444	
1023	0	32692	32538	34429	
1024	0	32616	32408	34409	
1025	0	32660	32278	34420	
1026	0	32660	32348	34408	
1027	0	32768	32276	34416	
1028	0	32776	32424	34400	
1029	0	32788	32485	34430	
1030	0	32816	32659	34404	
1031	0	32860	32687	34405	
1032	0	32880	32739	34409	
1033	0	32848	32710	34420	
1034	0	32825	33041	34405	
1035	0	32942	33292	34396	
1036	0	32924	33415	34406	
1037	0	32868	33372	34432	
1038	0	32820	33305	34441	
1039	0	32808	33391	34460	
1040	0	32760	33322	34452	
1041	0	32720	32961	34440	
1042	0	32692	32670	34436	
1043	0	32662	32540	34436	
1044	0	32648	32248	34440	
1045	0	32648	32240	34426	
1046	0	32653	32392	34390	
1047	0	32776	32461	34382	
1048	0	32818	32516	34388	
1049	0	32872	32660	34387	
1050	0	32832	32736	34379	
1051	0	32772	32604	34368	
1052	0	32812	32745	34370	
1053	0	32820	32970	34388	
1054	0	32900	33052	34388	
1055	0	32972	33352	34404	
1056	0	32996	33324	34400	
1057	0	32832	33415	34420	
1058	0	32792	33428	34400	
1059	0	32760	33468	34389	
1060	0	32673	33176	34385	
1061	0	32765	33064	34392	
1062	0	32680	32889	34400	
1063	0	32608	32588	34388	
1064	0	32648	32448	34409	
1065	0	32644	32519	34401	
1066	0	32768	32461	34404	
1067	0	32720	32333	34398	
1068	0	32833	32432	34396	
1069	0	32840	32564	34400	
1070	0	32836	32589	34389	
1071	0	32844	32560	34388	
1072	0	32832	32561	34392	
1073	0	32861	32806	34403	
1074	0	32824	32880	34388	
1075	0	32856	33208	34392	
1076	0	32888	33226	34399	
1077	0	32836	33261	34399	
1078	0	32712	33346	34398	
1079	0	32930	33438	34388	
1080	0	32812	33204	34400	
1081	0	32668	33028	34413	
1082	0	32724	32752	34390	
1083	0	32720	32448	34400	
1084	0	32640	32474	34403	
1085	0	32552	32497	34413	
1086	0	32722	32532	34408	
1087	0	32725	32543	34406	
1088	0	32740	32361	34396	
1089	0	32756	32752	34379	
1090	0	32864	32629	34380	
1091	0	32848	32644	34368	
1092	0	32932	32847	34370	
1093	0	32864	32920	34397	
1094	0	32828	32983	34406	
1095	0	32921	33130	34400	
1096	0	32936	33220	34401	
1097	0	32832	33304	34420	
1098	0	32893	33432	34405	
1099	0	32832	33180	34422	
1100	0	32800	33327	34428	
1101	0	32796	32886	34428	
1102	0	32680	32672	34413	
1103	0	32652	32500	34400	
1104	0	32668	32401	34392	
1105	0	32684	32332	34415	
1106	0	32624	32408	34373	
1107	0	32676	32493	34356	
1108	0	32800	32775	34352	
1109	0	32788	32732	34348	
1110	0	32748	32645	34342	
1111	0	32924	32784	34320	
1112	0	32885	32805	34324	
1113	0	32836	33036	34304	
1114	0	32861	32964	34316	
1115	0	32884	33224	34320	
1116	0	32900	33240	34304	
1117	0	32860	33316	34319	
1118	0	32892	33300	34330	
1119	0	32802	33236	34335	
1120	0	32768	33216	34340	
1121	0	32732	32775	34319	
1122	0	32717	32537	34320	
1123	0	32640	32476	34336	
1124	0	32644	32412	34320	
1125	0	32681	32312	34344	
1126	0	32684	32360	34348	
1127	0	32668	32444	34340	
1128	0	32724	32676	34344	
1129	0	32768	32549	34328	
1130	0	32888	32612	34309	
1131	0	32853	32668	34276	
1132	0	32828	32796	34278	
1133	0	32906	32969	34301	
1134	0	32800	33052	34309	
1135	0	32857	33276	34308	
1136	0	32992	33401	34327	
1137	0	32956	33340	34346	
1138	0	32836	33213	34348	
1139	0	32776	33161	34361	
1140	0	32824	33063	34360	
1141	0	32722	32852	34373	
1142	0	32728	32584	34380	
1143	0	32704	32629	34380	
1144	0	32702	32636	34396	
1145	0	32644	32657	34396	
1146	0	32764	32616	34422	
1147	0	32720	32616	34425	
1148	0	32770	32661	34392	
1149	0	32844	32636	34384	
1150	0	32848	32529	34405	
1151	0	32724	32628	34389	
1152	0	32900	32849	34394	
1153	0	32868	32922	34391	
1154	0	32852	32975	34392	
1155	0	32864	33275	34381	
1156	0	32920	33220	34391	
1157	0	32828	33262	34400	
1158	0	32868	33320	34416	
1159	0	32754	33262	34405	
1160	0	32648	32992	34420	
1161	0	32740	32877	34432	
1162	0	32668	32696	34448	
1163	0	32714	32714	34464	
1164	0	32628	32500	34448	
1165	0	32670	32580	34438	
1166	0	32568	32429	34448	
1167	0	32736	32476	34429	
1168	0	32832	32473	34436	
1169	0	32780	32605	34420	
1170	0	32760	32496	34412	
1171	0	32808	32524	34408	
1172	0	32896	32732	34404	
1173	0	32928	32788	34412	
1174	0	32876	32849	34409	
1175	0	32902	33088	34415	
1176	0	32900	33172	34404	
1177	0	32840	33264	34436	
1178	0	32900	33277	34444	
1179	0	32800	33293	34452	
1180	0	32736	33252	34442	
1181	0	32762	33008	34460	
1182	0	32712	32588	34444	
1183	0	32644	32664	34432	
1184	0	32680	32549	34408	
1185	0	32612	32560	34400	
1186	0	32640	32572	34404	
1187	0	32668	32613	34400	
1188	0	32805	32586	34390	
1189	0	32840	32662	34397	
1190	0	32728	32648	34383	
1191	0	32800	32720	34348	
1192	0	32876	32804	34338	
1193	0	32892	32802	34332	
1194	0	32864	33061	34324	
1195	0	32868	33210	34326	
1196	0	32844	33108	34332	
1197	0	32872	33101	34350	
1198	0	32880	33056	34361	
1199	0	32812	33122	34356	
1200	0	32740	33215	34372	
1201	0	32806	33069	34356	
1202	0	32776	32721	34348	
1203	0	32661	32576	34357	
1204	0	32664	32469	34351	
1205	0	32612	32328	34364	
1206	0	32680	32284	34346	
1207	0	32737	32446	34357	
1208	0	32818	32425	34372	
1209	0	32781	32775	34368	
1210	0	32752	32700	34353	
1211	0	32816	32590	34357	
1212	0	32968	32876	34343	
1213	0	32892	32956	34332	
1214	0	32844	33052	34341	
1215	0	32912	33156	34356	
1216	0	32884	33409	34360	
1217	0	32844	33236	34393	
1218	0	32896	33478	34412	
1219	0	32908	33472	34413	
1220	0	32728	33271	34412	
1221	0	32753	32884	34417	
1222	0	32674	32704	34399	
1223	0	32700	32588	34368	
1224	0	32712	32476	34376	
1225	0	32680	32520	34380	
1226	0	32668	32340	34384	
1227	0	32724	32420	34381	
1228	0	32793	32500	34396	
1229	0	32826	32488	34384	
1230	0	32784	32696	34370	
1231	0	32752	32697	34356	
1232	0	32832	32746	34348	
1233	0	32940	32712	34345	
1234	0	32868	32724	34343	
1235	0	32865	33120	34352	
1236	0	32928	33346	34367	
1237	0	32848	33318	34372	
1238	0	32897	33297	34376	
1239	0	32760	33512	34382	
1240	0	32716	33132	34388	
1241	0	32737	32840	34382	
1242	0	32712	32532	34384	
1243	0	32662	32552	34388	
1244	0	32604	32716	34412	
1245	0	32588	32587	34380	
1246	0	32644	32470	34385	
1247	0	32748	32392	34369	
1248	0	32772	32420	34367	
1249	0	32900	32558	34368	
1250	0	32864	32536	34360	
1251	0	32856	32438	34350	
1252	0	32872	32732	34335	
1253	0	32876	32796	34338	
1254	0	32906	33002	34343	
1255	0	32908	33236	34336	
1256	0	32898	33257	34357	
1257	0	32836	33441	34372	
1258	0	32852	33340	34383	
1259	0	32760	33316	34396	
1260	0	32728	33117	34407	
1261	0	32724	32988	34420	
1262	0	32768	32647	34416	
1263	0	32665	32596	34392	
1264	0	32628	32616	34390	
1265	0	32636	32644	34390	
1266	0	32676	32822	34392	
1267	0	32671	32588	34388	
1268	0	32760	32662	34394	
1269	0	32764	32620	34378	
1270	0	32842	32692	34356	
1271	0	32852	32608	34341	
1272	0	32924	32668	34344	
1273	0	32920	32698	34364	
1274	0	32812	32849	34364	
1275	0	32974	33193	34368	
1276	0	32919	33264	34372	
1277	0	32781	33324	34382	
1278	0	32916	33278	34396	
1279	0	32796	33127	34408	
1280	0	32680	32936	34428	
1281	0	32772	32910	34428	
1282	0	32652	32632	34436	
1283	0	32648	32476	34428	
1284	0	32656	32389	34416	
1285	0	32696	32648	34456	
1286	0	32676	32671	34452	
1287	0	32672	32472	34444	
1288	0	32756	32636	34428	
1289	0	32784	32648	34428	
1290	0	32769	32830	34420	
1291	0	32788	32728	34428	
1292	0	32936	32744	34390	
1293	0	32916	32992	34404	
1294	0	32744	33000	34409	
1295	0	32956	33360	34452	
1296	0	32880	33246	34464	
1297	0	32809	33296	34485	
1298	0	32980	33236	34489	
1299	0	32892	33076	34484	
1300	0	32760	32996	34488	
1301	0	32752	32832	34480	
1302	0	32548	32575	34492	
1303	0	32648	32516	34488	
1304	0	32676	32420	34484	
1305	0	32591	32388	34468	
1306	0	32629	32460	34484	
1307	0	32705	32585	34472	
1308	0	32704	32596	34468	
1309	0	32782	32812	34462	
1310	0	32808	32925	34440	
1311	0	32849	32764	34436	
1312	0	32865	32800	34420	
1313	0	32898	32801	34405	
1314	0	32864	33028	34397	
1315	0	32892	33132	34400	
1316	0	32988	33224	34410	
1317	0	32814	33288	34431	
1318	0	32772	33401	34438	
1319	0	32832	33426	34423	
1320	0	32749	33356	34407	
1321	0	32782	32964	34412	
1322	0	32760	32657	34413	
1323	0	32644	32333	34404	
1324	0	32712	32479	34391	
1325	0	32712	32428	34366	
1326	0	32732	32468	34356	
1327	0	32780	32468	34342	
1328	0	32743	32481	34340	
1329	0	32756	32671	34332	
1330	0	32800	32684	34308	
1331	0	32801	32593	34311	
1332	0	32820	32632	34300	
1333	0	32884	32880	34311	
1334	0	32889	32964	34283	
1335	0	32876	33196	34276	
1336	0	32924	33328	34286	
1337	0	32858	33317	34310	
1338	0	32888	33586	34305	
1339	0	32820	33311	34328	
1340	0	32748	33322	34340	
1341	0	32720	32941	34348	
1342	0	32684	32724	34328	
1343	0	32633	32292	34336	
1344	0	32696	32614	34300	
1345	0	32784	32352	34306	
1346	0	32711	32320	34292	
1347	0	32728	32364	34298	
1348	0	32720	32597	34293	
1349	0	32840	32644	34306	
1350	0	32748	32673	34324	
1351	0	32868	32673	34316	
1352	0	32832	32740	34308	
1353	0	32948	32679	34302	
1354	0	32920	32845	34298	
1355	0	32880	33090	34303	
1356	0	32880	33202	34320	
1357	0	32892	33164	34364	
1358	0	32776	33414	34373	
1359	0	32844	33364	34372	
1360	0	32846	33397	34360	
1361	0	32761	32980	34349	
1362	0	32700	32804	34377	
1363	0	32676	32612	34369	
1364	0	32654	32620	34380	
1365	0	32612	32277	34386	
1366	0	32600	32630	34388	
1367	0	32704	32561	34401	
1368	0	32752	32632	34392	
1369	0	32832	32720	34400	
1370	0	32896	32664	34381	
1371	0	32857	32704	34393	
1372	0	32866	32716	34389	
1373	0	32924	32888	34409	
1374	0	32812	32960	34396	
1375	0	32848	33297	34421	
1376	0	32882	33412	34438	
1377	0	32904	33287	34464	
1378	0	32828	33235	34484	
1379	0	32772	33190	34494	
1380	0	32824	33096	34507	
1381	0	32740	32996	34526	
1382	0	32696	32510	34520	
1383	0	32620	32452	34517	
1384	0	32632	32172	34501	
1385	0	32617	32335	34508	
1386	0	32676	32353	34492	
1387	0	32720	32572	34480	
1388	0	32792	32604	34477	
1389	0	32844	32688	34460	
1390	0	32817	32624	34458	
1391	0	32712	32628	34457	
1392	0	32876	32687	34456	
1393	0	32956	32813	34428	
1394	0	32936	33122	34420	
1395	0	32924	33192	34434	
1396	0	32888	33402	34444	
1397	0	32876	33572	34455	
1398	0	32848	33388	34444	
1399	0	32796	33294	34450	
1400	0	32796	33119	34437	
1401	0	32728	32896	34427	
1402	0	32641	32700	34425	
1403	0	32684	32492	34409	
1404	0	32692	32348	34400	
1405	0	32692	32299	34384	
1406	0	32648	32406	34356	
1407	0	32700	32664	34367	
1408	0	32760	32824	34356	
1409	0	32833	32796	34335	
1410	0	32896	32706	34350	
1411	0	32816	32576	34332	
1412	0	32804	32690	34318	
1413	0	32885	32820	34336	
1414	0	32944	32890	34321	
1415	0	32996	33166	34348	
1416	0	32912	33208	34352	
1417	0	32852	33265	34361	
1418	0	32825	33303	34348	
1419	0	32844	33152	34357	
1420	0	32684	33132	34372	
1421	0	32664	32808	34397	
1422	0	32652	32593	34365	
1423	0	32668	32625	34364	
1424	0	32580	32549	34341	
1425	0	32672	32494	34340	
1426	0	32700	32421	34352	
1427	0	32780	32385	34333	
1428	0	32844	32472	34336	
1429	0	32828	32738	34333	
1430	0	32804	32782	34301	
1431	0	32854	32648	34296	
1432	0	32876	32548	34324	
1433	0	32896	32732	34340	
1434	0	32884	33020	34352	
1435	0	32845	33232	34338	
1436	0	32917	33392	34334	
1437	0	32840	33392	34341	
1438	0	32948	33516	34353	
1439	0	32860	33472	34360	
1440	0	32714	33236	34343	
1441	0	32748	32772	34317	
1442	0	32692	32561	34311	
1443	0	32728	32600	34316	
1444	0	32694	32476	34316	
1445	0	32636	32429	34314	
1446	0	32656	32396	34333	
1447	0	32676	32296	34337	
1448	0	32782	32492	34344	
1449	0	32780	32564	34318	
1450	0	32852	32739	34319	
1451	0	32805	32780	34314	
1452	0	32956	32920	34326	
1453	0	32920	32992	34311	
1454	0	32872	33060	34325	
1455	0	32888	33220	34328	
1456	0	32896	33136	34322	
1457	0	32800	33212	34336	
1458	0	32920	33364	34349	
1459	0	32848	33348	34365	
1460	0	32688	33167	34377	
1461	0	32810	32854	34388	
1462	0	32740	32576	34396	
1463	0	32744	32470	34392	
1464	0	32724	32498	34370	
1465	0	32656	32445	34375	
1466	0	32676	32485	34360	
1467	0	32740	32592	34372	
1468	0	32832	32623	34341	
1469	0	32833	32596	34344	
1470	0	32824	32638	34347	
1471	0	32798	32632	34360	
1472	0	32800	32736	34373	
1473	0	32868	32868	34379	
1474	0	32796	32978	34397	
1475	0	32864	33174	34424	
1476	0	32872	33308	34439	
1477	0	32848	33448	34456	
1478	0	32928	33516	34447	
1479	0	32808	33413	34445	
1480	0	32752	33262	34448	
1481	0	32676	32901	34433	
1482	0	32712	32733	34422	
1483	0	32609	32430	34436	
1484	0	32656	32420	34449	
1485	0	32632	32260	34438	
1486	0	32656	32304	34424	
1487	0	32736	32438	34414	
1488	0	32834	32440	34420	
1489	0	32868	32712	34430	
1490	0	32829	32516	34420	
1491	0	32849	32648	34396	
1492	0	32828	32730	34397	
1493	0	32922	32812	34397	
1494	0	32880	32900	34428	
1495	0	32760	33332	34417	
1496	0	32920	33260	34456	
1497	0	32904	33433	34436	
1498	0	32850	33528	34461	
1499	0	32820	33400	34482	
1500	0	32736	33046	34472	
1501	0	32780	32913	34476	
1502	0	32576	32540	34454	
1503	0	32702	32548	34456	
1504	0	32622	32476	34458	
1505	0	32752	32605	34449	
1506	0	32680	32588	34434	
1507	0	32696	32566	34412	
1508	0	32812	32591	34428	
1509	0	32816	32780	34420	
1510	0	32760	32612	34426	
1511	0	32810	32628	34430	
1512	0	32848	32630	34440	
1513	0	32867	32808	34444	
1514	0	32878	33044	34464	
1515	0	32880	33156	34444	
1516	0	32918	33132	34460	
1517	0	32796	33384	34472	
1518	0	32836	33398	34482	
1519	0	32744	33474	34508	
1520	0	32772	33172	34540	
1521	0	32696	32958	34548	
1522	0	32704	32726	34540	
1523	0	32640	32644	34514	
1524	0	32712	32424	34485	
1525	0	32704	32446	34487	
1526	0	32740	32516	34501	
1527	0	32708	32584	34469	
1528	0	32764	32444	34469	
1529	0	32796	32655	34445	
1530	0	32832	32544	34452	
1531	0	32847	32542	34452	
1532	0	32836	32596	34452	
1533	0	32904	32687	34448	
1534	0	32948	33078	34441	
1535	0	32872	33098	34472	
1536	0	32893	33209	34468	
1537	0	32800	33240	34428	
1538	0	32880	33588	34439	
1539	0	32793	33168	34432	
1540	0	32692	33065	34413	
1541	0	32768	32985	34440	
1542	0	32664	32804	34420	
1543	0	32676	32594	34412	
1544	0	32628	32538	34407	
1545	0	32655	32476	34385	
1546	0	32696	32448	34400	
1547	0	32730	32368	34407	
1548	0	32860	32450	34374	
1549	0	32840	32673	34392	
1550	0	32900	32696	34374	
1551	0	32866	32751	34353	
1552	0	32887	32794	34333	
1553	0	32820	32912	34340	
1554	0	32844	33015	34324	
1555	0	32957	33334	34328	
1556	0	32928	33212	34314	
1557	0	32864	33289	34318	
1558	0	32868	33486	34308	
1559	0	32748	33397	34333	
1560	0	32764	33072	34361	
1561	0	32732	32836	34356	
1562	0	32668	32652	34359	
1563	0	32652	32324	34353	
1564	0	32692	32358	34354	
1565	0	32704	32228	34352	
1566	0	32676	32343	34354	
1567	0	32760	32562	34348	
1568	0	32800	32606	34326	
1569	0	32812	32876	34308	
1570	0	32798	32739	34300	
1571	0	32776	32662	34288	
1572	0	32832	32801	34297	
1573	0	32852	32916	34280	
1574	0	32917	33068	34284	
1575	0	32900	33194	34308	
1576	0	32969	33168	34320	
1577	0	32812	33242	34311	
1578	0	32804	33324	34328	
1579	0	32804	33072	34318	
1580	0	32775	33189	34319	
1581	0	32708	32832	34322	
1582	0	32638	32785	34316	
1583	0	32716	32768	34316	
1584	0	32608	32548	34308	
1585	0	32660	32505	34288	
1586	0	32706	32346	34293	
1587	0	32708	32496	34300	
1588	0	32768	32663	34311	
1589	0	32832	32572	34301	
1590	0	32837	32549	34308	
1591	0	32860	32678	34311	
1592	0	32868	32698	34297	
1593	0	32864	32896	34290	
1594	0	32856	33196	34303	
1595	0	32864	33242	34308	
1596	0	32976	33394	34325	
1597	0	32888	33500	34337	
1598	0	32840	33280	34340	
1599	0	32784	33314	34356	
1600	0	32740	33137	34340	
1601	0	32716	32888	34348	
1602	0	32657	32442	34348	
1603	0	32676	32550	34376	
1604	0	32620	32300	34374	
1605	0	32653	32356	34382	
1606	0	32688	32365	34388	
1607	0	32768	32317	34370	
1608	0	32848	32320	34377	
1609	0	32792	32596	34376	
1610	0	32768	32605	34377	
1611	0	32788	32662	34385	
1612	0	32788	32687	34362	
1613	0	32872	32839	34356	
1614	0	32912	33082	34380	
1615	0	32816	33280	34365	
1616	0	32924	33188	34392	
1617	0	32845	33348	34396	
1618	0	32864	33460	34424	
1619	0	32828	33328	34430	
1620	0	32786	33212	34432	
1621	0	32812	32686	34420	
1622	0	32649	32672	34442	
1623	0	32648	32550	34448	
1624	0	32676	32548	34450	
1625	0	32628	32429	34438	
1626	0	32636	32519	34436	
1627	0	32784	32408	34450	
1628	0	32784	32698	34460	
1629	0	32790	32780	34447	
1630	0	32800	32636	34428	
1631	0	32840	32669	34436	
1632	0	32944	32849	34416	
1633	0	32949	32903	34424	
1634	0	32904	33044	34425	
1635	0	32852	33216	34449	
1636	0	32868	33192	34456	
1637	0	32881	33295	34457	
1638	0	32848	33271	34472	
1639	0	32841	33165	34484	
1640	0	32724	33175	34496	
1641	0	32676	32820	34508	
1642	0	32616	32673	34505	
1643	0	32717	32546	34492	
1644	0	32708	32486	34496	
1645	0	32624	32468	34489	
1646	0	32744	32600	34460	
1647	0	32800	32588	34468	
1648	0	32758	32688	34448	
1649	0	32841	32745	34440	
1650	0	32762	32808	34445	
1651	0	32900	32775	34444	
1652	0	32920	32692	34432	
1653	0	32856	32688	34408	
1654	0	32920	32896	34415	
1655	0	32852	33182	34401	
1656	0	32898	33208	34405	
1657	0	32836	33422	34420	
1658	0	32788	33304	34424	
1659	0	32874	33452	34422	
1660	0	32744	33241	34423	
1661	0	32720	33020	34433	
1662	0	32718	32600	34420	
1663	0	32628	32341	34420	
1664	0	32724	32182	34401	
1665	0	32640	32340	34396	
1666	0	32632	32532	34375	
1667	0	32800	32536	34368	
1668	0	32756	32557	34388	
1669	0	32808	32668	34364	
1670	0	32852	32782	34332	
1671	0	32812	32636	34324	
1672	0	32888	32614	34340	
1673	0	32812	32816	34319	
1674	0	32848	32992	34336	
1675	0	32848	33287	34340	
1676	0	32908	33396	34341	
1677	0	32808	33240	34340	
1678	0	32780	33285	34356	
1679	0	32813	33305	34364	
1680	0	32708	33200	34372	
1681	0	32752	32848	34372	
1682	0	32729	32564	34392	
1683	0	32632	32463	34409	
1684	0	32604	32526	34413	
1685	0	32602	32538	34392	
1686	0	32728	32592	34394	
1687	0	32848	32478	34376	
1688	0	32784	32638	34348	
1689	0	32808	32652	34351	
1690	0	32926	32612	34329	
1691	0	32796	32736	34324	
1692	0	32928	32640	34316	
1693	0	32924	32840	34320	
1694	0	32880	33112	34344	
1695	0	32858	33244	34332	
1696	0	32936	33202	34333	
1697	0	32777	33234	34340	
1698	0	32708	33382	34348	
1699	0	32820	33093	34350	
1700	0	32784	33112	34348	
1701	0	32708	32889	34352	
1702	0	32704	32588	34374	
1703	0	32649	32372	34366	
1704	0	32672	32512	34352	
1705	0	32716	32284	34334	
1706	0	32692	32438	34334	
1707	0	32788	32418	34308	
1708	0	32768	32764	34289	
1709	0	32800	32778	34288	
1710	0	32832	32664	34270	
1711	0	32788	32598	34280	
1712	0	32852	32759	34263	
1713	0	32866	32956	34287	
1714	0	32844	33052	34302	
1715	0	32804	33316	34327	
1716	0	32860	33287	34340	
1717	0	32876	33380	34361	
1718	0	32925	33464	34393	
1719	0	32836	33392	34407	
1720	0	32748	33168	34443	
1721	0	32724	32874	34444	
1722	0	32700	32712	34452	
1723	0	32718	32512	34468	
1724	0	32680	32452	34486	
1725	0	32646	32352	34508	
1726	0	32688	32401	34480	
1727	0	32712	32485	34484	
1728	0	32781	32761	34472	
1729	0	32784	32795	34468	
1730	0	32820	32530	34468	
1731	0	32860	32716	34474	
1732	0	32802	32597	34448	
1733	0	32908	32833	34455	
1734	0	32844	32900	34485	
1735	0	32884	33252	34516	
1736	0	32960	33212	34536	
1737	0	32836	33301	34576	
1738	0	32798	33509	34581	
1739	0	32824	33328	34588	
1740	0	32728	33147	34588	
1741	0	32708	32691	34596	
1742	0	32748	32612	34584	
1743	0	32696	32644	34608	
1744	0	32676	32372	34612	
1745	0	32662	32392	34617	
1746	0	32616	32474	34634	
1747	0	32732	32452	34622	
1748	0	32785	32608	34625	
1749	0	32752	32592	34602	
1750	0	32796	32598	34604	
1751	0	32784	32788	34584	
1752	0	32885	32804	34550	
1753	0	32852	32932	34548	
1754	0	32832	33190	34552	
1755	0	32985	33089	34548	
1756	0	32960	33174	34544	
1757	0	32840	33295	34544	
1758	0	32825	33286	34516	
1759	0	32796	33376	34492	
1760	0	32797	33164	34509	
1761	0	32700	32901	34508	
1762	0	32688	32692	34500	
1763	0	32612	32785	34496	
1764	0	32640	32658	34486	
1765	0	32633	32468	34492	
1766	0	32752	32512	34484	
1767	0	32708	32321	34472	
1768	0	32832	32639	34452	
1769	0	32849	32659	34444	
1770	0	32880	32629	34446	
1771	0	32834	32677	34448	
1772	0	32864	32728	34447	
1773	0	32900	32820	34460	
1774	0	32844	32984	34462	
1775	0	32810	33141	34468	
1776	0	32954	33090	34476	
1777	0	32836	33262	34485	
1778	0	32805	33328	34500	
1779	0	32800	33328	34529	
1780	0	32736	33157	34540	
1781	0	32764	32828	34532	
1782	0	32672	32568	34502	
1783	0	32723	32532	34488	
1784	0	32656	32372	34477	
1785	0	32676	32356	34500	
1786	0	32697	32393	34476	
1787	0	32688	32271	34482	
1788	0	32856	32508	34476	
1789	0	32876	32528	34465	
1790	0	32837	32689	34415	
1791	0	32752	32704	34404	
1792	0	32832	32783	34396	
1793	0	32860	32893	34396	
1794	0	32844	33174	34405	
1795	0	32976	33310	34417	
1796	0	32960	33292	34409	
1797	0	32828	33409	34429	
1798	0	32888	33358	34407	
1799	0	32772	33277	34404	
1800	0	32704	33192	34402	
1801	0	32694	32881	34400	
1802	0	32656	32612	34364	
1803	0	32640	32619	34337	
1804	0	32669	32413	34332	
1805	0	32700	32298	34316	
1806	0	32728	32460	34311	
1807	0	32745	32386	34301	
1808	0	32796	32647	34284	
1809	0	32764	32592	34271	
1810	0	32854	32504	34266	
1811	0	32810	32785	34261	
1812	0	32872	32856	34248	
1813	0	32904	32892	34277	
1814	0	32880	33088	34268	
1815	0	32908	33168	34268	
1816	0	32892	33228	34268	
1817	0	32804	33405	34316	
1818	0	32858	33454	34314	
1819	0	32812	33364	34330	
1820	0	32772	33096	34348	
1821	0	32724	32797	34336	
1822	0	32676	32570	34338	
1823	0	32620	32501	34348	
1824	0	32600	32412	34334	
1825	0	32620	32381	34334	
1826	0	32713	32518	34328	
1827	0	32752	32429	34322	
1828	0	32780	32797	34336	
1829	0	32898	32708	34332	
1830	0	32760	32545	34305	
1831	0	32808	32670	34305	
1832	0	32910	32865	34311	
1833	0	32952	32824	34301	
1834	0	32908	33055	34325	
1835	0	32936	33269	34317	
1836	0	32964	33345	34335	
1837	0	32752	33400	34340	
1838	0	32808	33356	34362	
1839	0	32776	33165	34348	
1840	0	32780	33072	34365	
1841	0	32680	32593	34360	
1842	0	32644	32588	34361	
1843	0	32670	32480	34350	
1844	0	32753	32648	34356	
1845	0	32692	32518	34350	
1846	0	32676	32548	34352	
1847	0	32732	32503	34361	
1848	0	32868	32645	34382	
1849	0	32882	32388	34382	
1850	0	32804	32461	34364	
1851	0	32828	32573	34356	
1852	0	32801	32774	34353	
1853	0	32858	32932	34348	
1854	0	32868	33149	34364	
1855	0	32852	33313	34400	
1856	0	32872	33500	34404	
1857	0	32858	33461	34392	
1858	0	32812	33402	34412	
1859	0	32768	33404	34424	
1860	0	32692	33232	34425	
1861	0	32716	32884	34441	
1862	0	32628	32689	34429	
1863	0	32714	32514	34431	
1864	0	32684	32492	34420	
1865	0	32648	32236	34413	
1866	0	32686	32432	34424	
1867	0	32760	32241	34428	
1868	0	32812	32453	34433	
1869	0	32876	32740	34447	
1870	0	32780	32521	34436	
1871	0	32852	32616	34440	
1872	0	32870	32658	34436	
1873	0	32900	32700	34440	
1874	0	32844	33034	34440	
1875	0	32964	33254	34457	
1876	0	32929	33279	34470	
1877	0	32848	33396	34480	
1878	0	32820	33342	34484	
1879	0	32794	33256	34504	
1880	0	32676	33224	34510	
1881	0	32668	32830	34516	
1882	0	32694	32496	34504	
1883	0	32696	32526	34501	
1884	0	32748	32533	34522	
1885	0	32612	32488	34503	
1886	0	32690	32536	34496	
1887	0	32682	32654	34510	
1888	0	32748	32750	34510	
1889	0	32824	32772	34492	
1890	0	32800	32582	34505	
1891	0	32838	32745	34500	
1892	0	32852	32832	34520	
1893	0	32901	32867	34504	
1894	0	32948	32899	34500	
1895	0	32916	33220	34481	
1896	0	32948	33120	34520	
1897	0	32822	33316	34517	
1898	0	32818	33268	34527	
1899	0	32768	33265	34535	
1900	0	32710	33189	34540	
1901	0	32724	32837	34512	
1902	0	32732	32556	34513	
1903	0	32676	32599	34528	
1904	0	32724	32537	34476	
1905	0	32732	32516	34472	
1906	0	32764	32480	34479	
1907	0	32740	32364	34460	
1908	0	32824	32396	34429	
1909	0	32816	32631	34392	
1910	0	32834	32620	34406	
1911	0	32824	32706	34400	
1912	0	32856	32804	34408	
1913	0	32876	32869	34397	
1914	0	32860	33130	34404	
1915	0	32873	33106	34398	
1916	0	32978	33269	34390	
1917	0	32852	33276	34404	
1918	0	32740	33424	34416	
1919	0	32804	33424	34404	
1920	0	32689	33220	34390	
1921	0	32684	32732	34377	
1922	0	32736	32540	34372	
1923	0	32732	32464	34367	
1924	0	32612	32452	34356	
1925	0	32676	32348	34344	
1926	0	32704	32444	34325	
1927	0	32808	32317	34322	
1928	0	32749	32437	34312	
1929	0	32768	32712	34318	
1930	0	32880	32706	34309	
1931	0	32794	32650	34311	
1932	0	32868	32792	34318	
1933	0	32920	32900	34292	
1934	0	32900	33108	34284	
1935	0	32904	33217	34308	
1936	0	32880	33361	34341	
1937	0	32776	33304	34356	
1938	0	32849	33268	34369	
1939	0	32773	33202	34396	
1940	0	32744	33009	34406	
1941	0	32680	32608	34396	
1942	0	32736	32460	34396	
1943	0	32630	32414	34400	
1944	0	32653	32416	34406	
1945	0	32728	32408	34404	
1946	0	32736	32530	34392	
1947	0	32696	32474	34402	
1948	0	32780	32648	34420	
1949	0	32832	32640	34412	
1950	0	32768	32628	34417	
1951	0	32860	32684	34412	
1952	0	32892	32876	34408	
1953	0	32881	32964	34409	
1954	0	32813	33312	34430	
1955	0	32836	33405	34447	
1956	0	32848	33445	34447	
1957	0	32906	33539	34468	
1958	0	32804	33480	34476	
1959	0	32724	33421	34489	
1960	0	32696	33076	34494	
1961	0	32720	32777	34508	
1962	0	32676	32596	34512	
1963	0	32668	32594	34497	
1964	0	32576	32508	34480	
1965	0	32704	32359	34460	
1966	0	32776	32357	34454	
1967	0	32740	32312	34448	
1968	0	32832	32469	34420	
1969	0	32840	32646	34432	
1970	0	32864	32569	34414	
1971	0	32824	32692	34406	
1972	0	32877	32860	34420	
1973	0	32856	32980	34405	
1974	0	32920	33170	34397	
1975	0	32916	33315	34404	
1976	0	32828	33244	34392	
1977	0	32876	33232	34400	
1978	0	32836	33164	34416	
1979	0	32796	33245	34439	
1980	0	32768	32988	34420	
1981	0	32744	32719	34428	
1982	0	32594	32556	34436	
1983	0	32656	32484	34396	
1984	0	32684	32368	34400	
1985	0	32708	32340	34410	
1986	0	32760	32534	34415	
1987	0	32686	32420	34420	
1988	0	32836	32698	34407	
1989	0	32873	32693	34375	
1990	0	32826	32674	34372	
1991	0	32934	32808	34385	
1992	0	32860	32876	34368	
1993	0	32878	32961	34354	
1994	0	32860	33086	34358	
1995	0	32943	33272	34360	
1996	0	32836	33321	34356	
1997	0	32794	33249	34396	
1998	0	32912	33297	34416	
1999	0	32820	33312	34424	
2000	0	32776	33210	34420	
2001	0	32709	32844	34446	
2002	0	32702	32632	34432	
2003	0	32678	32484	34413	
2004	0	32676	32444	34424	
2005	0	32612	32326	34417	
2006	0	32712	32289	34396	
2007	0	32680	32349	34400	
2008	0	32828	32592	34400	
2009	0	32818	32608	34380	
2010	0	32804	32548	34400	
2011	0	32888	32680	34397	
2012	0	32853	32800	34390	
2013	0	32842	32977	34406	
2014	0	32880	33106	34418	
2015	0	32932	33344	34441	
2016	0	32776	33464	34455	
2017	0	32866	33438	34464	
2018	0	32784	33384	34477	
2019	0	32760	33195	34468	
2020	0	32740	33063	34482	
2021	0	32660	32748	34460	
2022	0	32660	32752	34455	
2023	0	32617	32560	34479	
2024	0	32661	32424	34479	
2025	0	32660	32372	34477	
2026	0	32744	32508	34460	
2027	0	32820	32504	34457	
2028	0	32800	32689	34477	
2029	0	32896	32644	34484	
2030	0	32824	32648	34468	
2031	0	32788	32633	34482	
2032	0	32897	32854	34500	
2033	0	32892	33062	34505	
2034	0	32921	33193	34501	
2035	0	32884	33196	34508	
2036	0	32848	33112	34504	
2037	0	32832	33188	34493	
2038	0	32836	33244	34508	
2039	0	32760	33185	34532	
2040	0	32741	32988	34533	
2041	0	32709	32596	34520	
2042	0	32688	32626	34488	
2043	0	32645	32484	34484	
2044	0	32700	32503	34474	
2045	0	32736	32553	34474	
2046	0	32712	32504	34484	
2047	0	32664	32472	34464	
2048	0	32764	32837	34436	
2049	0	32804	32654	34428	
2050	0	32764	32688	34405	
2051	0	32849	32699	34373	
2052	0	32816	32802	34380	
2053	0	32824	32796	34389	
2054	0	32852	33113	34392	
2055	0	32916	33224	34397	
2056	0	32812	33301	34380	
2057	0	32828	33324	34389	
2058	0	32841	33337	34396	
2059	0	32796	33468	34392	
2060	0	32752	33078	34384	
2061	0	32776	32700	34356	
2062	0	32692	32620	34368	
2063	0	32640	32586	34360	
2064	0	32692	32324	34348	
2065	0	32688	32312	34326	
2066	0	32753	32324	34304	
2067	0	32736	32484	34305	
2068	0	32868	32512	34285	
2069	0	32880	32492	34284	
2070	0	32888	32616	34276	
2071	0	32876	32756	34269	
2072	0	32824	32804	34300	
2073	0	32788	32916	34303	
2074	0	32928	33212	34303	
2075	0	32908	33306	34305	
2076	0	32836	33502	34300	
2077	0	32844	33448	34284	
2078	0	32793	33414	34324	
2079	0	32780	33240	34342	
2080	0	32836	33007	34348	
2081	0	32652	32589	34340	
2082	0	32716	32352	34340	
2083	0	32632	32570	34364	
2084	0	32622	32461	34389	
2085	0	32705	32448	34392	
2086	0	32756	32452	34384	
2087	0	32720	32518	34368	
2088	0	32812	32623	34360	
2089	0	32832	32624	34368	
2090	0	32896	32579	34345	
2091	0	32852	32613	34361	
2092	0	32920	32826	34384	
2093	0	32878	32908	34377	
2094	0	32916	33281	34401	
2095	0	32949	33375	34408	
2096	0	32884	33308	34420	
2097	0	32816	33285	34436	
2098	0	32788	33480	34462	
2099	0	32780	33320	34484	
2100	0	32760	32948	34464	
2101	0	32636	32700	34476	
2102	0	32672	32686	34506	
2103	0	32678	32456	34493	
2104	0	32536	32464	34520	
2105	0	32692	32469	34512	
2106	0	32784	32444	34495	
2107	0	32732	32669	34492	
2108	0	32860	32704	34461	
2109	0	32856	32718	34472	
2110	0	32854	32676	34469	
2111	0	32804	32676	34460	
2112	0	32916	32858	34449	
2113	0	32884	32828	34461	
2114	0	32886	33036	34479	
2115	0	32918	33101	34480	
2116	0	32792	33188	34479	
2117	0	32886	33220	34476	
2118	0	32856	33370	34484	
2119	0	32712	33176	34493	
2120	0	32724	33161	34496	
2121	0	32660	32872	34500	
2122	0	32696	32722	34492	
2123	0	32754	32549	34488	
2124	0	32636	32460	34497	
2125	0	32669	32312	34502	
2126	0	32701	32516	34500	
2127	0	32832	32556	34494	
2128	0	32829	32809	34485	
2129	0	32844	32752	34460	
2130	0	32824	32745	34456	
2131	0	32792	32760	34438	
2132	0	32816	32929	34455	
2133	0	32876	32912	34469	
2134	0	32952	33044	34496	
2135	0	32884	33010	34501	
2136	0	32840	33160	34488	
2137	0	32808	33255	34476	
2138	0	32772	33413	34480	
2139	0	32652	33292	34484	
2140	0	32820	33052	34504	
2141	0	32714	32781	34500	
2142	0	32704	32546	34484	
2143	0	32710	32468	34484	
2144	0	32600	32440	34472	
2145	0	32644	32416	34440	
2146	0	32689	32468	34439	
2147	0	32788	32529	34417	
2148	0	32768	32846	34412	
2149	0	32824	32797	34405	
2150	0	32799	32836	34396	
2151	0	32856	32712	34401	
2152	0	32814	32752	34404	
2153	0	32860	32870	34406	
2154	0	32889	33119	34398	
2155	0	32856	33286	34388	
2156	0	32904	33476	34397	
2157	0	32869	33316	34388	
2158	0	32944	33050	34386	
2159	0	32764	33236	34395	
2160	0	32780	32978	34396	
2161	0	32688	32692	34394	
2162	0	32732	32650	34373	
2163	0	32700	32519	34388	
2164	0	32656	32444	34372	
2165	0	32585	32428	34363	
2166	0	32690	32449	34344	
2167	0	32756	32592	34344	
2168	0	32756	32796	34351	
2169	0	32764	32717	34333	
2170	0	32784	32688	34322	
2171	0	32841	32631	34309	
2172	0	32900	32680	34311	
2173	0	32873	32978	34314	
2174	0	32933	33081	34325	
2175	0	32948	33252	34364	
2176	0	32844	33252	34384	
2177	0	32856	33303	34396	
2178	0	32788	33212	34396	
2179	0	32710	33159	34417	
2180	0	32796	32836	34420	
2181	0	32748	32615	34416	
2182	0	32654	32513	34444	
2183	0	32696	32559	34445	
2184	0	32692	32448	34452	
2185	0	32712	32428	34468	
2186	0	32748	32457	34464	
2187	0	32764	32444	34468	
2188	0	32856	32804	34470	
2189	0	32828	32701	34478	
2190	0	32736	32664	34488	
2191	0	32744	32732	34479	
2192	0	32945	32958	34460	
2193	0	32936	32968	34468	
2194	0	32897	33225	34448	
2195	0	32862	33226	34468	
2196	0	32840	33144	34480	
2197	0	32880	33265	34500	
2198	0	32748	33225	34482	
2199	0	32775	33228	34521	
2200	0	32740	33056	34526	
2201	0	32706	32680	34527	
2202	0	32732	32646	34518	
2203	0	32692	32535	34496	
2204	0	32664	32448	34489	
2205	0	32681	32552	34476	
2206	0	32676	32548	34480	
2207	0	32801	32740	34477	
2208	0	32804	32716	34452	
2209	0	32900	32732	34464	
2210	0	32844	32700	34425	
2211	0	32832	32532	34428	
2212	0	32893	32647	34424	
2213	0	32788	32782	34428	
2214	0	32868	33017	34408	
2215	0	32845	33240	34424	
2216	0	32812	33305	34422	
2217	0	32900	33276	34412	
2218	0	32853	33353	34412	
2219	0	32792	33258	34432	
2220	0	32752	32877	34432	
2221	0	32688	32572	34416	
2222	0	32632	32544	34418	
2223	0	32658	32524	34439	
2224	0	32680	32596	34412	
2225	0	32680	32568	34388	
2226	0	32752	32509	34374	
2227	0	32788	32412	34365	
2228	0	32748	32640	34356	
2229	0	32852	32734	34346	
2230	0	32868	32750	34352	
2231	0	32852	32752	34352	
2232	0	32832	32804	34374	
2233	0	32853	32758	34380	
2234	0	32845	33069	34392	
2235	0	32886	33224	34373	
2236	0	32820	33348	34396	
2237	0	32808	33472	34415	
2238	0	32832	33391	34421	
2239	0	32764	33388	34420	
2240	0	32780	33116	34436	
2241	0	32728	32839	34404	
2242	0	32669	32697	34412	
2243	0	32708	32452	34416	
2244	0	32636	32576	34421	
2245	0	32644	32461	34414	
2246	0	32756	32510	34415	
2247	0	32808	32513	34417	
2248	0	32744	32726	34414	
2249	0	32802	32585	34405	
2250	0	32764	32600	34405	
2251	0	32872	32737	34380	
2252	0	32880	32816	34396	
2253	0	32888	32844	34410	
2254	0	32784	33177	34418	
2255	0	32988	33253	34418	
2256	0	32996	33320	34437	
2257	0	32849	33492	34452	
2258	0	32888	33348	34468	
2259	0	32736	33316	34480	
2260	0	32705	32909	34489	
2261	0	32748	32724	34472	
2262	0	32708	32461	34457	
2263	0	32700	32484	34466	
2264	0	32660	32485	34452	
2265	0	32652	32376	34448	
2266	0	32773	32454	34442	
2267	0	32728	32489	34432	
2268	0	32792	32813	34438	
2269	0	32748	32614	34410	
2270	0	32712	32624	34421	
2271	0	32848	32632	34406	
2272	0	32948	32720	34416	
2273	0	32880	32684	34456	
2274	0	32976	33075	34446	
2275	0	32912	33220	34460	
2276	0	32808	33188	34452	
2277	0	32836	33466	34469	
2278	0	32856	33525	34488	
2279	0	32748	33441	34452	
2280	0	32754	32870	34452	
2281	0	32641	32584	34472	
2282	0	32712	32404	34479	
2283	0	32704	32393	34460	
2284	0	32688	32557	34432	
2285	0	32705	32464	34444	
2286	0	32713	32505	34436	
2287	0	32760	32484	34448	
2288	0	32820	32605	34428	
2289	0	32796	32565	34426	
2290	0	32877	32588	34436	
2291	0	32800	32812	34412	
2292	0	32888	32926	34423	
2293	0	32864	32924	34414	
2294	0	32840	33180	34414	
2295	0	32886	33433	34425	
2296	0	32844	33356	34408	
2297	0	32836	33418	34428	
2298	0	32836	33142	34436	
2299	0	32752	33152	34439	
2300	0	32708	32908	34450	
2301	0	32716	32699	34420	
2302	0	32736	32493	34436	
2303	0	32670	32494	34440	
2304	0	32696	32516	34440	
2305	0	32696	32406	34428	
2306	0	32708	32372	34440	
2307	0	32728	32428	34429	
2308	0	32801	32733	34409	
2309	0	32920	32676	34392	
2310	0	32772	32639	34388	
2311	0	32808	32646	34377	
2312	0	32850	32641	34372	
2313	0	32868	32768	34388	
2314	0	32836	33076	34407	
2315	0	32876	33262	34440	
2316	0	32815	33349	34436	
2317	0	32756	33445	34447	
2318	0	32845	33436	34460	
2319	0	32884	33324	34468	
2320	0	32836	33120	34465	
2321	0	32648	32740	34464	
2322	0	32621	32609	34452	
2323	0	32648	32668	34441	
2324	0	32604	32732	34441	
2325	0	32658	32592	34433	
2326	0	32684	32528	34410	
2327	0	32745	32309	34385	
2328	0	32812	32356	34390	
2329	0	32953	32864	34393	
2330	0	32841	32758	34364	
2331	0	32800	32669	34364	
2332	0	32892	32801	34349	
2333	0	32944	32781	34357	
2334	0	32884	32868	34352	
2335	0	33024	33174	34376	
2336	0	32900	33096	34374	
2337	0	32804	33420	34381	
2338	0	32828	33420	34381	
2339	0	32780	33248	34405	
2340	0	32724	32990	34408	
2341	0	32740	32641	34412	
2342	0	32613	32545	34410	
2343	0	32680	32670	34426	
2344	0	32708	32489	34425	
2345	0	32676	32434	34428	
2346	0	32704	32352	34410	
2347	0	32748	32532	34404	
2348	0	32738	32741	34389	
2349	0	32840	32656	34400	
2350	0	32841	32460	34413	
2351	0	32756	32584	34428	
2352	0	32840	32846	34416	
2353	0	32860	32910	34420	
2354	0	32952	33140	34436	
2355	0	32868	33354	34436	
2356	0	32830	33437	34437	
2357	0	32828	33310	34449	
2358	0	32812	33236	34460	
2359	0	32789	33260	34477	
2360	0	32720	33024	34460	
2361	0	32772	32723	34466	
2362	0	32708	32614	34491	
2363	0	32708	32448	34484	
2364	0	32612	32274	34487	
2365	0	32678	32416	34492	
2366	0	32676	32424	34502	
2367	0	32736	32472	34508	
2368	0	32737	32566	34510	
2369	0	32876	32704	34487	
2370	0	32938	32672	34453	
2371	0	32879	32628	34440	
2372	0	32892	32869	34452	
2373	0	32772	32925	34480	
2374	0	32892	33072	34460	
2375	0	32858	33287	34468	
2376	0	32833	33400	34483	
2377	0	32800	33478	34488	
2378	0	32790	33588	34491	
2379	0	32849	33384	34468	
2380	0	32748	33168	34470	
2381	0	32750	32784	34446	
2382	0	32724	32604	34454	
2383	0	32682	32422	34412	
2384	0	32652	32361	34409	
2385	0	32668	32405	34407	
2386	0	32704	32425	34396	
2387	0	32708	32438	34377	
2388	0	32746	32517	34384	
2389	0	32940	32592	34368	
2390	0	32792	32488	34376	
2391	0	32824	32742	34376	
2392	0	32844	32958	34365	
2393	0	32912	32884	34380	
2394	0	32904	33086	34381	
2395	0	32892	33235	34394	
2396	0	32844	33089	34384	
2397	0	32876	33192	34380	
2398	0	32834	33236	34392	
2399	0	32736	33116	34392	
2400	0	32764	32905	34397	
2401	0	32656	32476	34412	
2402	0	32648	32542	34406	
2403	0	32635	32372	34393	
2404	0	32681	32442	34386	
2405	0	32684	32416	34412	
2406	0	32780	32596	34386	
2407	0	32848	32632	34401	
2408	0	32712	32879	34368	
2409	0	32828	32924	34380	
2410	0	32864	32647	34368	
2411	0	32804	32784	34336	
2412	0	32840	32708	34343	
2413	0	32848	32916	34340	
2414	0	32832	33204	34361	
2415	0	32881	33380	34374	
2416	0	32868	33268	34381	
2417	0	32854	33348	34393	
2418	0	32782	33372	34404	
2419	0	32793	33181	34432	
2420	0	32768	33090	34420	
2421	0	32676	32862	34444	
2422	0	32664	32654	34440	
2423	0	32712	32692	34438	
2424	0	32696	32415	34422	
2425	0	32644	32369	34424	
2426	0	32704	32334	34436	
2427	0	32744	32580	34428	
2428	0	32800	32678	34429	
2429	0	32832	32725	34434	
2430	0	32852	32581	34441	
2431	0	32860	32536	34430	
2432	0	32896	32674	34422	
2433	0	32844	32814	34420	
2434	0	32866	33144	34413	
2435	0	32894	33317	34436	
2436	0	32758	33182	34447	
2437	0	32900	33205	34460	
2438	0	32984	33199	34460	
2439	0	32852	33240	34468	
2440	0	32776	33018	34472	
2441	0	32688	32807	34478	
2442	0	32756	32541	34478	
2443	0	32672	32660	34493	
2444	0	32660	32608	34476	
2445	0	32646	32624	34456	
2446	0	32672	32511	34472	
2447	0	32740	32485	34452	
2448	0	32788	32632	34470	
2449	0	32804	32650	34436	
2450	0	32820	32585	34428	
2451	0	32888	32676	34431	
2452	0	32888	32780	34420	
2453	0	32808	32949	34423	
2454	0	32948	33224	34413	
2455	0	32852	33221	34416	
2456	0	32890	33261	34404	
2457	0	32780	33333	34418	
2458	0	32772	33318	34416	
2459	0	32762	33300	34405	
2460	0	32728	32928	34414	
2461	0	32724	32597	34423	
2462	0	32708	32428	34432	
2463	0	32740	32332	34417	
2464	0	32592	32256	34422	
2465	0	32676	32481	34401	
2466	0	32720	32552	34398	
2467	0	32696	32548	34404	
2468	0	32794	32615	34424	
2469	0	32804	33030	34412	
2470	0	32780	32848	34404	
2471	0	32797	32836	34408	
2472	0	32852	32902	34420	
2473	0	32888	32900	34426	
2474	0	32842	32836	34426	
2475	0	32894	33045	34428	
2476	0	32864	33149	34426	
2477	0	32877	33346	34436	
2478	0	32896	33224	34424	
2479	0	32704	33214	34436	
2480	0	32776	33020	34468	
2481	0	32694	32696	34460	
2482	0	32698	32612	34426	
2483	0	32620	32654	34419	
2484	0	32716	32465	34428	
2485	0	32708	32433	34416	
2486	0	32724	32540	34412	
2487	0	32696	32495	34417	
2488	0	32804	32512	34420	
2489	0	32832	32568	34420	
2490	0	32780	32664	34414	
2491	0	32820	32852	34404	
2492	0	32880	32810	34421	
2493	0	32804	32860	34420	
2494	0	32832	33041	34406	
2495	0	32844	33334	34404	
2496	0	32901	33334	34420	
2497	0	32936	33376	34416	
2498	0	32852	33256	34424	
2499	0	32776	33190	34418	
2500	0	32748	32996	34436	
2501	0	32760	32812	34431	
2502	0	32652	32508	34408	
2503	0	32656	32414	34378	
2504	0	32728	32472	34376	
2505	0	32680	32580	34384	
2506	0	32700	32436	34372	
2507	0	32732	32424	34372	
2508	0	32764	32714	34373	
2509	0	32812	32908	34373	
2510	0	32834	32669	34376	
2511	0	32836	32772	34344	
2512	0	32858	32788	34364	
2513	0	32853	32974	34370	
2514	0	32925	33127	34364	
2515	0	32888	33360	34349	
2516	0	32756	33324	34348	
2517	0	32882	33353	34360	
2518	0	32876	33404	34357	
2519	0	32810	33136	34364	
2520	0	32716	33004	34380	
2521	0	32730	32708	34368	
2522	0	32628	32632	34380	
2523	0	32685	32524	34392	
2524	0	32668	32445	34396	
2525	0	32644	32319	34400	
2526	0	32764	32252	34421	
2527	0	32688	32399	34412	
2528	0	32833	32552	34432	
2529	0	32848	32863	34436	
2530	0	32816	32533	34444	
2531	0	32832	32539	34444	
2532	0	32900	32663	34436	
2533	0	32932	32872	34440	
2534	0	32828	33156	34436	
2535	0	32926	33244	34469	
2536	0	32800	33268	34478	
2537	0	32814	33478	34488	
2538	0	32832	33434	34476	
2539	0	32796	33494	34518	
2540	0	32824	33096	34508	
2541	0	32764	32822	34496	
2542	0	32688	32756	34512	
2543	0	32656	32722	34545	
2544	0	32676	32609	34528	
2545	0	32698	32556	34496	
2546	0	32760	32530	34512	
2547	0	32688	32540	34518	
2548	0	32813	32604	34508	
2549	0	32772	32516	34488	
2550	0	32820	32516	34472	
2551	0	32796	32480	34460	
2552	0	32928	32620	34476	
2553	0	32848	32888	34473	
2554	0	32860	33159	34482	
2555	0	32964	33204	34476	
2556	0	32840	33152	34496	
2557	0	32836	33302	34484	
2558	0	32848	33276	34496	
2559	0	32745	33164	34516	
2560	0	32792	32928	34492	
2561	0	32728	32672	34496	
2562	0	32588	32542	34492	
2563	0	32631	32452	34496	
2564	0	32649	32344	34504	
2565	0	32692	32470	34512	
2566	0	32744	32500	34500	
2567	0	32805	32400	34484	
2568	0	32716	32692	34454	
2569	0	32848	32680	34432	
2570	0	32908	32676	34428	
2571	0	32804	32740	34442	
2572	0	32828	32791	34425	
2573	0	32852	32919	34428	
2574	0	32921	33116	34426	
2575	0	32829	33209	34416	
2576	0	32821	33311	34432	
2577	0	32872	33391	34417	
2578	0	32808	33424	34402	
2579	0	32860	33285	34406	
2580	0	32814	33083	34420	
2581	0	32792	32775	34407	
2582	0	32622	32532	34416	
2583	0	32641	32453	34404	
2584	0	32700	32385	34409	
2585	0	32645	32320	34413	
2586	0	32694	32480	34404	
2587	0	32728	32460	34396	
2588	0	32852	32440	34392	
2589	0	32876	32672	34380	
2590	0	32780	32547	34364	
2591	0	32912	32624	34351	
2592	0	32961	32804	34349	
2593	0	32861	32964	34360	
2594	0	32832	33076	34356	
2595	0	32857	33230	34372	
2596	0	32852	33336	34377	
2597	0	32796	33396	34396	
2598	0	32856	33485	34398	
2599	0	32772	33532	34416	
2600	0	32712	33180	34390	
2601	0	32796	32717	34381	
2602	0	32690	32540	34398	
2603	0	32695	32436	34400	
2604	0	32646	32389	34404	
2605	0	32713	32405	34376	
2606	0	32656	32397	34393	
2607	0	32676	32434	34396	
2608	0	32772	32647	34397	
2609	0	32908	32585	34398	
2610	0	32798	32488	34400	
2611	0	32764	32636	34401	
2612	0	32800	32694	34388	
2613	0	32836	32700	34404	
2614	0	32900	33072	34412	
2615	0	32836	33176	34412	
2616	0	32852	33238	34414	
2617	0	32864	33322	34440	
2618	0	32808	33500	34423	
2619	0	32775	33384	34440	
2620	0	32680	33117	34454	
2621	0	32768	32844	34478	
2622	0	32652	32608	34495	
2623	0	32773	32325	34476	
2624	0	32664	32356	34477	
2625	0	32644	32489	34470	
2626	0	32692	32612	34479	
2627	0	32788	32388	34476	
2628	0	32808	32492	34472	
2629	0	32774	32640	34460	
2630	0	32836	32844	34436	
2631	0	32793	32725	34436	
2632	0	32860	32901	34447	
2633	0	32868	32917	34444	
2634	0	32897	33172	34439	
2635	0	32918	33157	34452	
2636	0	32828	33272	34444	
2637	0	32808	33518	34436	
2638	0	32820	33671	34433	
2639	0	32854	33305	34440	
2640	0	32744	33086	34465	
2641	0	32736	32646	34476	
2642	0	32689	32445	34456	
2643	0	32624	32430	34456	
2644	0	32640	32412	34460	
2645	0	32617	32392	34460	
2646	0	32712	32381	34436	
2647	0	32816	32532	34424	
2648	0	32868	32836	34433	
2649	0	32800	32647	34440	
2650	0	32672	32700	34437	
2651	0	32904	32689	34414	
2652	0	32920	32786	34385	
2653	0	32877	32716	34397	
2654	0	32832	33000	34393	
2655	0	32936	33100	34402	
2656	0	32912	33109	34399	
2657	0	32844	33352	34422	
2658	0	32795	33286	34420	
2659	0	32792	33382	34431	
2660	0	32756	33265	34454	
2661	0	32682	32724	34432	
2662	0	32780	32582	34412	
2663	0	32640	32466	34396	
2664	0	32688	32436	34394	
2665	0	32706	32424	34412	
2666	0	32714	32536	34404	
2667	0	32728	32487	34412	
2668	0	32772	32636	34404	
2669	0	32776	32656	34416	
2670	0	32740	32494	34404	
2671	0	32864	32661	34412	
2672	0	32824	32666	34409	
2673	0	32784	32848	34444	
2674	0	32904	33252	34458	
2675	0	32921	33313	34468	
2676	0	32848	33364	34460	
2677	0	32794	33358	34462	
2678	0	32876	33516	34448	
2679	0	32848	33148	34468	
2680	0	32776	33005	34468	
2681	0	32744	32710	34460	
2682	0	32698	32886	34457	
2683	0	32668	32552	34452	
2684	0	32658	32424	34431	
2685	0	32648	32377	34424	
2686	0	32706	32445	34424	
2687	0	32800	32484	34428	
2688	0	32860	32652	34437	
2689	0	32812	32680	34428	
2690	0	32772	32557	34384	
2691	0	32834	32612	34389	
2692	0	32868	32720	34396	
2693	0	32864	32817	34394	
2694	0	32878	33244	34420	
2695	0	32916	33252	34425	
2696	0	32888	33432	34437	
2697	0	32752	33476	34434	
2698	0	32884	33469	34438	
2699	0	32800	33333	34460	
2700	0	32712	33052	34459	
2701	0	32676	32752	34444	
2702	0	32652	32589	34440	
2703	0	32644	32420	34455	
2704	0	32664	32368	34444	
2705	0	32697	32452	34416	
2706	0	32753	32436	34404	
2707	0	32664	32484	34408	
2708	0	32852	32730	34405	
2709	0	32880	32616	34430	
2710	0	32766	32488	34413	
2711	0	32806	32552	34399	
2712	0	32860	32620	34372	
2713	0	32945	32929	34384	
2714	0	32912	33172	34375	
2715	0	32888	33330	34385	
2716	0	32864	33472	34384	
2717	0	32868	33469	34380	
2718	0	32852	33332	34400	
2719	0	32736	33432	34416	
2720	0	32744	33072	34437	
2721	0	32704	32684	34433	
2722	0	32673	32593	34424	
2723	0	32728	32390	34409	
2724	0	32721	32369	34420	
2725	0	32708	32465	34400	
2726	0	32728	32525	34404	
2727	0	32781	32576	34388	
2728	0	32824	32828	34384	
2729	0	32768	32893	34376	
2730	0	32832	32566	34374	
2731	0	32792	32502	34386	
2732	0	32876	32630	34360	
2733	0	32820	32640	34356	
2734	0	32864	32916	34360	
2735	0	32912	33204	34372	
2736	0	32888	33274	34352	
2737	0	32912	33279	34368	
2738	0	32868	33348	34380	
2739	0	32796	33156	34380	
2740	0	32753	33086	34381	
2741	0	32674	32722	34406	
2742	0	32556	32752	34404	
2743	0	32740	32614	34412	
2744	0	32708	32440	34399	
2745	0	32736	32450	34395	
2746	0	32728	32340	34386	
2747	0	32696	32468	34384	
2748	0	32888	32738	34385	
2749	0	32758	32924	34384	
2750	0	32796	32765	34370	
2751	0	32816	32564	34364	
2752	0	32768	32717	34368	
2753	0	32877	32814	34372	
2754	0	32825	33028	34380	
2755	0	32824	33221	34384	
2756	0	32868	33324	34403	
2757	0	32885	33366	34406	
2758	0	32750	33328	34420	
2759	0	32846	33301	34420	
2760	0	32741	33117	34432	
2761	0	32690	32820	34437	
2762	0	32720	32592	34445	
2763	0	32696	32574	34432	
2764	0	32672	32488	34426	
2765	0	32664	32306	34420	
2766	0	32748	32328	34430	
2767	0	32734	32447	34439	
2768	0	32812	32433	34437	
2769	0	32788	32544	34444	
2770	0	32832	32537	34428	
2771	0	32824	32672	34440	
2772	0	32853	32728	34462	
2773	0	32944	32775	34468	
2774	0	32904	33128	34477	
2775	0	32844	33310	34492	
2776	0	32868	33324	34495	
2777	0	32800	33335	34489	
2778	0	32788	33340	34528	
2779	0	32836	33284	34540	
2780	0	32788	33117	34540	
2781	0	32688	32694	34532	
2782	0	32688	32596	34509	
2783	0	32668	32444	34516	
2784	0	32628	32630	34508	
2785	0	32692	32496	34492	
2786	0	32696	32553	34460	
2787	0	32764	32533	34476	
2788	0	32835	32768	34485	
2789	0	32852	32710	34476	
2790	0	32800	32820	34473	
2791	0	32822	32818	34480	
2792	0	32812	32781	34472	
2793	0	32872	32782	34470	
2794	0	32869	33044	34461	
2795	0	32904	33169	34473	
2796	0	32848	33245	34473	
2797	0	32868	33324	34496	
2798	0	32860	33576	34487	
2799	0	32792	33317	34480	
2800	0	32748	33082	34485	
2801	0	32748	32660	34484	
2802	0	32658	32572	34472	
2803	0	32644	32377	34476	
2804	0	32608	32648	34481	
2805	0	32610	32460	34487	
2806	0	32836	32418	34491	
2807	0	32780	32356	34468	
2808	0	32888	32588	34464	
2809	0	32856	32541	34429	
2810	0	32860	32516	34420	
2811	0	32785	32548	34404	
2812	0	32857	32546	34430	
2813	0	32844	32919	34432	
2814	0	32788	33200	34409	
2815	0	32970	33208	34420	
2816	0	32824	33320	34447	
2817	0	32860	33415	34471	
2818	0	32821	33412	34452	
2819	0	32768	33316	34452	
2820	0	32776	33112	34471	
2821	0	32812	32632	34473	
2822	0	32704	32533	34470	
2823	0	32616	32580	34460	
2824	0	32692	32504	34448	
2825	0	32704	32487	34448	
2826	0	32733	32509	34420	
2827	0	32740	32468	34404	
2828	0	32748	32676	34412	
2829	0	32882	32706	34409	
2830	0	32796	32580	34400	
2831	0	32780	32732	34379	
2832	0	32820	32764	34364	
2833	0	32877	32943	34356	
2834	0	32888	33074	34368	
2835	0	32924	33166	34384	
2836	0	32876	33120	34409	
2837	0	32877	33250	34445	
2838	0	32764	33296	34436	
2839	0	32732	33261	34417	
2840	0	32668	33048	34423	
2841	0	32724	32876	34428	
2842	0	32672	32730	34426	
2843	0	32608	32684	34433	
2844	0	32721	32496	34417	
2845	0	32781	32548	34424	
2846	0	32756	32677	34412	
2847	0	32772	32524	34397	
2848	0	32776	32522	34380	
2849	0	32812	32775	34384	
2850	0	32754	32669	34416	
2851	0	32832	32684	34409	
2852	0	32852	32743	34407	
2853	0	32881	32936	34421	
2854	0	32948	33058	34436	
2855	0	32992	33313	34420	
2856	0	32852	33274	34421	
2857	0	32812	33508	34412	
2858	0	32932	33433	34400	
2859	0	32752	33288	34436	
2860	0	32672	33070	34436	
2861	0	32716	32864	34439	
2862	0	32684	32616	34425	
2863	0	32632	32607	34393	
2864	0	32664	32424	34405	
2865	0	32657	32412	34412	
2866	0	32696	32388	34389	
2867	0	32801	32318	34380	
2868	0	32832	32351	34382	
2869	0	32864	32697	34364	
2870	0	32790	32693	34364	
2871	0	32852	32688	34349	
2872	0	32948	32760	34351	
2873	0	32900	32915	34368	
2874	0	32848	33192	34372	
2875	0	32990	33199	34361	
2876	0	32893	33341	34353	
2877	0	32822	33336	34392	
2878	0	32784	33399	34404	
2879	0	32736	33204	34401	
2880	0	32740	33092	34408	
2881	0	32772	32660	34432	
2882	0	32736	32552	34412	
2883	0	32624	32492	34417	
2884	0	32656	32439	34388	
2885	0	32672	32329	34384	
2886	0	32800	32396	34388	
2887	0	32756	32393	34391	
2888	0	32864	32405	34372	
2889	0	32825	32558	34351	
2890	0	32790	32540	34350	
2891	0	32872	32744	34356	
2892	0	32860	32774	34364	
2893	0	32836	33024	34356	
2894	0	32816	33224	34340	
2895	0	32948	33309	34374	
2896	0	32885	33414	34389	
2897	0	32816	33444	34436	
2898	0	32864	33416	34408	
2899	0	32832	33313	34405	
2900	0	32760	33112	34397	
2901	0	32718	32689	34388	
2902	0	32699	32438	34406	
2903	0	32596	32532	34400	
2904	0	32608	32390	34402	
2905	0	32728	32329	34400	
2906	0	32754	32464	34384	
2907	0	32749	32468	34372	
2908	0	32768	32716	34383	
2909	0	32768	32794	34373	
2910	0	32820	32704	34380	
2911	0	32884	32705	34372	
2912	0	32868	32676	34378	
2913	0	32940	32790	34376	
2914	0	32864	33108	34392	
2915	0	32839	33350	34428	
2916	0	32840	33289	34437	
2917	0	32884	33492	34432	
2918	0	32804	33316	34461	
2919	0	32833	33324	34460	
2920	0	32716	32989	34484	
2921	0	32748	32805	34461	
2922	0	32702	32597	34454	
2923	0	32692	32423	34476	
2924	0	32608	32599	34489	
2925	0	32688	32444	34500	
2926	0	32784	32472	34468	
2927	0	32760	32361	34476	
2928	0	32820	32796	34484	
2929	0	32785	32730	34480	
2930	0	32848	32509	34468	
2931	0	32837	32541	34454	
2932	0	32826	32593	34445	
2933	0	32848	32828	34469	
2934	0	32916	32974	34448	
2935	0	32912	33156	34465	
2936	0	32884	33169	34466	
2937	0	32832	33508	34440	
2938	0	32900	33348	34448	
2939	0	32808	33348	34431	
2940	0	32664	33167	34445	
2941	0	32673	32864	34454	
2942	0	32756	32578	34454	
2943	0	32800	32396	34432	
2944	0	32728	32400	34429	
2945	0	32652	32514	34420	
2946	0	32768	32685	34440	
2947	0	32696	32556	34432	
2948	0	32824	32717	34415	
2949	0	32704	32775	34430	
2950	0	32852	32565	34430	
2951	0	32948	32620	34400	
2952	0	32892	32666	34416	
2953	0	32852	32781	34420	
2954	0	32828	33020	34421	
2955	0	32841	33126	34410	
2956	0	32860	33292	34448	
2957	0	32788	33348	34470	
2958	0	32780	33406	34478	
2959	0	32692	33273	34501	
2960	0	32676	33073	34516	
2961	0	32772	32713	34520	
2962	0	32728	32614	34529	
2963	0	32648	32440	34501	
2964	0	32600	32280	34484	
2965	0	32680	32337	34480	
2966	0	32676	32373	34477	
2967	0	32712	32502	34472	
2968	0	32756	32804	34473	
2969	0	32793	32828	34484	
2970	0	32904	32801	34468	
2971	0	32844	32684	34464	
2972	0	32804	32766	34461	
2973	0	32912	32924	34472	
2974	0	32910	33244	34472	
2975	0	32908	33423	34468	
2976	0	32836	33260	34464	
2977	0	32952	33386	34476	
2978	0	32852	33437	34501	
2979	0	32792	33286	34524	
2980	0	32740	33061	34524	
2981	0	32768	32668	34520	
2982	0	32648	32620	34516	
2983	0	32668	32716	34504	
2984	0	32705	32543	34496	
2985	0	32616	32432	34497	
2986	0	32676	32469	34478	
2987	0	32776	32416	34465	
2988	0	32765	32620	34472	
2989	0	32864	32661	34469	
2990	0	32844	32548	34449	
2991	0	32830	32608	34437	
2992	0	32804	32684	34438	
2993	0	32816	32900	34433	
2994	0	32891	33100	34420	
2995	0	32856	33253	34401	
2996	0	32906	33359	34400	
2997	0	32840	33416	34384	
2998	0	32776	33524	34369	
2999	0	32784	33550	34400	
3000	0	32720	33220	34424	
3001	0	32736	32836	34408	
3002	0	32660	32553	34396	
3003	0	32708	32497	34392	
3004	0	32712	32215	34415	
3005	0	32676	32200	34426	
3006	0	32736	32216	34436	
3007	0	32756	32340	34420	
3008	0	32798	32488	34417	
3009	0	32792	32665	34397	
3010	0	32772	32610	34396	
3011	0	32776	32717	34396	
3012	0	32836	32860	34415	
3013	0	32856	32728	34404	
3014	0	32892	32936	34416	
3015	0	32948	33312	34421	
3016	0	32865	33448	34415	
3017	0	32780	33316	34405	
3018	0	32864	33477	34428	
3019	0	32764	33295	34420	
3020	0	32652	32932	34420	
3021	0	32768	32760	34439	
3022	0	32708	32588	34452	
3023	0	32660	32518	34436	
3024	0	32760	32393	34424	
3025	0	32688	32500	34430	
3026	0	32732	32537	34420	
3027	0	32736	32557	34404	
3028	0	32832	32528	34397	
3029	0	32908	32737	34396	
3030	0	32758	32721	34412	
3031	0	32793	32752	34405	
3032	0	32864	32581	34404	
3033	0	32860	32774	34397	
3034	0	32932	32897	34397	
3035	0	32888	33156	34381	
3036	0	32864	33196	34368	
3037	0	32836	33300	34384	
3038	0	32898	33452	34384	
3039	0	32798	33300	34384	
3040	0	32720	33190	34396	
3041	0	32712	32829	34402	
3042	0	32704	32782	34396	
3043	0	32749	32572	34392	
3044	0	32632	32514	34372	
3045	0	32712	32400	34366	
3046	0	32684	32330	34364	
3047	0	32689	32374	34310	
3048	0	32741	32450	34312	
3049	0	32780	32629	34311	
3050	0	32804	32584	34304	
3051	0	32796	32788	34296	
3052	0	32916	32842	34296	
3053	0	32876	32968	34312	
3054	0	32892	33192	34318	
3055	0	32925	33287	34300	
3056	0	32880	33327	34332	
3057	0	32824	33543	34356	
3058	0	32808	33429	34372	
3059	0	32801	33302	34396	
3060	0	32668	33095	34376	
3061	0	32728	32774	34384	
3062	0	32694	32548	34404	
3063	0	32638	32472	34404	
3064	0	32673	32304	34393	
3065	0	32660	32452	34389	
3066	0	32772	32636	34401	
3067	0	32772	32469	34372	
3068	0	32852	32548	34388	
3069	0	32796	32661	34400	
3070	0	32788	32580	34421	
3071	0	32722	32570	34412	
3072	0	32856	32660	34426	
3073	0	32848	32725	34454	
3074	0	32768	32940	34440	
3075	0	32977	33188	34457	
3076	0	32940	33132	34456	
3077	0	32780	33226	34453	
3078	0	32957	33108	34471	
3079	0	32796	33250	34460	
3080	0	32788	33108	34486	
3081	0	32752	32897	34478	
3082	0	32654	32736	34468	
3083	0	32669	32570	34508	
3084	0	32553	32604	34500	
3085	0	32736	32448	34495	
3086	0	32662	32489	34490	
3087	0	32676	32400	34492	
3088	0	32768	32533	34486	
3089	0	32837	32354	34492	
3090	0	32820	32480	34469	
3091	0	32793	32574	34480	
3092	0	32900	32704	34492	
3093	0	32848	32818	34486	
3094	0	32876	33012	34496	
3095	0	32901	33270	34489	
3096	0	32806	33375	34501	
3097	0	32820	33508	34506	
3098	0	32844	33455	34504	
3099	0	32840	33353	34496	
3100	0	32685	32991	34520	
3101	0	32832	32724	34532	
3102	0	32656	32536	34527	
3103	0	32702	32424	34537	
3104	0	32652	32388	34508	
3105	0	32664	32436	34495	
3106	0	32680	32344	34472	
3107	0	32720	32420	34460	
3108	0	32829	32620	34450	
3109	0	32824	32665	34438	
3110	0	32844	32500	34438	
3111	0	32872	32708	34444	
3112	0	32872	32804	34436	
3113	0	32793	32804	34424	
3114	0	32870	33104	34420	
3115	0	32804	33272	34440	
3116	0	32852	33400	34450	
3117	0	32796	33461	34456	
3118	0	32848	33316	34472	
3119	0	32813	33269	34478	
3120	0	32829	33148	34478	
3121	0	32760	32640	34488	
3122	0	32700	32549	34468	
3123	0	32694	32553	34470	
3124	0	32689	32544	34450	
3125	0	32676	32462	34472	
3126	0	32720	32744	34468	
3127	0	32686	32496	34460	
3128	0	32816	32604	34444	
3129	0	32796	32695	34444	
3130	0	32776	32824	34428	
3131	0	32784	32852	34420	
3132	0	32852	32901	34424	
3133	0	32852	32870	34420	
3134	0	32836	33042	34425	
3135	0	32902	33080	34402	
3136	0	32929	33148	34404	
3137	0	32940	33133	34427	
3138	0	32888	33184	34439	
3139	0	32820	33177	34445	
3140	0	32668	32945	34450	
3141	0	32716	32632	34437	
3142	0	32640	32536	34463	
3143	0	32668	32552	34455	
3144	0	32652	32533	34460	
3145	0	32584	32294	34444	
3146	0	32707	32388	34438	
3147	0	32696	32468	34420	
3148	0	32812	32657	34406	
3149	0	32824	32748	34408	
3150	0	32880	32718	34415	
3151	0	32822	32788	34428	
3152	0	32860	32729	34410	
3153	0	32908	32980	34388	
3154	0	32824	33256	34392	
3155	0	32888	33300	34376	
3156	0	32916	33334	34396	
3157	0	32892	33338	34404	
3158	0	32850	33343	34405	
3159	0	32768	33316	34414	
3160	0	32780	33222	34409	
3161	0	32652	32709	34407	
3162	0	32640	32404	34409	
3163	0	32676	32490	34392	
3164	0	32640	32565	34392	
3165	0	32630	32477	34372	
3166	0	32736	32536	34396	
3167	0	32744	32384	34400	
3168	0	32828	32608	34409	
3169	0	32860	32596	34408	
3170	0	32788	32526	34388	
3171	0	32866	32510	34372	
3172	0	32818	32857	34362	
3173	0	32897	32924	34348	
3174	0	32840	33058	34384	
3175	0	32952	33337	34392	
3176	0	32832	33207	34393	
3177	0	32820	33420	34402	
3178	0	32833	33499	34388	
3179	0	32849	33353	34405	
3180	0	32820	33160	34400	
3181	0	32712	32986	34409	
3182	0	32656	32718	34416	
3183	0	32676	32177	34412	
3184	0	32588	32353	34420	
3185	0	32624	32452	34400	
3186	0	32716	32625	34412	
3187	0	32784	32456	34404	
3188	0	32800	32628	34393	
3189	0	32873	32865	34404	
3190	0	32760	32500	34408	
3191	0	32804	32672	34412	
3192	0	32808	32740	34415	
3193	0	32869	32804	34410	
3194	0	32885	33100	34404	
3195	0	32909	33365	34428	
3196	0	32952	33458	34432	
3197	0	32837	33369	34455	
3198	0	32826	33541	34472	
3199	0	32760	33468	34492	
3200	0	32744	33194	34484	
3201	0	32754	32862	34480	
3202	0	32724	32585	34476	
3203	0	32640	32495	34469	
3204	0	32712	32428	34461	
3205	0	32660	32400	34468	
3206	0	32736	32364	34472	
3207	0	32730	32276	34453	
3208	0	32706	32556	34432	
3209	0	32821	32583	34420	
3210	0	32844	32556	34396	
3211	0	32780	32689	34397	
3212	0	32932	32780	34406	
3213	0	32858	32936	34412	
3214	0	32864	33176	34422	
3215	0	32892	33329	34423	
3216	0	32952	33466	34426	
3217	0	32820	33612	34443	
3218	0	32865	33476	34453	
3219	0	32736	33324	34454	
3220	0	32701	33188	34456	
3221	0	32793	32648	34457	
3222	0	32685	32580	34440	
3223	0	32676	32432	34437	
3224	0	32668	32224	34439	
3225	0	32706	32366	34413	
3226	0	32697	32504	34400	
3227	0	32740	32585	34382	
3228	0	32868	32672	34373	
3229	0	32836	32601	34376	
3230	0	32816	32501	34378	
3231	0	32761	32594	34362	
3232	0	32812	32718	34368	
3233	0	32880	32976	34376	
3234	0	32897	33082	34383	
3235	0	32936	33390	34372	
3236	0	32904	33277	34368	
3237	0	32813	33466	34384	
3238	0	32902	33232	34404	
3239	0	32772	33368	34428	
3240	0	32681	33088	34416	
3241	0	32712	32928	34388	
3242	0	32708	32628	34394	
3243	0	32730	32646	34398	
3244	0	32672	32586	34413	
3245	0	32690	32480	34420	
3246	0	32708	32507	34412	
3247	0	32704	32360	34396	
3248	0	32884	32607	34404	
3249	0	32873	32656	34393	
3250	0	32728	32564	34404	
3251	0	32808	32696	34400	
3252	0	32852	32722	34398	
3253	0	32842	32865	34392	
3254	0	32805	33054	34391	
3255	0	32948	33280	34392	
3256	0	32972	33337	34408	
3257	0	32834	33629	34425	
3258	0	32800	33508	34440	
3259	0	32756	33404	34460	
3260	0	32768	33204	34469	
3261	0	32676	32798	34452	
3262	0	32644	32436	34452	
3263	0	32684	32313	34452	
3264	0	32604	32416	34457	
3265	0	32652	32394	34456	
3266	0	32676	32460	34480	
3267	0	32728	32420	34469	
3268	0	32832	32468	34468	
3269	0	32852	32678	34460	
3270	0	32780	32612	34458	
3271	0	32892	32620	34464	
3272	0	32929	32717	34466	
3273	0	32844	32762	34460	
3274	0	32904	32968	34444	
3275	0	32908	33168	34439	
3276	0	32896	33328	34437	
3277	0	32873	33493	34453	
3278	0	32833	33489	34444	
3279	0	32776	33375	34453	
3280	0	32656	33080	34470	
3281	0	32696	32742	34463	
3282	0	32588	32621	34470	
3283	0	32688	32432	34468	
3284	0	32604	32356	34477	
3285	0	32736	32349	34468	
3286	0	32746	32460	34496	
3287	0	32788	32484	34511	
3288	0	32792	32580	34494	
3289	0	32840	32760	34489	
3290	0	32814	32654	34492	
3291	0	32824	32708	34476	
3292	0	32820	32756	34484	
3293	0	32912	32860	34488	
3294	0	32918	33020	34469	
3295	0	32852	33248	34464	
3296	0	32856	33344	34484	
3297	0	32800	33448	34484	
3298	0	32916	33372	34493	
3299	0	32768	33309	34484	
3300	0	32736	33031	34460	
3301	0	32692	32873	34465	
3302	0	32606	32685	34448	
3303	0	32752	32553	34416	
3304	0	32640	32486	34410	
3305	0	32697	32430	34404	
3306	0	32724	32444	34372	
3307	0	32784	32308	34369	
3308	0	32804	32504	34358	
3309	0	32724	32444	34348	
3310	0	32852	32502	34358	
3311	0	32848	32577	34365	
3312	0	32880	32757	34332	
3313	0	32872	32752	34320	
3314	0	32916	33028	34309	
3315	0	32896	33260	34308	
3316	0	32808	33413	34306	
3317	0	32832	33612	34302	
3318	0	32804	33602	34311	
3319	0	32808	33376	34340	
3320	0	32708	33102	34325	
3321	0	32624	32672	34318	
3322	0	32725	32449	34340	
3323	0	32676	32468	34332	
3324	0	32808	32399	34343	
3325	0	32773	32422	34330	
3326	0	32776	32556	34338	
3327	0	32740	32428	34336	
3328	0	32777	32672	34321	
3329	0	32773	32809	34330	
3330	0	32808	32766	34294	
3331	0	32836	32772	34294	
3332	0	32836	32882	34309	
3333	0	32876	32965	34296	
3334	0	32916	33192	34324	
3335	0	32864	33348	34336	
3336	0	32848	33200	34340	
3337	0	32864	33229	34341	
3338	0	32768	33465	34358	
3339	0	32902	33352	34368	
3340	0	32720	33104	34380	
3341	0	32660	32629	34406	
3342	0	32664	32572	34409	
3343	0	32672	32421	34408	
3344	0	32685	32449	34428	
3345	0	32664	32370	34404	
3346	0	32692	32472	34392	
3347	0	32788	32322	34406	
3348	0	32826	32498	34405	
3349	0	32900	32497	34412	
3350	0	32816	32586	34420	
3351	0	32804	32775	34405	
3352	0	32824	32816	34417	
3353	0	32896	32880	34388	
3354	0	32845	33118	34397	
3355	0	32957	33316	34425	
3356	0	32880	33310	34412	
3357	0	32820	33404	34415	
3358	0	32840	33337	34429	
3359	0	32824	33181	34442	
3360	0	32724	33016	34445	
3361	0	32728	32697	34456	
3362	0	32652	32465	34452	
3363	0	32628	32537	34477	
3364	0	32660	32462	34476	
3365	0	32704	32317	34492	
3366	0	32730	32397	34496	
3367	0	32736	32406	34492	
3368	0	32848	32737	34512	
3369	0	32868	32878	34508	
3370	0	32782	32649	34500	
3371	0	32820	32646	34515	
3372	0	32868	32686	34508	
3373	0	32864	32904	34516	
3374	0	32900	32982	34536	
3375	0	32864	33066	34536	
3376	0	32854	32965	34569	
3377	0	32804	33285	34598	
3378	0	32813	33445	34574	
3379	0	32777	33376	34577	
3380	0	32748	33136	34577	
3381	0	32740	32800	34568	
3382	0	32684	32572	34567	
3383	0	32704	32576	34580	
3384	0	32737	32470	34592	
3385	0	32608	32245	34572	
3386	0	32784	32362	34567	
3387	0	32788	32398	34551	
3388	0	32741	32612	34544	
3389	0	32804	32556	34557	
3390	0	32809	32500	34522	
3391	0	32824	32756	34536	
3392	0	32865	32785	34516	
3393	0	32852	33064	34509	
3394	0	32884	33272	34509	
3395	0	32909	33356	34485	
3396	0	32905	33311	34488	
3397	0	32865	33372	34496	
3398	0	32857	33500	34493	
3399	0	32744	33343	34472	
3400	0	32660	33055	34486	
3401	0	32745	32806	34472	
3402	0	32804	32624	34441	
3403	0	32704	32612	34436	
3404	0	32652	32826	34436	
3405	0	32616	32341	34432	
3406	0	32688	32298	34408	
3407	0	32704	32356	34396	
3408	0	32796	32440	34388	
3409	0	32750	32700	34399	
3410	0	32772	32512	34392	
3411	0	32856	32605	34360	
3412	0	32892	32766	34332	
3413	0	32906	33006	34320	
3414	0	32912	33276	34324	
3415	0	32905	33278	34337	
3416	0	32948	33213	34356	
3417	0	32865	33333	34356	
3418	0	32873	33364	34353	
3419	0	32800	33272	34340	
3420	0	32776	33100	34353	
3421	0	32724	32824	34332	
3422	0	32632	32466	34336	
3423	0	32692	32381	34348	
3424	0	32720	32244	34348	
3425	0	32600	32388	34344	
3426	0	32684	32556	34325	
3427	0	32672	32460	34325	
3428	0	32832	32782	34311	
3429	0	32816	32684	34328	
3430	0	32769	32788	34330	
3431	0	32840	32629	34304	
3432	0	32900	32628	34295	
3433	0	32888	32840	34292	
3434	0	32892	33024	34311	
3435	0	32928	33240	34333	
3436	0	32940	33172	34341	
3437	0	32834	33313	34358	
3438	0	32760	33446	34374	
3439	0	32782	33316	34375	
3440	0	32716	33127	34401	
3441	0	32693	32765	34417	
3442	0	32670	32436	34432	
3443	0	32700	32540	34433	
3444	0	32713	32577	34439	
3445	0	32608	32532	34432	
3446	0	32728	32564	34438	
3447	0	32784	32442	34433	
3448	0	32829	32760	34432	
3449	0	32801	32612	34424	
3450	0	32824	32641	34429	
3451	0	32825	32736	34457	
3452	0	32852	32788	34465	
3453	0	32885	32724	34460	
3454	0	32944	33042	34468	
3455	0	32910	33214	34448	
3456	0	32852	33220	34458	
3457	0	32920	33144	34450	
3458	0	32854	33452	34453	
3459	0	32736	33556	34465	
3460	0	32692	33412	34476	
3461	0	32728	32988	34468	
3462	0	32612	32644	34460	
3463	0	32712	32542	34448	
3464	0	32664	32358	34452	
3465	0	32652	32228	34456	
3466	0	32740	32285	34442	
3467	0	32712	32300	34460	
3468	0	32798	32564	34442	
3469	0	32788	32708	34454	
3470	0	32780	32656	34439	
3471	0	32868	32671	34433	
3472	0	32826	32852	34437	
3473	0	32894	32856	34452	
3474	0	32956	33044	34454	
3475	0	32854	33108	34469	
3476	0	32889	33172	34469	
3477	0	32833	33314	34480	
3478	0	32884	33172	34508	
3479	0	32806	33031	34504	
3480	0	32672	33163	34501	
3481	0	32685	32772	34512	
3482	0	32634	32544	34516	
3483	0	32698	32644	34477	
3484	0	32649	32495	34459	
3485	0	32673	32432	34452	
3486	0	32684	32493	34456	
3487	0	32800	32375	34452	
3488	0	32848	32700	34450	
3489	0	32834	32932	34444	
3490	0	32748	32692	34448	
3491	0	32796	32660	34445	
3492	0	32848	32676	34448	
3493	0	32780	32800	34452	
3494	0	32934	33066	34460	
3495	0	32960	33087	34455	
3496	0	32932	33142	34436	
3497	0	32820	33269	34420	
3498	0	32808	33405	34428	
3499	0	32876	33388	34444	
3500	0	32772	33188	34460	
3501	0	32772	32925	34465	
3502	0	32637	32564	34473	
3503	0	32628	32592	34470	
3504	0	32684	32352	34468	
3505	0	32596	32359	34453	
3506	0	32684	32436	34440	
3507	0	32780	32519	34441	
3508	0	32801	32831	34445	
3509	0	32808	32900	34452	
3510	0	32808	32708	34444	
3511	0	32816	32532	34452	
3512	0	32856	32672	34438	
3513	0	32832	32736	34439	
3514	0	32840	32993	34439	
3515	0	32900	33014	34456	
3516	0	32910	33159	34457	
3517	0	32884	33335	34468	
3518	0	32914	33352	34464	
3519	0	32816	33280	34468	
3520	0	32676	33124	34466	
3521	0	32718	32802	34464	
3522	0	32684	32622	34473	
3523	0	32678	32454	34492	
3524	0	32584	32397	34464	
3525	0	32676	32434	34458	
3526	0	32777	32520	34469	
3527	0	32788	32448	34471	
3528	0	32802	32602	34464	
3529	0	32858	32596	34465	
3530	0	32861	32596	34461	
3531	0	32716	32728	34433	
3532	0	32837	32954	34428	
3533	0	32926	32952	34436	
3534	0	32904	32991	34452	
3535	0	32853	33085	34469	
3536	0	32874	33136	34460	
3537	0	32820	33342	34472	
3538	0	32844	33362	34460	
3539	0	32844	33449	34460	
3540	0	32704	33188	34457	
3541	0	32776	32936	34460	
3542	0	32696	32759	34460	
3543	0	32604	32764	34460	
3544	0	32600	32669	34468	
3545	0	32656	32519	34469	
3546	0	32712	32530	34468	
3547	0	32750	32529	34436	
3548	0	32804	32668	34429	
3549	0	32844	32559	34433	
3550	0	32760	32644	34440	
3551	0	32804	32800	34428	
3552	0	32713	32742	34412	
3553	0	32784	32706	34412	
3554	0	32969	32916	34405	
3555	0	33028	33264	34409	
3556	0	32964	33244	34420	
3557	0	32870	33356	34404	
3558	0	32796	33165	34404	
3559	0	32752	33189	34412	
3560	0	32748	33037	34432	
3561	0	32704	32782	34404	
3562	0	32644	32585	34409	
3563	0	32740	32334	34410	
3564	0	32704	32396	34428	
3565	0	32688	32445	34436	
3566	0	32621	32450	34423	
3567	0	32685	32398	34414	
3568	0	32800	32604	34413	
3569	0	32804	32596	34436	
3570	0	32880	32612	34430	
3571	0	32826	32584	34413	
3572	0	32824	32644	34412	
3573	0	32904	32853	34420	
3574	0	32770	33168	34412	
3575	0	32974	33284	34412	
3576	0	32928	33367	34430	
3577	0	32872	33425	34426	
3578	0	32836	33445	34431	
3579	0	32776	33284	34456	
3580	0	32757	33072	34467	
3581	0	32752	33031	34448	
3582	0	32720	32833	34441	
3583	0	32684	32754	34455	
3584	0	32632	32500	34441	
3585	0	32686	32354	34429	
3586	0	32644	32376	34449	
3587	0	32726	32457	34425	
3588	0	32748	32542	34401	
3589	0	32828	32693	34416	
3590	0	32857	32650	34429	
3591	0	32848	32636	34404	
3592	0	32828	32744	34425	
3593	0	32856	32848	34416	
3594	0	32788	33101	34408	
3595	0	32856	33160	34412	
3596	0	32850	33175	34400	
3597	0	32852	33320	34405	
3598	0	32900	33372	34416	
3599	0	32778	33207	34431	
3600	0	32775	33148	34429	
3601	0	32687	32881	34453	
3602	0	32656	32596	34458	
3603	0	32724	32429	34445	
3604	0	32648	32263	34439	
3605	0	32700	32199	34389	
3606	0	32756	32296	34388	
3607	0	32684	32413	34399	
3608	0	32773	32582	34398	
3609	0	32817	32740	34397	
3610	0	32892	32821	34399	
3611	0	32837	32852	34416	
3612	0	32864	33028	34408	
3613	0	32832	33120	34405	
3614	0	32814	33281	34408	
3615	0	32908	33434	34415	
3616	0	32863	33284	34413	
3617	0	32812	33333	34432	
3618	0	32868	33284	34436	
3619	0	32793	33258	34460	
3620	0	32784	33004	34471	
3621	0	32669	32908	34476	
3622	0	32693	32785	34470	
3623	0	32664	32520	34478	
3624	0	32620	32519	34468	
3625	0	32655	32391	34453	
3626	0	32752	32439	34429	
3627	0	32742	32388	34408	
3628	0	32838	32331	34424	
3629	0	32864	32530	34408	
3630	0	32772	32584	34412	
3631	0	32784	32724	34393	
3632	0	32892	32988	34389	
3633	0	32889	33144	34404	
3634	0	32868	33112	34400	
3635	0	32817	33224	34396	
3636	0	32896	33231	34396	
3637	0	32800	33183	34404	
3638	0	32888	33444	34423	
3639	0	32804	33356	34428	
3640	0	32816	32937	34448	
3641	0	32712	32557	34441	
3642	0	32696	32484	34448	
3643	0	32632	32493	34465	
3644	0	32700	32501	34463	
3645	0	32656	32428	34452	
3646	0	32666	32536	34432	
3647	0	32688	32548	34454	
3648	0	32800	32516	34448	
3649	0	32952	32675	34428	
3650	0	32844	32758	34448	
3651	0	32776	32740	34445	
3652	0	32780	32836	34436	
3653	0	32944	32916	34421	
3654	0	32834	33037	34453	
3655	0	32901	33166	34476	
3656	0	32916	33228	34477	
3657	0	32844	33275	34497	
3658	0	32876	33268	34506	
3659	0	32756	33415	34512	
3660	0	32672	33121	34508	
3661	0	32744	32724	34516	
3662	0	32608	32481	34516	
3663	0	32620	32562	34522	
3664	0	32708	32484	34508	
3665	0	32630	32422	34500	
3666	0	32836	32480	34505	
3667	0	32708	32375	34528	
3668	0	32756	32568	34521	
3669	0	32760	32640	34476	
3670	0	32805	32604	34476	
3671	0	32788	32553	34464	
3672	0	32864	32800	34460	
3673	0	32900	32922	34473	
3674	0	32894	33172	34480	
3675	0	32888	33325	34474	
3676	0	32869	33332	34468	
3677	0	32832	33284	34477	
3678	0	32900	33304	34446	
3679	0	32820	33417	34444	
3680	0	32776	33357	34453	
3681	0	32757	32938	34447	
3682	0	32708	32652	34432	
3683	0	32646	32420	34412	
3684	0	32716	32314	34408	
3685	0	32588	32341	34396	
3686	0	32676	32468	34358	
3687	0	32788	32600	34345	
3688	0	32791	32813	34348	
3689	0	32864	32869	34336	
3690	0	32808	32612	34321	
3691	0	32821	32620	34308	
3692	0	32896	32706	34308	
3693	0	32856	32818	34309	
3694	0	32932	33134	34311	
3695	0	32908	33271	34310	
3696	0	32936	33406	34317	
3697	0	32869	33450	34332	
3698	0	32878	33445	34340	
3699	0	32764	33425	34388	
3700	0	32744	33143	34384	
3701	0	32689	32820	34396	
3702	0	32644	32488	34408	
3703	0	32697	32548	34398	
3704	0	32704	32604	34384	
3705	0	32660	32532	34392	
3706	0	32728	32476	34388	
3707	0	32756	32399	34377	
3708	0	32788	32608	34378	
3709	0	32796	32640	34369	
3710	0	32832	32506	34364	
3711	0	32836	32524	34376	
3712	0	32860	32658	34400	
3713	0	32897	32768	34420	
3714	0	32812	33012	34422	
3715	0	32870	33200	34452	
3716	0	33024	33356	34438	
3717	0	32812	33408	34448	
3718	0	32932	33500	34450	
3719	0	32790	33375	34468	
3720	0	32712	33028	34464	
3721	0	32696	32734	34470	
3722	0	32644	32519	34484	
3723	0	32602	32436	34449	
3724	0	32577	32474	34464	
3725	0	32652	32446	34452	
3726	0	32750	32340	34429	
3727	0	32700	32536	34433	
3728	0	32834	32869	34437	
3729	0	32852	32757	34447	
3730	0	32808	32720	34432	
3731	0	32800	32800	34413	
3732	0	32800	32910	34426	
3733	0	32861	32903	34412	
3734	0	32888	33073	34436	
3735	0	32838	33321	34430	
3736	0	32992	33248	34448	
3737	0	32872	33368	34463	
3738	0	32892	33436	34464	
3739	0	32773	33334	34453	
3740	0	32712	33174	34452	
3741	0	32764	32876	34452	
3742	0	32732	32509	34455	
3743	0	32700	32446	34472	
3744	0	32684	32432	34465	
3745	0	32597	32281	34468	
3746	0	32728	32449	34468	
3747	0	32714	32372	34428	
3748	0	32780	32633	34436	
3749	0	32828	32945	34448	
3750	0	32844	32733	34449	
3751	0	32832	32831	34457	
3752	0	32876	32904	34433	
3753	0	32896	32900	34426	
3754	0	32884	32914	34452	
3755	0	32864	32942	34452	
3756	0	32912	32992	34460	
3757	0	32874	33230	34468	
3758	0	32828	33340	34484	
3759	0	32800	33304	34489	
3760	0	32756	33094	34490	
3761	0	32749	32782	34492	
3762	0	32666	32537	34456	
3763	0	32664	32513	34469	
3764	0	32681	32592	34484	
3765	0	32640	32460	34469	
3766	0	32672	32420	34460	
3767	0	32801	32391	34447	
3768	0	32796	32551	34420	
3769	0	32792	32652	34388	
3770	0	32892	32559	34432	
3771	0	32880	32732	34400	
3772	0	32818	32804	34378	
3773	0	32812	32900	34374	
3774	0	32833	33101	34373	
3775	0	32904	33096	34385	
3776	0	32968	33176	34404	
3777	0	32868	33381	34424	
3778	0	32952	33320	34419	
3779	0	32769	33304	34420	
3780	0	32708	33222	34424	
3781	0	32740	32965	34404	
3782	0	32708	32526	34412	
3783	0	32624	32576	34413	
3784	0	32645	32437	34400	
3785	0	32684	32447	34404	
3786	0	32712	32454	34396	
3787	0	32748	32322	34409	
3788	0	32804	32588	34396	
3789	0	32832	32774	34421	
3790	0	32826	32708	34420	
3791	0	32800	32631	34428	
3792	0	32840	32624	34420	
3793	0	32864	32692	34428	
3794	0	32794	32925	34424	
3795	0	32910	33240	34444	
3796	0	32936	33300	34459	
3797	0	32852	33292	34468	
3798	0	32866	33388	34465	
3799	0	32809	33319	34474	
3800	0	32782	33277	34484	
3801	0	32772	32996	34492	
3802	0	32644	32624	34477	
3803	0	32688	32349	34484	
3804	0	32724	32377	34472	
3805	0	32588	32341	34465	
3806	0	32688	32452	34469	
3807	0	32744	32519	34464	
3808	0	32840	32585	34463	
3809	0	32824	32679	34452	
3810	0	32832	32782	34449	
3811	0	32849	32714	34436	
3812	0	32812	32996	34440	
3813	0	32896	33017	34416	
3814	0	32884	33180	34438	
3815	0	32912	33413	34429	
3816	0	32880	33268	34409	
3817	0	32768	33321	34420	
3818	0	32832	33584	34429	
3819	0	32824	33392	34448	
3820	0	32749	33268	34476	
3821	0	32780	32886	34465	
3822	0	32644	32593	34447	
3823	0	32708	32475	34416	
3824	0	32674	32510	34401	
3825	0	32640	32392	34396	
3826	0	32676	32456	34412	
3827	0	32672	32417	34413	
3828	0	32832	32513	34408	
3829	0	32824	32672	34398	
3830	0	32684	32512	34373	
3831	0	32826	32688	34356	
3832	0	32842	32694	34348	
3833	0	32904	32846	34373	
3834	0	32804	33044	34392	
3835	0	32884	33340	34398	
3836	0	32848	33389	34401	
3837	0	32844	33436	34408	
3838	0	32868	33205	34406	
3839	0	32796	33287	34428	
3840	0	32839	33159	34409	
3841	0	32724	32754	34424	
3842	0	32644	32512	34426	
3843	0	32704	32498	34428	
3844	0	32648	32609	34428	
3845	0	32696	32558	34436	
3846	0	32792	32388	34428	
3847	0	32676	32507	34393	
3848	0	32836	32460	34417	
3849	0	32789	32389	34396	
3850	0	32824	32657	34398	
3851	0	32840	32586	34392	
3852	0	32804	32800	34376	
3853	0	32824	32909	34380	
3854	0	32848	33055	34381	
3855	0	32940	33287	34389	
3856	0	32928	33278	34406	
3857	0	32824	33508	34425	
3858	0	32845	33520	34420	
3859	0	32828	33300	34423	
3860	0	32768	33108	34425	
3861	0	32758	32620	34420	
3862	0	32672	32516	34416	
3863	0	32716	32438	34405	
3864	0	32740	32475	34380	
3865	0	32688	32492	34380	
3866	0	32780	32454	34404	
3867	0	32650	32589	34396	
3868	0	32756	32661	34396	
3869	0	32832	32728	34386	
3870	0	32820	32524	34388	
3871	0	32872	32576	34373	
3872	0	32820	32752	34388	
3873	0	32912	32800	34366	
3874	0	32848	33012	34373	
3875	0	32805	33285	34379	
3876	0	32932	33393	34384	
3877	0	32804	33352	34396	
3878	0	32873	33436	34423	
3879	0	32736	33312	34438	
3880	0	32724	33085	34444	
3881	0	32770	32702	34456	
3882	0	32744	32484	34452	
3883	0	32694	32545	34456	
3884	0	32636	32320	34457	
3885	0	32720	32348	34453	
3886	0	32704	32397	34444	
3887	0	32720	32379	34428	
3888	0	32756	32338	34438	
3889	0	32772	32509	34449	
3890	0	32849	32588	34437	
3891	0	32848	32709	34452	
3892	0	32809	32824	34469	
3893	0	32900	32912	34457	
3894	0	32817	33191	34473	
3895	0	32856	33494	34473	
3896	0	32920	33402	34476	
3897	0	32817	33484	34449	
3898	0	32904	33524	34452	
3899	0	32824	33620	34455	
3900	0	32728	33230	34442	
3901	0	32781	32880	34445	
3902	0	32732	32524	34474	
3903	0	32648	32740	34445	
3904	0	32684	32505	34448	
3905	0	32722	32428	34439	
3906	0	32636	32484	34439	
3907	0	32708	32256	34445	
3908	0	32796	32672	34416	
3909	0	32781	32532	34400	
3910	0	32880	32460	34394	
3911	0	32773	32613	34394	
3912	0	32869	32622	34399	
3913	0	32864	32716	34398	
3914	0	32884	32948	34400	
3915	0	32873	33208	34424	
3916	0	32942	33233	34460	
3917	0	32864	33301	34453	
3918	0	32826	33644	34453	
3919	0	32792	33316	34456	
3920	0	32700	33160	34461	
3921	0	32716	32908	34461	
3922	0	32684	32478	34468	
3923	0	32653	32548	34462	
3924	0	32686	32441	34456	
3925	0	32588	32457	34479	
3926	0	32812	32448	34452	
3927	0	32800	32447	34424	
3928	0	32828	32476	34406	
3929	0	32768	32561	34405	
3930	0	32800	32660	34404	
3931	0	32872	32616	34425	
3932	0	32830	32692	34408	
3933	0	32861	32880	34404	
3934	0	32820	33007	34412	
3935	0	32856	33196	34408	
3936	0	32962	33341	34425	
3937	0	32864	33402	34420	
3938	0	32901	33385	34424	
3939	0	32841	33258	34452	
3940	0	32742	33021	34452	
3941	0	32724	32804	34449	
3942	0	32660	32689	34428	
3943	0	32628	32550	34431	
3944	0	32617	32530	34443	
3945	0	32644	32439	34430	
3946	0	32758	32408	34428	
3947	0	32706	32526	34436	
3948	0	32817	32622	34416	
3949	0	32800	32612	34407	
3950	0	32822	32625	34388	
3951	0	32834	32677	34388	
3952	0	32912	32839	34384	
3953	0	32878	32969	34372	
3954	0	32864	33104	34390	
3955	0	32892	33434	34381	
3956	0	32936	33336	34392	
3957	0	32848	33423	34404	
3958	0	32834	33464	34417	
3959	0	32748	33428	34413	
3960	0	32744	33277	34424	
3961	0	32751	32886	34436	
3962	0	32760	32549	34428	
3963	0	32704	32468	34417	
3964	0	32740	32317	34437	
3965	0	32620	32364	34417	
3966	0	32610	32511	34436	
3967	0	32672	32584	34436	
3968	0	32858	32692	34425	
3969	0	32808	32718	34412	
3970	0	32856	32572	34408	
3971	0	32812	32512	34404	
3972	0	32777	32608	34416	
3973	0	32888	32608	34432	
3974	0	32905	32976	34449	
3975	0	32908	33328	34465	
3976	0	32956	33384	34464	
3977	0	32820	33401	34464	
3978	0	32892	33352	34460	
3979	0	32696	33432	34460	
3980	0	32696	33408	34476	
3981	0	32788	33030	34468	
3982	0	32676	32764	34469	
3983	0	32672	32536	34468	
3984	0	32649	32285	34468	
3985	0	32724	32370	34450	
3986	0	32720	32504	34442	
3987	0	32668	32193	34439	
3988	0	32804	32513	34429	
3989	0	32860	32597	34416	
3990	0	32780	32536	34424	
3991	0	32900	32540	34425	
3992	0	32900	32637	34440	
3993	0	32824	32676	34452	
3994	0	32784	33060	34425	
3995	0	32876	33351	34428	
3996	0	32904	33213	34449	
3997	0	32868	33432	34476	
3998	0	32784	33580	34489	
3999	0	32797	33280	34500	
4000	0	32740	33252	34497	
4001	0	32682	32864	34488	
4002	0	32742	32644	34488	
4003	0	32632	32608	34473	
4004	0	32664	32384	34458	
4005	0	32636	32356	34452	
4006	0	32708	32398	34464	
4007	0	32765	32393	34460	
4008	0	32776	32584	34453	
4009	0	32761	32804	34432	
4010	0	32837	32595	34441	
4011	0	32776	32764	34404	
4012	0	32884	32856	34428	
4013	0	32860	32852	34406	
4014	0	32824	33012	34404	
4015	0	32912	33296	34428	
4016	0	32929	33384	34437	
4017	0	32904	33436	34457	
4018	0	32830	33498	34472	
4019	0	32800	33425	34484	
4020	0	32748	33304	34461	
4021	0	32780	32940	34465	
4022	0	32676	32500	34439	
4023	0	32638	32380	34449	
4024	0	32720	32401	34450	
4025	0	32660	32316	34469	
4026	0	32633	32497	34476	
4027	0	32676	32357	34472	
4028	0	32769	32724	34456	
4029	0	32825	32706	34424	
4030	0	32878	32748	34439	
4031	0	32924	32768	34414	
4032	0	32852	32692	34392	
4033	0	32916	32828	34388	
4034	0	32852	32950	34397	
4035	0	32837	33316	34400	
4036	0	32905	33372	34406	
4037	0	32856	33316	34422	
4038	0	32872	33543	34418	
4039	0	32744	33360	34428	
4040	0	32776	33316	34452	
4041	0	32856	33014	34448	
4042	0	32682	32644	34441	
4043	0	32684	32460	34449	
4044	0	32597	32364	34428	
4045	0	32664	32353	34416	
4046	0	32640	32396	34414	
4047	0	32752	32465	34428	
4048	0	32728	32604	34422	
4049	0	32817	32504	34424	
4050	0	32864	32664	34428	
4051	0	32792	32560	34400	
4052	0	32824	32490	34402	
4053	0	32800	32688	34397	
4054	0	32844	32872	34400	
4055	0	32950	33092	34409	
4056	0	32897	33126	34398	
4057	0	32848	33274	34412	
4058	0	32864	33196	34441	
4059	0	32798	33572	34437	
4060	0	32817	33476	34446	
4061	0	32784	33045	34457	
4062	0	32706	32828	34440	
4063	0	32688	32697	34423	
4064	0	32720	32574	34408	
4065	0	32718	32628	34416	
4066	0	32712	32553	34405	
4067	0	32756	32488	34404	
4068	0	32821	32440	34406	
4069	0	32824	32320	34380	
4070	0	32804	32334	34377	
4071	0	32792	32396	34378	
4072	0	32824	32484	34392	
4073	0	32792	32606	34368	
4074	0	32797	32852	34349	
4075	0	32872	33212	34332	
4076	0	32844	33404	34348	
4077	0	32768	33328	34351	
4078	0	32812	33423	34372	
4079	0	32816	33486	34386	
4080	0	32812	33324	34405	
4081	0	32772	33072	34399	
4082	0	32710	32844	34396	
4083	0	32768	32759	34384	
4084	0	32692	32588	34401	
4085	0	32768	32592	34416	
4086	0	32636	32525	34409	
4087	0	32780	32341	34412	
4088	0	32820	32477	34401	
4089	0	32762	32465	34397	
4090	0	32768	32653	34396	
4091	0	32786	32614	34393	
4092	0	32768	32580	34392	
4093	0	32812	32548	34374	
4094	0	32793	32920	34396	
4095	0	32804	33280	34380	
4096	0	32908	33311	34377	
4097	0	32884	33410	34403	
4098	0	32880	33479	34408	
4099	0	32840	33443	34412	
4100	0	32812	33505	34430	
4101	0	32828	33239	34441	
4102	0	32720	32841	34436	
4103	0	32716	32698	34420	
4104	0	32645	32620	34418	
4105	0	32652	32736	34412	
4106	0	32692	32514	34425	
4107	0	32724	32436	34404	
4108	0	32705	32436	34403	
4109	0	32850	32392	34385	
4110	0	32868	32316	34391	
4111	0	32824	32437	34393	
4112	0	32826	32525	34416	
4113	0	32920	32624	34440	
4114	0	32860	32916	34446	
4115	0	32828	33033	34445	
4116	0	32852	33244	34448	
4117	0	32864	33148	34460	
4118	0	32784	33460	34471	
4119	0	32764	33641	34498	
4120	0	32864	33444	34516	
4121	0	32813	33145	34500	
4122	0	32752	32897	34516	
4123	0	32708	32625	34532	
4124	0	32710	32578	34545	
4125	0	32640	32584	34540	
4126	0	32668	32296	34526	
4127	0	32765	32368	34519	
4128	0	32732	32548	34508	
4129	0	32740	32596	34493	
4130	0	32820	32568	34487	
4131	0	32804	32557	34479	
4132	0	32816	32610	34472	
4133	0	32852	32617	34481	
4134	0	32844	32844	34472	
4135	0	32844	33081	34445	
4136	0	32860	33152	34446	
4137	0	32868	33225	34439	
4138	0	32820	33351	34436	
4139	0	32777	33400	34432	
4140	0	32884	33533	34457	
4141	0	32824	33288	34460	
4142	0	32724	32862	34440	
4143	0	32708	32679	34416	
4144	0	32688	32500	34400	
4145	0	32644	32426	34392	
4146	0	32712	32485	34397	
4147	0	32757	32356	34389	
4148	0	32772	32376	34382	
4149	0	32849	32644	34372	
4150	0	32753	32584	34349	
4151	0	32824	32612	34332	
4152	0	32808	32633	34320	
4153	0	32902	32591	34321	
4154	0	32812	32736	34329	
4155	0	32866	32976	34343	
4156	0	32936	33220	34362	
4157	0	32796	33268	34364	
4158	0	32844	33412	34392	
4159	0	32892	33369	34404	
4160	0	32756	33400	34405	
4161	0	32718	33252	34380	
4162	0	32652	32911	34380	
4163	0	32721	32716	34380	
4164	0	32704	32696	34394	
4165	0	32660	32457	34380	
4166	0	32750	32416	34380	
4167	0	32736	32463	34365	
4168	0	32784	32615	34368	
4169	0	32820	32644	34369	
4170	0	32752	32621	34372	
4171	0	32788	32519	34372	
4172	0	32824	32486	34384	
4173	0	32881	32535	34402	
4174	0	32820	32780	34410	
4175	0	32844	32973	34420	
4176	0	32892	33144	34422	
4177	0	32848	33328	34424	
4178	0	32844	33434	34440	
4179	0	32788	33430	34465	
4180	0	32784	33321	34480	
4181	0	32740	33142	34476	
4182	0	32744	32878	34488	
4183	0	32684	32782	34468	
4184	0	32612	32647	34463	
4185	0	32636	32417	34446	
4186	0	32632	32545	34440	
4187	0	32744	32436	34424	
4188	0	32820	32516	34422	
4189	0	32880	32640	34434	
4190	0	32844	32647	34428	
4191	0	32796	32464	34425	
4192	0	32896	32644	34416	
4193	0	32778	32632	34409	
4194	0	32812	32772	34432	
4195	0	32840	32940	34428	
4196	0	32872	33160	34460	
4197	0	32764	33505	34473	
4198	0	32877	33606	34496	
4199	0	32888	33360	34501	
4200	0	32776	33437	34520	
4201	0	32704	33109	34508	
4202	0	32664	32700	34519	
4203	0	32684	32631	34512	
4204	0	32724	32545	34493	
4205	0	32660	32481	34461	
4206	0	32666	32412	34453	
4207	0	32724	32398	34455	
4208	0	32756	32548	34445	
4209	0	32824	32409	34424	
4210	0	32798	32308	34432	
4211	0	32780	32378	34428	
4212	0	32840	32532	34420	
4213	0	32772	32692	34441	
4214	0	32832	32808	34452	
4215	0	32912	33140	34470	
4216	0	32888	33356	34468	
4217	0	32856	33342	34452	
4218	0	32844	33337	34448	
4219	0	32800	33365	34480	
4220	0	32804	33286	34469	
4221	0	32741	33128	34473	
4222	0	32688	32912	34461	
4223	0	32656	32916	34464	
4224	0	32672	32688	34463	
4225	0	32686	32752	34460	
4226	0	32728	32663	34439	
4227	0	32660	32466	34438	
4228	0	32784	32640	34432	
4229	0	32820	32588	34420	
4230	0	32796	32492	34406	
4231	0	32760	32584	34426	
4232	0	32852	32601	34405	
4233	0	32856	32637	34396	
4234	0	32897	32756	34408	
4235	0	32889	32958	34433	
4236	0	32822	33229	34426	
4237	0	32881	33448	34439	
4238	0	32860	33556	34447	
4239	0	32804	33420	34449	
4240	0	32792	33349	34464	
4241	0	32716	33006	34484	
4242	0	32672	32732	34461	
4243	0	32686	32652	34436	
4244	0	32744	32473	34447	
4245	0	32648	32600	34444	
4246	0	32684	32500	34432	
4247	0	32725	32500	34420	
4248	0	32788	32452	34409	
4249	0	32778	32511	34428	
4250	0	32796	32384	34404	
4251	0	32850	32468	34405	
4252	0	32844	32526	34412	
4253	0	32880	32732	34410	
4254	0	32868	32868	34398	
4255	0	32796	33143	34408	
4256	0	32940	33255	34407	
4257	0	32846	33328	34405	
4258	0	32812	33489	34436	
4259	0	32828	33388	34425	
4260	0	32812	33380	34439	
4261	0	32713	33116	34454	
4262	0	32696	32816	34445	
4263	0	32752	32524	34452	
4264	0	32665	32615	34448	
4265	0	32676	32636	34437	
4266	0	32736	32666	34439	
4267	0	32729	32504	34412	
4268	0	32796	32569	34402	
4269	0	32796	32492	34382	
4270	0	32852	32604	34376	
4271	0	32718	32504	34376	
4272	0	32804	32598	34400	
4273	0	32920	32664	34414	
4274	0	32860	32950	34408	
4275	0	32897	33188	34438	
4276	0	32952	33264	34444	
4277	0	32792	33372	34440	
4278	0	32812	33302	34448	
4279	0	32741	33254	34438	
4280	0	32744	33257	34469	
4281	0	32821	33002	34487	
4282	0	32772	32728	34484	
4283	0	32676	32644	34500	
4284	0	32664	32753	34478	
4285	0	32620	32700	34485	
4286	0	32744	32644	34468	
4287	0	32758	32548	34462	
4288	0	32885	32584	34444	
4289	0	32852	32704	34420	
4290	0	32844	32564	34429	
4291	0	32792	32532	34448	
4292	0	32768	32598	34423	
4293	0	32888	32508	34416	
4294	0	32799	32693	34420	
4295	0	32919	32921	34439	
4296	0	32924	33069	34442	
4297	0	32841	33077	34437	
4298	0	32864	33282	34453	
4299	0	32780	33397	34445	
4300	0	32812	33289	34454	
4301	0	32778	33041	34446	
4302	0	32685	32751	34465	
4303	0	32708	32703	34460	
4304	0	32740	32680	34465	
4305	0	32708	32580	34463	
4306	0	32664	32677	34437	
4307	0	32724	32580	34455	
4308	0	32688	32682	34468	
4309	0	32792	32484	34470	
4310	0	32804	32590	34456	
4311	0	32924	32456	34452	
4312	0	32954	32500	34464	
4313	0	32884	32660	34440	
4314	0	32797	32742	34448	
4315	0	32820	32948	34468	
4316	0	32950	33137	34472	
4317	0	32812	33386	34477	
4318	0	32817	33560	34477	
4319	0	32840	33380	34476	
4320	0	32792	33320	34487	
4321	0	32772	33244	34484	
4322	0	32729	32997	34468	
4323	0	32736	32828	34464	
4324	0	32612	32796	34458	
4325	0	32596	32608	34433	
4326	0	32780	32580	34417	
4327	0	32784	32588	34436	
4328	0	32852	32476	34448	
4329	0	32824	32480	34428	
4330	0	32788	32400	34415	
4331	0	32760	32376	34434	
4332	0	32824	32464	34440	
4333	0	32812	32598	34460	
4334	0	32848	32788	34462	
4335	0	32932	33077	34460	
4336	0	32956	33096	34473	
4337	0	32840	33214	34484	
4338	0	32776	33320	34470	
4339	0	32778	33380	34476	
4340	0	32796	33284	34500	
4341	0	32764	32992	34502	
4342	0	32672	32863	34508	
4343	0	32690	32802	34512	
4344	0	32736	32748	34502	
4345	0	32644	32545	34475	
4346	0	32744	32462	34474	
4347	0	32716	32484	34484	
4348	0	32756	32514	34460	
4349	0	32884	32463	34464	
4350	0	32829	32457	34470	
4351	0	32880	32543	34441	
4352	0	32805	32684	34461	
4353	0	32854	32615	34453	
4354	0	32800	32880	34452	
4355	0	32886	32994	34438	
4356	0	32892	33156	34451	
4357	0	32776	33330	34456	
4358	0	32840	33479	34470	
4359	0	32816	33421	34468	
4360	0	32816	33220	34470	
4361	0	32809	33102	34447	
4362	0	32620	32806	34444	
4363	0	32580	32692	34447	
4364	0	32712	32718	34432	
4365	0	32732	32657	34439	
4366	0	32676	32584	34430	
4367	0	32652	32450	34408	
4368	0	32724	32516	34391	
4369	0	32796	32522	34373	
4370	0	32796	32430	34356	
4371	0	32881	32464	34362	
4372	0	32770	32593	34368	
4373	0	32933	32768	34348	
4374	0	32832	32840	34364	
4375	0	32936	33148	34368	
4376	0	32924	33200	34351	
4377	0	32812	33195	34345	
4378	0	32892	33415	34356	
4379	0	32842	33452	34381	
4380	0	32764	33244	34397	
4381	0	32789	33163	34416	
4382	0	32740	32812	34412	
4383	0	32724	32674	34388	
4384	0	32612	32572	34385	
4385	0	32684	32518	34389	
4386	0	32708	32513	34388	
4387	0	32750	32534	34372	
4388	0	32762	32504	34376	
4389	0	32728	32629	34401	
4390	0	32840	32450	34382	
4391	0	32832	32456	34400	
4392	0	32793	32648	34428	
4393	0	32860	32708	34417	
4394	0	32868	32780	34428	
4395	0	32946	32920	34436	
4396	0	32868	33133	34439	
4397	0	32820	33231	34449	
4398	0	32776	33280	34462	
4399	0	32800	33345	34474	
4400	0	32844	33279	34472	
4401	0	32836	32984	34477	
4402	0	32757	32796	34484	
4403	0	32637	32791	34484	
4404	0	32656	32693	34456	
4405	0	32712	32645	34433	
4406	0	32712	32692	34440	
4407	0	32728	32654	34420	
4408	0	32788	32557	34408	
4409	0	32764	32642	34364	
4410	0	32784	32580	34364	
4411	0	32716	32636	34369	
4412	0	32804	32477	34356	
4413	0	32864	32604	34372	
4414	0	32876	32740	34364	
4415	0	32888	32968	34357	
4416	0	32837	33220	34388	
4417	0	32797	33233	34390	
4418	0	32792	33412	34404	
4419	0	32772	33415	34390	
4420	0	32764	33353	34403	
4421	0	32732	33168	34376	
4422	0	32732	32945	34399	
4423	0	32656	32871	34380	
4424	0	32632	32686	34389	
4425	0	32668	32609	34404	
4426	0	32624	32544	34404	
4427	0	32745	32547	34408	
4428	0	32828	32592	34408	
4429	0	32836	32584	34436	
4430	0	32880	32636	34438	
4431	0	32856	32388	34433	
4432	0	32822	32485	34424	
4433	0	32852	32549	34428	
4434	0	32808	32844	34423	
4435	0	32884	33097	34444	
4436	0	32888	33169	34452	
4437	0	32880	33223	34452	
4438	0	32805	33424	34486	
4439	0	32768	33309	34456	
4440	0	32740	33176	34481	
4441	0	32700	33071	34493	
4442	0	32700	32767	34492	
4443	0	32632	32668	34492	
4444	0	32690	32764	34500	
4445	0	32656	32580	34514	
4446	0	32777	32581	34480	
4447	0	32760	32616	34479	
4448	0	32824	32532	34480	
4449	0	32826	32662	34480	
4450	0	32832	32618	34485	
4451	0	32804	32592	34460	
4452	0	32838	32516	34445	
4453	0	32836	32580	34452	
4454	0	32720	32775	34452	
4455	0	32884	33044	34457	
4456	0	32976	33214	34464	
4457	0	32888	33132	34472	
4458	0	32872	33240	34461	
4459	0	32781	33304	34471	
4460	0	32784	33228	34464	
4461	0	32692	33079	34481	
4462	0	32694	32789	34485	
4463	0	32690	32655	34508	
4464	0	32652	32740	34504	
4465	0	32640	32752	34477	
4466	0	32720	32668	34488	
4467	0	32712	32684	34498	
4468	0	32832	32646	34469	
4469	0	32804	32492	34473	
4470	0	32836	32438	34478	
4471	0	32876	32404	34448	
4472	0	32876	32596	34452	
4473	0	32848	32766	34472	
4474	0	32830	32805	34487	
4475	0	32868	33070	34482	
4476	0	32848	33125	34481	
4477	0	32784	33130	34480	
4478	0	32920	33236	34510	
4479	0	32790	33420	34509	
4480	0	32720	33428	34512	
4481	0	32672	33236	34529	
4482	0	32640	33028	34529	
4483	0	32676	32832	34541	
4484	0	32656	32684	34529	
4485	0	32672	32614	34524	
4486	0	32680	32680	34533	
4487	0	32732	32601	34504	
4488	0	32826	32388	34484	
4489	0	32878	32468	34471	
4490	0	32784	32636	34476	
4491	0	32729	32689	34452	
4492	0	32852	32665	34456	
4493	0	32896	32688	34444	
4494	0	32821	32680	34436	
4495	0	32849	32858	34444	
4496	0	32878	33016	34449	
4497	0	32833	33112	34456	
4498	0	32800	33216	34448	
4499	0	32829	33092	34444	
4500	0	32756	33136	34448	
4501	0	32716	33137	34476	
4502	0	32694	32882	34464	
4503	0	32728	32860	34455	
4504	0	32752	32676	34432	
4505	0	32660	32656	34412	
4506	0	32708	32529	34405	
4507	0	32708	32476	34398	
4508	0	32788	32772	34384	
4509	0	32874	32570	34366	
4510	0	32804	32606	34374	
4511	0	32833	32629	34376	
4512	0	32844	32592	34382	
4513	0	32892	32660	34377	
4514	0	32860	32844	34388	
4515	0	32880	33121	34408	
4516	0	32881	33356	34413	
4517	0	32852	33380	34406	
4518	0	32862	33356	34408	
4519	0	32728	33344	34414	
4520	0	32736	33340	34436	
4521	0	32728	33152	34444	
4522	0	32712	32800	34436	
4523	0	32680	32679	34429	
4524	0	32696	32542	34440	
4525	0	32652	32488	34445	
4526	0	32708	32519	34447	
4527	0	32729	32484	34432	
4528	0	32788	32508	34433	
4529	0	32804	32490	34446	
4530	0	32748	32510	34445	
4531	0	32848	32489	34438	
4532	0	32860	32524	34425	
4533	0	32884	32613	34429	
4534	0	32840	32784	34422	
4535	0	32844	33093	34439	
4536	0	32816	33328	34428	
4537	0	32828	33366	34428	
4538	0	32884	33449	34436	
4539	0	32788	33511	34441	
4540	0	32720	33412	34452	
4541	0	32764	33136	34449	
4542	0	32694	32932	34439	
4543	0	32744	32844	34441	
4544	0	32792	32695	34440	
4545	0	32665	32670	34431	
4546	0	32708	32577	34428	
4547	0	32784	32633	34429	
4548	0	32768	32584	34428	
4549	0	32856	32590	34408	
4550	0	32810	32500	34400	
4551	0	32736	32408	34405	
4552	0	32840	32406	34405	
4553	0	32936	32512	34421	
4554	0	32928	32817	34430	
4555	0	32876	33100	34439	
4556	0	32844	33263	34435	
4557	0	32832	33244	34436	
4558	0	32848	33468	34439	
4559	0	32740	33298	34453	
4560	0	32748	33260	34472	
4561	0	32780	33121	34461	
4562	0	32692	32865	34444	
4563	0	32701	32712	34456	
4564	0	32684	32527	34444	
4565	0	32565	32486	34425	
4566	0	32652	32492	34432	
4567	0	32716	32550	34428	
4568	0	32772	32400	34424	
4569	0	32864	32653	34425	
4570	0	32704	32677	34422	
4571	0	32848	32657	34416	
4572	0	32836	32697	34404	
4573	0	32864	32760	34408	
4574	0	32900	33008	34409	
4575	0	32888	33156	34404	
4576	0	32812	33178	34400	
4577	0	32857	33284	34400	
4578	0	32816	33420	34404	
4579	0	32890	33440	34401	
4580	0	32768	33208	34429	
4581	0	32737	33078	34415	
4582	0	32692	32966	34420	
4583	0	32664	32720	34420	
4584	0	32744	32648	34414	
4585	0	32724	32512	34429	
4586	0	32684	32516	34441	
4587	0	32748	32446	34431	
4588	0	32748	32492	34428	
4589	0	32728	32708	34398	
4590	0	32838	32790	34391	
4591	0	32846	32654	34404	
4592	0	32848	32641	34409	
4593	0	32888	32679	34402	
4594	0	32860	32748	34404	
4595	0	32868	33009	34404	
4596	0	32880	33140	34412	
4597	0	32812	33189	34404	
4598	0	32856	33285	34421	
4599	0	32825	33304	34429	
4600	0	32733	33293	34408	
4601	0	32784	33032	34425	
4602	0	32706	32765	34428	
4603	0	32694	32715	34446	
4604	0	32716	32572	34446	
4605	0	32652	32526	34460	
4606	0	32692	32613	34452	
4607	0	32756	32430	34444	
4608	0	32836	32484	34439	
4609	0	32876	32628	34414	
4610	0	32783	32713	34414	
4611	0	32852	32604	34412	
4612	0	32844	32567	34392	
4613	0	32808	32712	34396	
4614	0	32820	32716	34418	
4615	0	32897	32996	34386	
4616	0	32864	33180	34376	
4617	0	32859	33242	34404	
4618	0	32852	33300	34408	
4619	0	32752	33436	34428	
4620	0	32744	33321	34471	
4621	0	32804	33044	34464	
4622	0	32684	32769	34460	
4623	0	32632	32682	34470	
4624	0	32662	32751	34461	
4625	0	32705	32686	34468	
4626	0	32672	32545	34448	
4627	0	32668	32493	34444	
4628	0	32821	32573	34444	
4629	0	32812	32671	34432	
4630	0	32812	32669	34413	
4631	0	32856	32676	34431	
4632	0	32906	32660	34420	
