# OpenSignals Text File Format
# {"00:07:80:4D:2E:AD": {"sensor": ["EMG", "EMG", "XYZ"], "device name": "00:07:80:4D:2E:AD", "column": ["nSeq", "DI", "CH1", "CH2", "CH3"], "sync interval": 2, "time": "15:40:9.869", "comments": "scissor | ch1_flexor_digitorum_superficialis ch2_aductor_policis ch3_acc_z [trial 5]", "device connection": "BTH00:07:80:4D:2E:AD", "channels": [1, 2, 3], "keywords": "", "mode": 0, "digital IO": [0, 1], "firmware version": 773, "device": "biosignalsplux", "position": 0, "sampling rate": 1000, "label": ["CH1", "CH2", "CH3"], "resolution": [16, 16, 16], "date": "2019-1-23", "special": [{}, {}, {}]}}
# EndOfHeader
0	0	32913	32761	35092	
1	0	33036	32823	35104	
2	0	33048	32922	35100	
3	0	33114	32824	35084	
4	0	33092	32736	35095	
5	0	33068	32864	35096	
6	0	33000	32686	35095	
7	0	32960	32677	35107	
8	0	32868	32704	35108	
9	0	32718	32869	35128	
10	0	32584	32933	35133	
11	0	32613	32992	35146	
12	0	32456	32805	35164	
13	0	32455	32852	35137	
14	0	32464	32944	35120	
15	0	32589	32948	35116	
16	0	32616	32836	35116	
17	0	32608	32900	35116	
18	0	32692	32825	35120	
19	0	32828	32852	35103	
20	0	32924	32908	35104	
21	0	32992	32916	35120	
22	0	33049	32764	35119	
23	0	33088	32857	35114	
24	0	33152	32692	35132	
25	0	33038	32692	35118	
26	0	33021	32716	35112	
27	0	32922	32652	35118	
28	0	32832	32636	35113	
29	0	32796	32752	35140	
30	0	32606	32900	35144	
31	0	32480	32980	35120	
32	0	32488	32980	35140	
33	0	32417	32859	35132	
34	0	32432	32878	35116	
35	0	32528	32924	35120	
36	0	32532	32989	35128	
37	0	32669	33024	35125	
38	0	32697	32900	35108	
39	0	32917	32772	35120	
40	0	32968	32793	35104	
41	0	33092	32804	35092	
42	0	33112	32760	35076	
43	0	33156	32687	35096	
44	0	33124	32668	35108	
45	0	33100	32828	35100	
46	0	32996	32809	35108	
47	0	32936	32776	35124	
48	0	32812	32893	35124	
49	0	32740	32877	35117	
50	0	32652	32892	35112	
51	0	32480	32909	35117	
52	0	32500	33084	35140	
53	0	32420	32868	35136	
54	0	32504	32886	35144	
55	0	32488	32858	35133	
56	0	32548	32849	35125	
57	0	32685	32858	35112	
58	0	32740	32821	35124	
59	0	32868	32813	35132	
60	0	32968	32812	35130	
61	0	32972	32860	35136	
62	0	33098	32764	35108	
63	0	33104	32676	35105	
64	0	33132	32836	35124	
65	0	33132	32838	35116	
66	0	33032	32812	35149	
67	0	32920	32756	35124	
68	0	32884	32826	35126	
69	0	32728	32880	35140	
70	0	32606	32768	35156	
71	0	32520	32676	35165	
72	0	32468	32644	35136	
73	0	32436	32680	35120	
74	0	32405	32860	35108	
75	0	32485	32974	35124	
76	0	32608	33072	35104	
77	0	32636	33276	35090	
78	0	32792	33254	35096	
79	0	32848	33031	35096	
80	0	32924	32824	35108	
81	0	32996	32724	35105	
82	0	33004	32720	35088	
83	0	33086	32586	35066	
84	0	33136	32454	35076	
85	0	33144	32656	35052	
86	0	33090	32846	35068	
87	0	32912	33057	35086	
88	0	32884	33117	35088	
89	0	32753	33033	35085	
90	0	32688	32952	35096	
91	0	32536	32884	35100	
92	0	32452	32876	35108	
93	0	32444	32862	35108	
94	0	32452	32884	35092	
95	0	32456	32722	35089	
96	0	32612	32824	35092	
97	0	32684	32712	35076	
98	0	32736	32772	35100	
99	0	32876	32687	35092	
100	0	32940	32721	35088	
101	0	33010	32806	35105	
102	0	32968	32774	35111	
103	0	33157	32720	35116	
104	0	33132	32750	35112	
105	0	33050	32796	35101	
106	0	32988	32836	35104	
107	0	32992	32860	35088	
108	0	32900	32808	35112	
109	0	32720	32799	35096	
110	0	32720	32951	35116	
111	0	32544	33013	35137	
112	0	32492	33020	35136	
113	0	32476	32855	35120	
114	0	32453	32834	35116	
115	0	32480	32892	35113	
116	0	32556	32845	35117	
117	0	32672	32812	35103	
118	0	32760	32816	35121	
119	0	32818	32955	35108	
120	0	33004	32812	35092	
121	0	32996	32848	35088	
122	0	33044	32736	35096	
123	0	33104	32672	35091	
124	0	33117	32556	35104	
125	0	33108	32607	35092	
126	0	33036	32625	35106	
127	0	32956	32692	35100	
128	0	32828	32856	35095	
129	0	32712	32993	35104	
130	0	32596	33092	35108	
131	0	32537	33046	35100	
132	0	32440	32968	35117	
133	0	32444	32913	35140	
134	0	32516	32844	35130	
135	0	32548	32844	35132	
136	0	32556	32884	35117	
137	0	32616	32791	35120	
138	0	32752	32760	35124	
139	0	32816	32924	35110	
140	0	32956	32852	35108	
141	0	33044	32736	35096	
142	0	33064	32695	35101	
143	0	33110	32756	35112	
144	0	33084	32734	35132	
145	0	33032	32704	35116	
146	0	33048	32724	35110	
147	0	32992	32724	35129	
148	0	32912	32852	35145	
149	0	32788	32960	35156	
150	0	32692	33088	35148	
151	0	32540	33004	35140	
152	0	32436	32988	35124	
153	0	32424	32856	35124	
154	0	32450	32864	35128	
155	0	32500	32813	35128	
156	0	32586	32936	35140	
157	0	32642	32828	35142	
158	0	32753	32833	35112	
159	0	32820	32804	35116	
160	0	32968	32756	35113	
161	0	33028	32693	35109	
162	0	33086	32684	35121	
163	0	33076	32590	35101	
164	0	33088	32614	35108	
165	0	33080	32747	35112	
166	0	33017	32824	35096	
167	0	32952	32726	35096	
168	0	32950	32786	35132	
169	0	32694	32805	35140	
170	0	32602	32856	35136	
171	0	32553	32884	35136	
172	0	32453	32799	35124	
173	0	32484	33052	35110	
174	0	32496	32857	35104	
175	0	32532	32830	35108	
176	0	32564	33104	35105	
177	0	32648	33221	35098	
178	0	32824	33097	35091	
179	0	32768	32924	35097	
180	0	32917	32692	35100	
181	0	33008	32528	35109	
182	0	33081	32718	35084	
183	0	33100	32766	35084	
184	0	33006	32716	35082	
185	0	33008	32804	35088	
186	0	33060	32757	35072	
187	0	33008	32832	35084	
188	0	32892	32902	35109	
189	0	32768	32812	35108	
190	0	32656	32788	35089	
191	0	32564	32928	35086	
192	0	32468	32903	35100	
193	0	32420	33040	35116	
194	0	32420	33024	35116	
195	0	32572	32940	35104	
196	0	32552	32980	35084	
197	0	32612	32944	35104	
198	0	32745	32869	35108	
199	0	32824	32920	35111	
200	0	32972	32640	35102	
201	0	32976	32596	35100	
202	0	33036	32672	35088	
203	0	33148	32812	35108	
204	0	33116	32701	35118	
205	0	33100	32687	35112	
206	0	33052	32748	35082	
207	0	32948	32888	35108	
208	0	32796	33040	35124	
209	0	32716	32940	35137	
210	0	32600	32829	35140	
211	0	32577	32834	35165	
212	0	32476	32870	35161	
213	0	32444	32789	35174	
214	0	32456	32914	35142	
215	0	32504	32876	35152	
216	0	32568	32858	35136	
217	0	32700	32836	35112	
218	0	32772	32854	35118	
219	0	32832	32900	35114	
220	0	33000	32832	35117	
221	0	33060	32862	35120	
222	0	33076	32782	35117	
223	0	33096	32709	35103	
224	0	33024	32749	35111	
225	0	33120	32714	35086	
226	0	32964	32820	35089	
227	0	32972	32844	35088	
228	0	32884	32728	35082	
229	0	32760	32812	35104	
230	0	32660	32908	35106	
231	0	32584	32880	35121	
232	0	32480	32868	35125	
233	0	32452	32864	35133	
234	0	32416	32873	35128	
235	0	32458	32895	35136	
236	0	32517	32944	35136	
237	0	32688	32885	35140	
238	0	32750	32680	35127	
239	0	32880	32552	35118	
240	0	32912	32636	35124	
241	0	33027	32807	35125	
242	0	33060	32712	35109	
243	0	33061	32980	35120	
244	0	33104	32946	35112	
245	0	33120	32940	35092	
246	0	33012	32884	35098	
247	0	32948	32785	35082	
248	0	32832	32824	35089	
249	0	32712	32702	35109	
250	0	32625	32835	35128	
251	0	32632	32913	35129	
252	0	32482	32884	35140	
253	0	32464	32902	35126	
254	0	32484	32933	35116	
255	0	32504	32804	35108	
256	0	32580	32864	35108	
257	0	32677	32845	35095	
258	0	32717	32892	35090	
259	0	32888	32989	35085	
260	0	32908	32876	35104	
261	0	32968	32784	35096	
262	0	33012	32736	35103	
263	0	33088	32713	35084	
264	0	33108	32660	35076	
265	0	33120	32640	35092	
266	0	33081	32830	35088	
267	0	32910	32865	35108	
268	0	32916	32812	35108	
269	0	32761	32736	35095	
270	0	32658	32850	35072	
271	0	32512	32976	35087	
272	0	32408	33008	35108	
273	0	32428	32824	35112	
274	0	32511	32885	35120	
275	0	32508	32838	35112	
276	0	32522	32700	35124	
277	0	32634	32896	35132	
278	0	32760	32860	35126	
279	0	32804	32906	35137	
280	0	32884	32713	35116	
281	0	32960	32829	35140	
282	0	33136	32875	35140	
283	0	33124	32826	35124	
284	0	33065	32797	35116	
285	0	33060	32692	35116	
286	0	33066	32612	35108	
287	0	33032	32598	35132	
288	0	32893	32732	35112	
289	0	32736	32849	35086	
290	0	32624	32926	35112	
291	0	32549	32924	35112	
292	0	32465	32940	35140	
293	0	32448	32972	35121	
294	0	32489	32944	35134	
295	0	32493	32776	35112	
296	0	32548	32813	35118	
297	0	32620	32900	35098	
298	0	32682	32764	35087	
299	0	32856	32933	35068	
300	0	32912	32929	35076	
301	0	32937	32744	35073	
302	0	33000	32806	35069	
303	0	33074	32612	35088	
304	0	33136	32674	35082	
305	0	33123	32861	35096	
306	0	33056	32932	35106	
307	0	33036	33008	35127	
308	0	32872	32924	35111	
309	0	32789	32916	35124	
310	0	32652	32945	35125	
311	0	32592	32908	35124	
312	0	32450	32901	35129	
313	0	32436	32852	35128	
314	0	32472	32780	35111	
315	0	32521	32628	35113	
316	0	32628	32800	35128	
317	0	32604	32740	35120	
318	0	32652	32728	35120	
319	0	32842	32921	35108	
320	0	32980	33028	35119	
321	0	32972	33014	35124	
322	0	33020	32921	35116	
323	0	33076	32836	35092	
324	0	33124	32604	35114	
325	0	33092	32396	35113	
326	0	33032	32488	35088	
327	0	32996	32721	35102	
328	0	32860	32944	35100	
329	0	32780	32895	35108	
330	0	32692	32873	35120	
331	0	32588	33028	35130	
332	0	32468	32956	35144	
333	0	32480	32956	35131	
334	0	32468	33009	35132	
335	0	32488	32980	35113	
336	0	32552	33000	35102	
337	0	32632	32868	35109	
338	0	32744	32873	35069	
339	0	32784	32784	35097	
340	0	32885	32768	35104	
341	0	32900	32665	35108	
342	0	33020	32812	35088	
343	0	33082	32730	35072	
344	0	33160	32608	35089	
345	0	33114	32694	35114	
346	0	33029	32652	35136	
347	0	32948	32754	35120	
348	0	32916	32708	35120	
349	0	32792	32882	35124	
350	0	32656	32944	35125	
351	0	32556	33024	35128	
352	0	32452	33026	35148	
353	0	32397	32961	35144	
354	0	32436	32956	35140	
355	0	32456	32874	35145	
356	0	32534	32741	35136	
357	0	32677	32780	35136	
358	0	32700	32788	35134	
359	0	32848	32722	35129	
360	0	32900	32792	35128	
361	0	33033	32796	35136	
362	0	33054	32883	35141	
363	0	33012	32871	35124	
364	0	33084	32740	35144	
365	0	33100	32710	35124	
366	0	33084	32692	35110	
367	0	32976	32656	35098	
368	0	32876	32706	35094	
369	0	32756	32861	35084	
370	0	32652	32892	35092	
371	0	32548	32980	35128	
372	0	32464	32888	35128	
373	0	32464	32916	35116	
374	0	32436	32984	35140	
375	0	32464	32873	35132	
376	0	32530	32841	35138	
377	0	32568	32904	35117	
378	0	32740	32846	35100	
379	0	32804	32952	35108	
380	0	32941	32832	35100	
381	0	33053	32948	35112	
382	0	33086	32838	35124	
383	0	33110	32632	35108	
384	0	33104	32640	35084	
385	0	33024	32740	35094	
386	0	33032	32713	35112	
387	0	33020	32801	35116	
388	0	32836	32855	35125	
389	0	32716	32828	35124	
390	0	32612	32896	35109	
391	0	32588	32893	35116	
392	0	32480	32890	35112	
393	0	32460	32792	35124	
394	0	32480	32886	35112	
395	0	32572	32804	35108	
396	0	32504	32871	35108	
397	0	32648	32984	35108	
398	0	32748	32860	35101	
399	0	32776	32886	35097	
400	0	32834	32804	35108	
401	0	32933	32808	35088	
402	0	33045	32872	35096	
403	0	33000	32820	35096	
404	0	33140	32724	35093	
405	0	33096	32758	35100	
406	0	33008	32651	35104	
407	0	33048	32752	35112	
408	0	32924	32614	35129	
409	0	32804	32588	35152	
410	0	32677	32738	35140	
411	0	32580	32801	35146	
412	0	32508	33116	35144	
413	0	32414	33240	35140	
414	0	32396	33220	35140	
415	0	32508	33256	35149	
416	0	32552	33220	35116	
417	0	32560	33120	35124	
418	0	32680	32844	35128	
419	0	32813	32793	35120	
420	0	32912	32742	35100	
421	0	32960	32472	35105	
422	0	33069	32564	35112	
423	0	33112	32522	35112	
424	0	33141	32644	35110	
425	0	33120	32747	35092	
426	0	33088	32844	35085	
427	0	32986	32816	35100	
428	0	32924	33016	35124	
429	0	32780	32764	35116	
430	0	32628	32796	35116	
431	0	32520	32915	35112	
432	0	32530	32759	35132	
433	0	32484	32818	35148	
434	0	32484	32828	35148	
435	0	32570	32841	35128	
436	0	32576	32804	35124	
437	0	32568	32826	35100	
438	0	32684	32836	35102	
439	0	32801	32886	35096	
440	0	32854	32909	35100	
441	0	32966	32877	35097	
442	0	33068	32932	35100	
443	0	33104	32848	35120	
444	0	33096	32647	35118	
445	0	32996	32656	35106	
446	0	33106	32550	35100	
447	0	33045	32740	35084	
448	0	32992	32865	35085	
449	0	32768	32930	35105	
450	0	32684	32847	35122	
451	0	32504	32905	35120	
452	0	32493	32936	35124	
453	0	32380	32848	35120	
454	0	32400	32900	35117	
455	0	32484	32912	35104	
456	0	32576	32816	35094	
457	0	32647	32851	35089	
458	0	32701	32920	35085	
459	0	32825	32704	35084	
460	0	32853	32830	35061	
461	0	33009	32904	35076	
462	0	33012	32764	35092	
463	0	33052	32762	35100	
464	0	33084	32870	35093	
465	0	33080	32757	35076	
466	0	33002	32698	35089	
467	0	32933	32744	35101	
468	0	32932	32848	35113	
469	0	32809	32752	35112	
470	0	32680	32804	35104	
471	0	32580	32940	35096	
472	0	32502	32962	35101	
473	0	32436	32916	35116	
474	0	32420	32878	35130	
475	0	32476	32902	35116	
476	0	32536	32872	35106	
477	0	32621	32900	35130	
478	0	32740	32814	35091	
479	0	32720	32902	35078	
480	0	32968	32948	35089	
481	0	32996	32857	35104	
482	0	33108	32840	35088	
483	0	33076	32816	35076	
484	0	33086	32736	35095	
485	0	33093	32709	35096	
486	0	33028	32710	35084	
487	0	33005	32792	35088	
488	0	32856	32834	35072	
489	0	32812	32932	35108	
490	0	32728	32916	35116	
491	0	32584	32865	35120	
492	0	32484	32884	35128	
493	0	32471	32956	35109	
494	0	32404	33013	35088	
495	0	32460	32824	35084	
496	0	32556	32732	35104	
497	0	32624	32840	35097	
498	0	32668	32940	35086	
499	0	32764	32900	35092	
500	0	32824	32932	35105	
501	0	32960	32768	35130	
502	0	33032	32884	35117	
503	0	33088	32788	35136	
504	0	33080	32719	35126	
505	0	33168	32645	35112	
506	0	33076	32676	35148	
507	0	32980	32630	35148	
508	0	32940	32588	35142	
509	0	32764	32858	35114	
510	0	32728	32658	35110	
511	0	32520	32685	35140	
512	0	32497	32980	35140	
513	0	32416	33052	35149	
514	0	32450	33184	35134	
515	0	32504	33134	35119	
516	0	32600	33042	35127	
517	0	32568	32972	35118	
518	0	32744	32844	35116	
519	0	32772	32800	35104	
520	0	32880	32810	35112	
521	0	32994	32804	35100	
522	0	32996	32514	35100	
523	0	33164	32332	35084	
524	0	33146	32310	35088	
525	0	33068	32495	35084	
526	0	33070	32900	35072	
527	0	32976	33069	35106	
528	0	32868	33097	35112	
529	0	32744	33092	35109	
530	0	32664	33192	35146	
531	0	32580	32982	35124	
532	0	32489	32833	35116	
533	0	32460	32839	35124	
534	0	32438	32809	35124	
535	0	32512	32816	35116	
536	0	32577	32903	35097	
537	0	32598	32940	35080	
538	0	32673	32852	35080	
539	0	32789	32780	35088	
540	0	32860	32820	35096	
541	0	32936	32836	35084	
542	0	32992	32822	35101	
543	0	33092	32720	35097	
544	0	33132	32672	35108	
545	0	33118	32672	35086	
546	0	33052	32618	35101	
547	0	32960	32616	35096	
548	0	32904	32748	35092	
549	0	32776	32912	35107	
550	0	32656	32794	35110	
551	0	32560	32884	35108	
552	0	32541	32886	35108	
553	0	32464	32910	35116	
554	0	32488	32804	35124	
555	0	32484	32970	35124	
556	0	32494	32886	35132	
557	0	32608	32856	35116	
558	0	32705	32902	35124	
559	0	32773	32829	35120	
560	0	32872	32989	35105	
561	0	32968	32892	35108	
562	0	33044	32772	35132	
563	0	33064	32625	35124	
564	0	33048	32670	35096	
565	0	33072	32752	35105	
566	0	33012	32782	35076	
567	0	33024	32836	35076	
568	0	32928	32840	35096	
569	0	32840	32928	35120	
570	0	32724	32892	35136	
571	0	32608	32972	35126	
572	0	32532	32861	35132	
573	0	32409	32905	35128	
574	0	32440	32822	35130	
575	0	32472	32873	35128	
576	0	32516	32948	35141	
577	0	32586	32922	35138	
578	0	32700	32751	35120	
579	0	32810	32796	35108	
580	0	32896	32775	35110	
581	0	32936	32700	35116	
582	0	33100	32773	35118	
583	0	33100	32830	35118	
584	0	33092	32912	35136	
585	0	33138	32900	35130	
586	0	33090	32828	35132	
587	0	32964	32693	35120	
588	0	32906	32734	35125	
589	0	32800	32744	35128	
590	0	32645	32812	35120	
591	0	32532	32868	35100	
592	0	32508	32980	35096	
593	0	32440	32976	35120	
594	0	32448	32960	35132	
595	0	32476	32860	35149	
596	0	32532	32805	35137	
597	0	32612	32780	35120	
598	0	32697	32884	35124	
599	0	32804	32932	35140	
600	0	32889	32825	35116	
601	0	33000	32771	35117	
602	0	33069	32700	35120	
603	0	33069	32672	35108	
604	0	33184	32746	35084	
605	0	33089	32802	35084	
606	0	33040	32709	35092	
607	0	33052	32652	35098	
608	0	32872	32728	35104	
609	0	32808	32860	35116	
610	0	32722	32910	35108	
611	0	32512	32836	35108	
612	0	32424	32881	35112	
613	0	32456	32783	35120	
614	0	32412	32832	35115	
615	0	32448	32920	35116	
616	0	32508	33016	35124	
617	0	32620	33077	35090	
618	0	32624	32934	35087	
619	0	32772	32833	35084	
620	0	32884	32775	35104	
621	0	33020	32828	35124	
622	0	33088	32861	35108	
623	0	33176	32738	35138	
624	0	33156	32759	35112	
625	0	33140	32748	35097	
626	0	33068	32720	35098	
627	0	33033	32688	35112	
628	0	32940	32732	35112	
629	0	32780	32868	35105	
630	0	32636	32840	35092	
631	0	32604	32816	35108	
632	0	32448	32696	35128	
633	0	32468	32607	35136	
634	0	32496	32453	35135	
635	0	32492	32678	35136	
636	0	32504	33207	35132	
637	0	32628	33209	35136	
638	0	32728	33140	35133	
639	0	32852	33204	35116	
640	0	32788	33297	35104	
641	0	32968	32992	35117	
642	0	33048	32780	35120	
643	0	33065	32596	35108	
644	0	33124	32612	35100	
645	0	33076	32561	35103	
646	0	33044	32708	35118	
647	0	32990	32698	35116	
648	0	32933	32646	35128	
649	0	32817	32780	35119	
650	0	32701	32806	35112	
651	0	32576	32840	35112	
652	0	32527	32964	35136	
653	0	32424	32925	35142	
654	0	32444	32833	35127	
655	0	32423	32660	35116	
656	0	32520	32628	35132	
657	0	32608	32684	35124	
658	0	32652	32772	35133	
659	0	32852	32661	35133	
660	0	32928	33056	35125	
661	0	32980	33176	35112	
662	0	33040	33116	35101	
663	0	33074	32996	35116	
664	0	33129	32764	35120	
665	0	33149	32821	35124	
666	0	33088	32672	35124	
667	0	33044	32740	35096	
668	0	32876	32822	35088	
669	0	32878	32881	35076	
670	0	32724	32762	35089	
671	0	32586	32885	35103	
672	0	32488	32880	35104	
673	0	32360	32764	35116	
674	0	32372	32882	35111	
675	0	32432	32903	35118	
676	0	32480	32860	35116	
677	0	32606	32876	35129	
678	0	32672	32892	35148	
679	0	32752	32872	35142	
680	0	32917	32853	35134	
681	0	32984	32700	35109	
682	0	33132	32753	35120	
683	0	33156	32780	35128	
684	0	33144	32780	35120	
685	0	33129	32728	35133	
686	0	33120	32692	35113	
687	0	33024	32773	35140	
688	0	32860	32781	35160	
689	0	32712	32748	35140	
690	0	32684	32760	35157	
691	0	32606	32748	35157	
692	0	32572	32470	35144	
693	0	32424	32438	35140	
694	0	32384	32562	35164	
695	0	32438	32753	35152	
696	0	32522	33153	35140	
697	0	32640	33271	35128	
698	0	32666	33476	35144	
699	0	32784	33500	35134	
700	0	32894	33294	35144	
701	0	33020	32910	35149	
702	0	33012	32760	35148	
703	0	33152	32697	35132	
704	0	33140	32516	35118	
705	0	32996	32572	35119	
706	0	32964	32500	35098	
707	0	32972	32532	35093	
708	0	32912	32782	35108	
709	0	32864	32192	35114	
710	0	32676	31536	35124	
711	0	32596	31732	35128	
712	0	32537	33304	35136	
713	0	32572	33052	35132	
714	0	32476	32926	35136	
715	0	32477	33328	35152	
716	0	32556	34183	35177	
717	0	32664	34617	35195	
718	0	32652	34252	35184	
719	0	32764	33101	35172	
720	0	32832	32652	35180	
721	0	32824	32456	35164	
722	0	32984	32407	35152	
723	0	33044	32448	35127	
724	0	33144	32570	35121	
725	0	33144	32220	35112	
726	0	33112	31792	35088	
727	0	32988	31903	35092	
728	0	32848	32828	35064	
729	0	32820	33420	35069	
730	0	32662	33516	35070	
731	0	32608	33296	35079	
732	0	32488	32444	35078	
733	0	32492	32329	35089	
734	0	32512	32084	35108	
735	0	32600	32035	35128	
736	0	32512	32564	35108	
737	0	32480	33072	35125	
738	0	32612	34220	35092	
739	0	32785	34036	35078	
740	0	32900	33977	35064	
741	0	32869	32916	35057	
742	0	33002	32652	35058	
743	0	33110	32758	35064	
744	0	33074	31604	35054	
745	0	33052	31666	35059	
746	0	33064	33700	35077	
747	0	32900	33177	35076	
748	0	32816	30792	35048	
749	0	32777	29344	35009	
750	0	32732	30717	35092	
751	0	32628	33032	35085	
752	0	32601	32596	34944	
753	0	32505	35644	34860	
754	0	32424	36712	34847	
755	0	32464	36024	34828	
756	0	32536	35316	34813	
757	0	32600	34716	34828	
758	0	32700	30965	34880	
759	0	32872	32000	34973	
760	0	33220	33700	35172	
761	0	33316	33236	35436	
762	0	33256	32894	35697	
763	0	33130	32509	35812	
764	0	33060	32045	35834	
765	0	33012	31934	35718	
766	0	33089	31714	35452	
767	0	33058	31916	35156	
768	0	32918	31968	34912	
769	0	32792	31660	34775	
770	0	32610	33088	34680	
771	0	32632	33448	34602	
772	0	32586	33396	34553	
773	0	32488	33030	34534	
774	0	32416	32464	34536	
775	0	32492	32175	34564	
776	0	32576	32036	34688	
777	0	32476	32033	34823	
778	0	32540	31861	34837	
779	0	32780	31884	34801	
780	0	32924	32128	34516	
781	0	32968	32956	34104	
782	0	32988	32701	33861	
783	0	33004	32680	33562	
784	0	33015	33385	33308	
785	0	32925	33832	33272	
786	0	32921	32776	33240	
787	0	32922	32296	33201	
788	0	32804	33206	33280	
789	0	32692	33501	33297	
790	0	32504	33204	33284	
791	0	32384	32632	33306	
792	0	32604	32532	33350	
793	0	32604	33762	33292	
794	0	32392	33372	33208	
795	0	32292	33084	33157	
796	0	32310	31765	33128	
797	0	32560	30488	33141	
798	0	32904	29796	33137	
799	0	32884	28320	33153	
800	0	32664	29945	33188	
801	0	32386	32668	33264	
802	0	32288	34304	33376	
803	0	32548	35512	33456	
804	0	32372	34420	33556	
805	0	32593	35268	33696	
806	0	32988	34611	33864	
807	0	33260	33196	34028	
808	0	33284	30636	34208	
809	0	33161	30809	34381	
810	0	33002	30293	34522	
811	0	33381	33488	34638	
812	0	33976	35398	34738	
813	0	34170	33889	34880	
814	0	34218	31416	35008	
815	0	33908	30540	35137	
816	0	33742	31310	35252	
817	0	33369	31645	35328	
818	0	33017	32092	35408	
819	0	32680	31420	35489	
820	0	32240	29424	35553	
821	0	32024	28428	35480	
822	0	32146	33045	35329	
823	0	32268	35658	35154	
824	0	32636	35672	34960	
825	0	32704	33810	34800	
826	0	32804	31024	34652	
827	0	32865	31150	34550	
828	0	32588	31896	34460	
829	0	32485	33133	34398	
830	0	32429	31913	34312	
831	0	32320	30484	34236	
832	0	32180	34290	34160	
833	0	32080	37012	34044	
834	0	32188	35933	33957	
835	0	32148	33988	33892	
836	0	32320	33220	33814	
837	0	32502	32584	33764	
838	0	32625	32024	33748	
839	0	32872	33097	33744	
840	0	32800	33932	33756	
841	0	32680	33695	33768	
842	0	32564	33272	33786	
843	0	32680	31744	33781	
844	0	32632	33312	33765	
845	0	32708	34268	33736	
846	0	33056	33873	33684	
847	0	33492	33380	33606	
848	0	33706	32908	33570	
849	0	33940	32908	33488	
850	0	33645	35636	33444	
851	0	32580	35397	33380	
852	0	31296	31704	33344	
853	0	30184	32806	33308	
854	0	28925	32760	33308	
855	0	28772	31158	33324	
856	0	29520	32164	33357	
857	0	31314	33692	33384	
858	0	33356	34200	33428	
859	0	35152	38080	33520	
860	0	36344	37716	33580	
861	0	37052	34820	33644	
862	0	36772	31732	33680	
863	0	35796	30568	33724	
864	0	35708	31614	33752	
865	0	35484	30516	33752	
866	0	34964	31392	33764	
867	0	34184	30871	33776	
868	0	33502	31355	33749	
869	0	32504	32825	33717	
870	0	31684	33196	33697	
871	0	30994	32628	33680	
872	0	30689	31140	33620	
873	0	30724	31468	33576	
874	0	30696	32532	33503	
875	0	30660	31588	33452	
876	0	30364	31280	33380	
877	0	30132	33420	33320	
878	0	30420	35216	33242	
879	0	31364	34370	33134	
880	0	33056	34113	33060	
881	0	34708	31816	32984	
882	0	36256	30784	32914	
883	0	36918	32708	32880	
884	0	36204	35073	32857	
885	0	35220	33840	32846	
886	0	33808	31708	32865	
887	0	32606	30652	32894	
888	0	31400	32340	32956	
889	0	30820	32915	33032	
890	0	31590	30592	33096	
891	0	31956	30132	33156	
892	0	32016	31513	33216	
893	0	32056	34280	33281	
894	0	32124	33384	33336	
895	0	31824	33096	33396	
896	0	31984	32968	33433	
897	0	32206	32936	33508	
898	0	31944	31265	33576	
899	0	31612	33580	33612	
900	0	31908	34256	33656	
901	0	31768	34034	33687	
902	0	32042	33104	33718	
903	0	32916	32768	33713	
904	0	33496	32772	33740	
905	0	34160	31816	33744	
906	0	34400	32763	33738	
907	0	34232	32582	33740	
908	0	33888	32775	33728	
909	0	34052	32024	33713	
910	0	34688	31882	33648	
911	0	34764	29428	33580	
912	0	33752	32389	33500	
913	0	32929	34272	33408	
914	0	31952	35162	33313	
915	0	30288	33140	33156	
916	0	29504	35470	33018	
917	0	29781	32310	32848	
918	0	30617	29476	32673	
919	0	31252	31824	32484	
920	0	32088	30332	32300	
921	0	33668	27538	32140	
922	0	35228	36004	31960	
923	0	36028	35888	31816	
924	0	35636	35167	31669	
925	0	35028	34090	31544	
926	0	34461	32780	31376	
927	0	34636	32446	31220	
928	0	33716	33126	31056	
929	0	33432	34201	30869	
930	0	32604	31233	30676	
931	0	31592	28244	30516	
932	0	31494	30692	30416	
933	0	31304	32648	30367	
934	0	31140	31052	30366	
935	0	31232	31556	30438	
936	0	31140	33355	30536	
937	0	31012	32152	30664	
938	0	31428	34196	30812	
939	0	31972	37284	31008	
940	0	32536	34388	31212	
941	0	33044	32256	31420	
942	0	33560	31044	31657	
943	0	33852	31961	31932	
944	0	33872	31456	32216	
945	0	34140	32552	32532	
946	0	34228	33129	32850	
947	0	33792	33692	33148	
948	0	33228	33874	33462	
949	0	32580	32822	33772	
950	0	32176	30700	34072	
951	0	31744	31556	34336	
952	0	31456	31540	34600	
953	0	30936	30180	34836	
954	0	30932	28710	34996	
955	0	31076	28524	35133	
956	0	31350	31324	35248	
957	0	32026	34932	35308	
958	0	32608	37792	35351	
959	0	33132	38568	35392	
960	0	33708	35052	35392	
961	0	34036	33720	35368	
962	0	34284	34616	35376	
963	0	34024	33644	35340	
964	0	33380	33033	35296	
965	0	34172	33336	35244	
966	0	34736	31534	35153	
967	0	34072	27598	35028	
968	0	33252	26416	34908	
969	0	33132	32400	34756	
970	0	32864	38404	34564	
971	0	32524	37652	34385	
972	0	33933	35436	34180	
973	0	33456	30742	33944	
974	0	31692	32818	33710	
975	0	30708	33830	33484	
976	0	30716	32940	33268	
977	0	30900	27660	33076	
978	0	31569	29472	32852	
979	0	32420	33496	32680	
980	0	33324	36548	32485	
981	0	33074	35449	32314	
982	0	32532	34402	32132	
983	0	33326	33868	31964	
984	0	33537	33488	31828	
985	0	33420	33306	31704	
986	0	33176	32360	31608	
987	0	32980	31118	31552	
988	0	32924	32552	31540	
989	0	32548	32524	31578	
990	0	32270	32960	31644	
991	0	31816	31312	31748	
992	0	32016	30388	31884	
993	0	32980	31460	32060	
994	0	33140	33872	32228	
995	0	32404	35044	32420	
996	0	32272	34012	32614	
997	0	32656	34244	32816	
998	0	32944	33213	33017	
999	0	32972	31080	33196	
1000	0	33116	30344	33380	
1001	0	33120	32406	33552	
1002	0	33708	33062	33712	
1003	0	34195	33372	33865	
1004	0	34332	32604	33996	
1005	0	34260	34724	34160	
1006	0	33880	35854	34408	
1007	0	33136	35172	34704	
1008	0	32549	35766	34972	
1009	0	32184	34020	35204	
1010	0	31802	32655	35440	
1011	0	31496	31705	35704	
1012	0	31272	30576	35933	
1013	0	31268	31490	36148	
1014	0	31740	31576	36333	
1015	0	32856	29661	36432	
1016	0	32632	30885	36481	
1017	0	32576	34672	36432	
1018	0	32474	37116	36311	
1019	0	32906	35436	36126	
1020	0	33352	33708	35904	
1021	0	33652	31952	35636	
1022	0	33752	31924	35316	
1023	0	33856	33856	34983	
1024	0	33844	33832	34600	
1025	0	33636	33226	34244	
1026	0	33560	31504	33913	
1027	0	33572	29948	33632	
1028	0	33253	28568	33456	
1029	0	32996	27860	33287	
1030	0	32676	32652	33185	
1031	0	31920	39264	33113	
1032	0	31437	38868	33072	
1033	0	31504	36012	33068	
1034	0	31450	33992	33056	
1035	0	31393	34321	33052	
1036	0	31836	32604	33044	
1037	0	32464	28888	33006	
1038	0	32892	24708	32968	
1039	0	33008	31504	32908	
1040	0	33440	40700	32848	
1041	0	33586	39476	32765	
1042	0	33546	34205	32656	
1043	0	33508	34350	32508	
1044	0	33844	32072	32322	
1045	0	33688	30885	32133	
1046	0	33452	30700	31946	
1047	0	33248	32748	31812	
1048	0	32860	35672	31857	
1049	0	32848	36344	31310	
1050	0	33454	33456	30914	
1051	0	33536	29356	30800	
1052	0	32616	29780	30780	
1053	0	32140	34969	30736	
1054	0	31904	32997	30694	
1055	0	32228	33768	30617	
1056	0	32088	33088	30490	
1057	0	32240	34544	30388	
1058	0	32305	33517	30410	
1059	0	32612	32124	30508	
1060	0	33016	31148	30620	
1061	0	33076	33997	30769	
1062	0	32652	33964	30876	
1063	0	32132	35521	30976	
1064	0	32213	33052	31064	
1065	0	32864	31876	31197	
1066	0	33844	34556	31324	
1067	0	33884	32604	31476	
1068	0	33896	30164	31594	
1069	0	33606	31302	31708	
1070	0	33152	32730	31814	
1071	0	32608	33221	31934	
1072	0	31964	32785	32045	
1073	0	31105	30708	32164	
1074	0	30628	31264	32232	
1075	0	31036	32774	32297	
1076	0	32836	33125	32344	
1077	0	32808	32341	32356	
1078	0	32924	31425	32369	
1079	0	33052	31680	32370	
1080	0	33308	32250	32349	
1081	0	33436	31717	32328	
1082	0	33512	32876	32289	
1083	0	33456	34552	32276	
1084	0	33509	34088	32232	
1085	0	33431	36161	32253	
1086	0	33372	30896	32264	
1087	0	33196	31080	32262	
1088	0	32913	35040	32216	
1089	0	32524	34172	32205	
1090	0	32096	33989	32180	
1091	0	32344	31804	32144	
1092	0	32377	28292	32128	
1093	0	32282	28870	32100	
1094	0	32100	34444	32016	
1095	0	32812	35868	31937	
1096	0	33020	35780	31936	
1097	0	32925	33984	31970	
1098	0	33604	32622	31973	
1099	0	32784	32976	31948	
1100	0	32416	34149	31916	
1101	0	32536	34437	31920	
1102	0	33168	34188	31893	
1103	0	33096	32148	31812	
1104	0	32720	28508	31814	
1105	0	32884	32921	31874	
1106	0	33356	34456	31932	
1107	0	33460	32564	31944	
1108	0	33264	35412	31948	
1109	0	33174	35560	31968	
1110	0	32820	34377	31944	
1111	0	32196	33153	31944	
1112	0	32056	31934	31988	
1113	0	31940	30938	31888	
1114	0	31784	29989	31734	
1115	0	31736	30456	31693	
1116	0	32048	30861	31721	
1117	0	32396	31625	31708	
1118	0	32732	35764	31680	
1119	0	32612	37378	31644	
1120	0	33092	33614	31648	
1121	0	33490	32582	31704	
1122	0	33576	30560	31777	
1123	0	33516	32485	31716	
1124	0	33532	33471	31684	
1125	0	33102	34632	31724	
1126	0	32484	33372	31737	
1127	0	32260	31444	31704	
1128	0	32816	30224	31706	
1129	0	33272	31044	31708	
1130	0	33010	32333	31728	
1131	0	32724	32156	31792	
1132	0	32484	33356	31844	
1133	0	32084	36640	31849	
1134	0	32200	37964	31876	
1135	0	32328	34983	31888	
1136	0	32521	33332	31808	
1137	0	32980	32262	31550	
1138	0	32564	31902	31433	
1139	0	32404	32266	31368	
1140	0	32644	32944	31239	
1141	0	32942	32242	31072	
1142	0	33330	32756	30905	
1143	0	33604	31920	30849	
1144	0	33352	31457	30768	
1145	0	32852	34180	30564	
1146	0	33185	33516	30493	
1147	0	33716	32653	30568	
1148	0	33312	33297	30648	
1149	0	32900	31833	30672	
1150	0	32644	32768	30694	
1151	0	32320	34252	30740	
1152	0	32098	33588	30832	
1153	0	31964	30821	30764	
1154	0	31780	31374	30756	
1155	0	31992	33000	30857	
1156	0	32432	33036	30968	
1157	0	32536	32633	31025	
1158	0	33284	30762	31082	
1159	0	34000	32070	31060	
1160	0	33493	33986	30948	
1161	0	33096	33908	30972	
1162	0	33045	33352	31072	
1163	0	33088	32616	31128	
1164	0	33144	32620	31141	
1165	0	33028	33048	31196	
1166	0	33036	32928	31256	
1167	0	32932	31484	31305	
1168	0	32910	30108	31248	
1169	0	32800	31824	31268	
1170	0	32768	34581	31415	
1171	0	32560	34569	31540	
1172	0	32341	35192	31540	
1173	0	32148	32894	31508	
1174	0	32089	30821	31489	
1175	0	32236	31356	31500	
1176	0	32378	33636	31356	
1177	0	32552	33738	31277	
1178	0	32796	33572	31300	
1179	0	32676	33593	31344	
1180	0	32808	32652	31341	
1181	0	32812	34077	31305	
1182	0	32768	34279	31303	
1183	0	32980	32545	31302	
1184	0	33372	30886	31352	
1185	0	33508	31908	31268	
1186	0	33356	33185	31192	
1187	0	33148	34186	31290	
1188	0	32957	32036	31348	
1189	0	32812	31568	31377	
1190	0	32690	32971	31368	
1191	0	32484	33780	31368	
1192	0	32596	30884	31396	
1193	0	32492	28106	31412	
1194	0	32228	31045	31432	
1195	0	32307	32432	31512	
1196	0	32490	36088	31516	
1197	0	32633	39488	31420	
1198	0	32712	38140	31428	
1199	0	32836	35556	31524	
1200	0	33024	33008	31556	
1201	0	33252	31864	31558	
1202	0	33264	32148	31541	
1203	0	33000	32216	31510	
1204	0	32469	31170	31484	
1205	0	32452	30832	31452	
1206	0	32876	30313	31446	
1207	0	33176	27340	31462	
1208	0	33118	34257	31536	
1209	0	33016	34516	31424	
1210	0	32756	34121	31320	
1211	0	32692	34324	31344	
1212	0	32929	34577	31364	
1213	0	32388	36120	31348	
1214	0	32064	33920	31280	
1215	0	32216	31464	31232	
1216	0	32308	31801	31168	
1217	0	32484	32197	31109	
1218	0	32858	32477	31096	
1219	0	33144	32308	31148	
1220	0	33385	32927	31052	
1221	0	32961	32988	30960	
1222	0	32912	32754	30993	
1223	0	33084	32369	31028	
1224	0	33052	31744	30996	
1225	0	33108	32276	30972	
1226	0	33280	31936	30922	
1227	0	33196	30574	30896	
1228	0	33028	31349	30876	
1229	0	32964	31864	30884	
1230	0	32897	35061	30952	
1231	0	32876	35334	30916	
1232	0	32572	30244	30886	
1233	0	32404	30310	30958	
1234	0	32064	34692	30996	
1235	0	31869	34964	30988	
1236	0	31692	35712	30948	
1237	0	32112	35212	30924	
1238	0	32304	32006	30868	
1239	0	32788	33920	30848	
1240	0	33208	35220	30870	
1241	0	33301	33346	30852	
1242	0	33364	32068	30764	
1243	0	33368	31922	30798	
1244	0	33312	31729	30884	
1245	0	33152	30384	30908	
1246	0	33216	30732	30956	
1247	0	33257	31446	30972	
1248	0	33073	34168	30972	
1249	0	32944	34188	30972	
1250	0	32661	32417	30952	
1251	0	32544	31182	30836	
1252	0	32352	31044	30793	
1253	0	32200	31693	30814	
1254	0	32244	32182	30798	
1255	0	32260	32568	30768	
1256	0	32300	34848	30728	
1257	0	32388	34097	30694	
1258	0	32384	33446	30648	
1259	0	32792	34920	30617	
1260	0	33244	32484	30588	
1261	0	33472	31800	30560	
1262	0	33136	30602	30564	
1263	0	33082	30084	30581	
1264	0	33166	33205	30572	
1265	0	33188	33294	30588	
1266	0	33136	31542	30612	
1267	0	32996	32774	30634	
1268	0	32820	34712	30668	
1269	0	32602	34584	30660	
1270	0	32560	33712	30675	
1271	0	32477	32804	30736	
1272	0	32726	33137	30748	
1273	0	32728	33106	30758	
1274	0	32340	32000	30792	
1275	0	32736	31928	30816	
1276	0	32498	31682	30848	
1277	0	32237	31812	30857	
1278	0	32456	30909	30890	
1279	0	32648	31806	30910	
1280	0	32748	32583	30940	
1281	0	33072	35324	30956	
1282	0	33972	36424	30992	
1283	0	33836	34376	30946	
1284	0	33048	32656	30926	
1285	0	33164	31604	30946	
1286	0	32954	30362	30919	
1287	0	32816	30660	30892	
1288	0	32409	31857	30836	
1289	0	32580	32589	30817	
1290	0	32556	34386	30796	
1291	0	32552	35188	30776	
1292	0	32556	34741	30766	
1293	0	32433	33836	30756	
1294	0	32468	33068	30780	
1295	0	32568	33196	30822	
1296	0	32704	33652	30887	
1297	0	32716	33264	30908	
1298	0	32549	32350	30924	
1299	0	32240	32216	30933	
1300	0	32212	32696	30908	
1301	0	32863	33097	30892	
1302	0	32940	32804	30855	
1303	0	32638	32432	30823	
1304	0	33172	30820	30804	
1305	0	33500	29412	30789	
1306	0	33413	31364	30784	
1307	0	33160	35455	30752	
1308	0	32928	34420	30742	
1309	0	32824	33049	30748	
1310	0	32576	34284	30756	
1311	0	32336	34592	30748	
1312	0	32728	33108	30725	
1313	0	33012	32196	30724	
1314	0	32445	31399	30713	
1315	0	32280	30120	30705	
1316	0	32800	32220	30684	
1317	0	33016	30282	30660	
1318	0	32632	35016	30648	
1319	0	32584	35544	30636	
1320	0	32716	38017	30654	
1321	0	32888	36504	30660	
1322	0	32984	30264	30645	
1323	0	33092	30370	30648	
1324	0	33198	32616	30680	
1325	0	33300	33903	30680	
1326	0	33127	33524	30684	
1327	0	32900	31294	30680	
1328	0	32680	31060	30644	
1329	0	32780	31120	30612	
1330	0	32704	33016	30592	
1331	0	32272	34532	30584	
1332	0	32312	31296	30564	
1333	0	33654	31652	30548	
1334	0	32752	34928	30536	
1335	0	31897	36212	30508	
1336	0	31981	30552	30468	
1337	0	32314	28017	30436	
1338	0	32540	30136	30448	
1339	0	32676	31544	30452	
1340	0	32972	35516	30460	
1341	0	33336	39832	30476	
1342	0	33348	37364	30480	
1343	0	33248	34904	30496	
1344	0	33368	32336	30516	
1345	0	33412	31488	30528	
1346	0	33208	32135	30529	
1347	0	32988	31840	30552	
1348	0	32872	32648	30569	
1349	0	32757	32837	30569	
1350	0	32625	32370	30589	
1351	0	32464	30076	30597	
1352	0	32256	30596	30600	
1353	0	32196	33444	30590	
1354	0	32260	34060	30592	
1355	0	32288	33668	30596	
1356	0	32337	31968	30600	
1357	0	32508	29028	30602	
1358	0	32545	28120	30580	
1359	0	32704	34109	30572	
1360	0	33004	36160	30560	
1361	0	33152	36052	30542	
1362	0	33185	34732	30514	
1363	0	33320	33172	30500	
1364	0	33324	32741	30500	
1365	0	33312	32704	30508	
1366	0	33344	33760	30508	
1367	0	33280	33692	30486	
1368	0	33059	33018	30497	
1369	0	32812	31693	30512	
1370	0	32536	30961	30520	
1371	0	32561	31181	30541	
1372	0	32432	32272	30568	
1373	0	32236	33415	30580	
1374	0	32060	33616	30596	
1375	0	32096	33564	30589	
1376	0	32272	32932	30584	
1377	0	32460	33149	30596	
1378	0	32548	32184	30582	
1379	0	32610	32596	30584	
1380	0	32908	32206	30584	
1381	0	33016	33020	30581	
1382	0	33216	31856	30561	
1383	0	33404	32172	30560	
1384	0	33464	32072	30555	
1385	0	33367	34334	30554	
1386	0	33268	32629	30550	
1387	0	33220	32861	30547	
1388	0	33100	33944	30572	
1389	0	32912	38104	30590	
1390	0	32601	36359	30596	
1391	0	32396	34732	30589	
1392	0	31873	32140	30574	
1393	0	31780	30782	30565	
1394	0	31992	30874	30546	
1395	0	31905	31936	30545	
1396	0	31972	33308	30548	
1397	0	33372	33029	30540	
1398	0	33764	33788	30540	
1399	0	33836	33552	30548	
1400	0	33044	32176	30525	
1401	0	32661	32292	30529	
1402	0	32877	31886	30524	
1403	0	33392	30210	30528	
1404	0	33568	29717	30564	
1405	0	33536	31297	30574	
1406	0	33312	36465	30565	
1407	0	32744	37520	30546	
1408	0	32436	35409	30525	
1409	0	32560	32840	30512	
1410	0	32720	31996	30498	
1411	0	32652	31396	30460	
1412	0	32256	30854	30428	
1413	0	31960	30712	30430	
1414	0	32052	31537	30454	
1415	0	32076	31588	30463	
1416	0	32260	31444	30492	
1417	0	32464	31169	30536	
1418	0	32564	35097	30565	
1419	0	32926	34759	30590	
1420	0	33312	34308	30604	
1421	0	32948	33513	30622	
1422	0	32724	33286	30604	
1423	0	32916	33244	30612	
1424	0	33312	31612	30599	
1425	0	33452	29949	30576	
1426	0	33688	31712	30542	
1427	0	33649	30616	30520	
1428	0	33104	32908	30530	
1429	0	32672	34844	30536	
1430	0	32480	34830	30548	
1431	0	32448	33339	30573	
1432	0	32492	34644	30589	
1433	0	32208	32334	30628	
1434	0	31969	32820	30660	
1435	0	31894	32084	30664	
1436	0	32328	32940	30676	
1437	0	32704	32646	30684	
1438	0	32848	31700	30710	
1439	0	32848	33108	30724	
1440	0	32892	34232	30748	
1441	0	33081	34785	30741	
1442	0	33296	33360	30724	
1443	0	33260	32054	30710	
1444	0	33204	31132	30690	
1445	0	33196	32198	30684	
1446	0	33140	30632	30662	
1447	0	32984	28864	30677	
1448	0	32924	29324	30668	
1449	0	32356	36440	30653	
1450	0	32317	36764	30636	
1451	0	32552	37769	30624	
1452	0	32216	34128	30609	
1453	0	32321	32736	30596	
1454	0	33288	31428	30578	
1455	0	33049	33644	30564	
1456	0	32741	33164	30564	
1457	0	32389	30485	30548	
1458	0	32572	29424	30564	
1459	0	32620	29864	30573	
1460	0	32648	33064	30568	
1461	0	32473	36620	30564	
1462	0	33388	36496	30584	
1463	0	33056	34960	30616	
1464	0	32912	32408	30600	
1465	0	32960	33252	30615	
1466	0	33376	34518	30608	
1467	0	33908	33456	30604	
1468	0	33726	30096	30626	
1469	0	33296	29732	30624	
1470	0	33208	32546	30648	
1471	0	32476	34921	30660	
1472	0	32036	34062	30668	
1473	0	31964	34196	30685	
1474	0	31920	32532	30688	
1475	0	31976	31230	30682	
1476	0	32088	31337	30692	
1477	0	32384	32187	30706	
1478	0	32552	32596	30716	
1479	0	32725	32484	30716	
1480	0	32896	32488	30708	
1481	0	32948	32976	30708	
1482	0	33128	32519	30717	
1483	0	33200	32356	30692	
1484	0	33261	32342	30658	
1485	0	33316	31628	30656	
1486	0	33184	31226	30678	
1487	0	33217	32768	30700	
1488	0	33012	33704	30712	
1489	0	32868	33126	30698	
1490	0	32780	30552	30688	
1491	0	32536	32780	30705	
1492	0	32273	35497	30720	
1493	0	32356	34768	30729	
1494	0	32264	33705	30736	
1495	0	32284	32488	30733	
1496	0	32398	32600	30747	
1497	0	32500	31352	30727	
1498	0	32632	31188	30711	
1499	0	32814	33872	30689	
1500	0	32956	34276	30692	
1501	0	33149	34228	30684	
1502	0	33128	32768	30658	
1503	0	33263	31588	30644	
1504	0	33284	32432	30622	
1505	0	32932	31996	30593	
1506	0	33020	32137	30604	
1507	0	33274	32161	30572	
1508	0	33000	32672	30574	
1509	0	32988	33134	30560	
1510	0	32792	30672	30569	
1511	0	32456	33568	30584	
1512	0	32288	33856	30588	
1513	0	32188	34360	30604	
1514	0	32124	30000	30590	
1515	0	32060	26904	30598	
1516	0	32188	31280	30624	
1517	0	32576	38232	30624	
1518	0	32650	40516	30629	
1519	0	32694	35792	30636	
1520	0	33392	32348	30599	
1521	0	33292	33708	30580	
1522	0	32920	33423	30594	
1523	0	33209	32833	30574	
1524	0	34016	31040	30540	
1525	0	34022	31389	30500	
1526	0	33294	33420	30460	
1527	0	32922	33673	30428	
1528	0	33228	32105	30436	
1529	0	32522	32462	30412	
1530	0	32340	32028	30411	
1531	0	32196	31793	30412	
1532	0	32140	30588	30400	
1533	0	32168	30508	30400	
1534	0	32370	30948	30404	
1535	0	32304	33018	30440	
1536	0	32232	35786	30444	
1537	0	32302	34520	30465	
1538	0	32660	34031	30488	
1539	0	32892	35117	30512	
1540	0	33024	32318	30512	
1541	0	33097	31748	30496	
1542	0	33044	31102	30502	
1543	0	32840	34000	30494	
1544	0	32900	33648	30461	
1545	0	33108	32360	30476	
1546	0	33364	31596	30477	
1547	0	33500	33356	30484	
1548	0	33804	33121	30496	
1549	0	33360	32832	30488	
1550	0	32836	32580	30480	
1551	0	32428	32552	30486	
1552	0	32064	33344	30458	
1553	0	31830	31608	30460	
1554	0	31952	29485	30478	
1555	0	32121	32705	30488	
1556	0	32320	33272	30516	
1557	0	32388	34192	30560	
1558	0	32748	35156	30569	
1559	0	33112	34372	30606	
1560	0	33196	31612	30600	
1561	0	33108	27520	30604	
1562	0	33036	28500	30617	
1563	0	33228	30390	30625	
1564	0	33240	36928	30640	
1565	0	33132	38736	30648	
1566	0	33124	37633	30672	
1567	0	33374	36428	30657	
1568	0	33180	34604	30660	
1569	0	32952	31351	30644	
1570	0	32768	30574	30644	
1571	0	32436	31565	30652	
1572	0	32136	32248	30644	
1573	0	32124	32794	30676	
1574	0	31997	32276	30678	
1575	0	32068	32072	30677	
1576	0	32176	32800	30681	
1577	0	32244	32308	30709	
1578	0	32314	31369	30721	
1579	0	32876	30152	30756	
1580	0	33428	29504	30780	
1581	0	33244	29833	30788	
1582	0	33036	33968	30813	
1583	0	33378	34126	30842	
1584	0	34036	36312	30820	
1585	0	33708	36708	30828	
1586	0	33312	33324	30832	
1587	0	32813	30780	30816	
1588	0	32868	30700	30822	
1589	0	33072	33917	30806	
1590	0	32648	33890	30780	
1591	0	32196	35540	30768	
1592	0	32268	34744	30749	
1593	0	32245	32993	30736	
1594	0	32562	31215	30725	
1595	0	32388	31050	30717	
1596	0	32117	32521	30700	
1597	0	32280	34332	30693	
1598	0	32384	34055	30692	
1599	0	32448	33081	30672	
1600	0	32900	32508	30660	
1601	0	33640	29974	30633	
1602	0	33006	28812	30599	
1603	0	32672	28408	30562	
1604	0	32784	32154	30512	
1605	0	32888	40508	30508	
1606	0	33356	37636	30520	
1607	0	34181	35257	30528	
1608	0	34256	33528	30564	
1609	0	33732	32024	30572	
1610	0	32760	30948	30580	
1611	0	32064	32709	30589	
1612	0	31844	32782	30608	
1613	0	31896	30820	30625	
1614	0	31925	32602	30646	
1615	0	31933	33204	30677	
1616	0	32180	34748	30700	
1617	0	32312	35004	30708	
1618	0	32570	33180	30722	
1619	0	32760	33008	30701	
1620	0	32893	32829	30716	
1621	0	33080	31601	30704	
1622	0	33216	32124	30720	
1623	0	33272	33569	30706	
1624	0	33344	33382	30708	
1625	0	33372	31608	30704	
1626	0	33280	33682	30716	
1627	0	33200	33766	30696	
1628	0	33068	32733	30684	
1629	0	32824	31284	30710	
1630	0	32672	33706	30706	
1631	0	32488	33833	30686	
1632	0	32586	33140	30688	
1633	0	32452	32480	30672	
1634	0	32312	31545	30688	
1635	0	32322	32198	30680	
1636	0	32168	31824	30672	
1637	0	32225	30204	30640	
1638	0	32288	30544	30630	
1639	0	32600	34296	30648	
1640	0	33300	36580	30662	
1641	0	33344	34698	30679	
1642	0	33264	32248	30660	
1643	0	33188	31553	30672	
1644	0	33140	32234	30680	
1645	0	33003	33249	30706	
1646	0	32960	34311	30685	
1647	0	32840	31656	30682	
1648	0	32884	31220	30704	
1649	0	32988	33511	30711	
1650	0	33200	33505	30708	
1651	0	33205	30412	30716	
1652	0	33188	32972	30716	
1653	0	32636	33796	30696	
1654	0	32044	34572	30708	
1655	0	31876	33906	30697	
1656	0	31980	32548	30711	
1657	0	32040	31316	30700	
1658	0	32364	29716	30692	
1659	0	32622	30468	30694	
1660	0	32841	32116	30697	
1661	0	32984	35332	30697	
1662	0	33112	32977	30689	
1663	0	33240	28349	30709	
1664	0	33256	32112	30722	
1665	0	33428	39308	30716	
1666	0	33600	41929	30708	
1667	0	33300	37378	30680	
1668	0	32988	32916	30680	
1669	0	32776	30780	30682	
1670	0	32612	30454	30676	
1671	0	32380	31482	30692	
1672	0	32165	31628	30717	
1673	0	32040	32178	30712	
1674	0	32044	30556	30732	
1675	0	32564	28672	30725	
1676	0	32560	33616	30710	
1677	0	32596	30854	30716	
1678	0	32420	35673	30732	
1679	0	32636	33384	30720	
1680	0	33257	31791	30693	
1681	0	33440	34392	30661	
1682	0	33260	34716	30657	
1683	0	33189	33554	30644	
1684	0	33153	32848	30647	
1685	0	33108	32794	30652	
1686	0	33085	31829	30628	
1687	0	33056	32324	30650	
1688	0	32940	32764	30649	
1689	0	32740	31936	30668	
1690	0	32552	31572	30694	
1691	0	32388	32932	30692	
1692	0	32277	34400	30693	
1693	0	32000	31788	30704	
1694	0	32248	29039	30727	
1695	0	32520	29513	30726	
1696	0	32304	32388	30716	
1697	0	32700	36784	30716	
1698	0	33560	36885	30692	
1699	0	33012	33216	30684	
1700	0	32728	31550	30665	
1701	0	32768	34292	30680	
1702	0	32992	33728	30676	
1703	0	33100	32554	30668	
1704	0	33208	34264	30652	
1705	0	33308	34294	30662	
1706	0	33160	33352	30645	
1707	0	33192	33364	30652	
1708	0	33066	31996	30650	
1709	0	32890	30340	30653	
1710	0	32736	32628	30652	
1711	0	32532	32357	30654	
1712	0	32364	33289	30650	
1713	0	32016	35224	30640	
1714	0	31948	33728	30616	
1715	0	31977	32136	30608	
1716	0	32108	31652	30584	
1717	0	32852	29333	30593	
1718	0	32712	31688	30614	
1719	0	32700	33204	30632	
1720	0	32776	33476	30633	
1721	0	32860	32169	30628	
1722	0	32848	31964	30621	
1723	0	33136	34016	30612	
1724	0	34124	36672	30591	
1725	0	34416	31554	30596	
1726	0	33636	28550	30570	
1727	0	33344	31508	30584	
1728	0	33208	36512	30604	
1729	0	32629	36428	30616	
1730	0	32444	32842	30608	
1731	0	32213	31605	30602	
1732	0	32108	32630	30608	
1733	0	32052	33360	30652	
1734	0	32101	33292	30668	
1735	0	32232	33152	30683	
1736	0	32304	30244	30668	
1737	0	32268	31073	30657	
1738	0	32430	28880	30668	
1739	0	32728	31940	30692	
1740	0	32866	35880	30692	
1741	0	33096	36043	30680	
1742	0	33249	36326	30664	
1743	0	33060	34132	30656	
1744	0	33052	32742	30628	
1745	0	33287	32336	30623	
1746	0	33360	31276	30608	
1747	0	33465	32020	30604	
1748	0	33284	32596	30606	
1749	0	33048	32644	30592	
1750	0	32840	30773	30576	
1751	0	32544	28966	30596	
1752	0	32448	32360	30612	
1753	0	32376	35503	30599	
1754	0	32225	34710	30588	
1755	0	32282	28776	30577	
1756	0	32190	29256	30576	
1757	0	32224	34736	30584	
1758	0	32436	35324	30598	
1759	0	32552	36088	30601	
1760	0	32644	35276	30590	
1761	0	32668	34092	30588	
1762	0	33196	31504	30596	
1763	0	33628	30992	30600	
1764	0	33248	33760	30600	
1765	0	33676	32871	30590	
1766	0	33708	33172	30585	
1767	0	33236	33349	30592	
1768	0	33252	32719	30588	
1769	0	32848	32302	30612	
1770	0	32620	31684	30628	
1771	0	32412	30484	30633	
1772	0	32356	32149	30657	
1773	0	32105	34284	30664	
1774	0	32088	33977	30664	
1775	0	32120	32456	30672	
1776	0	32145	32014	30684	
1777	0	32368	32633	30692	
1778	0	32560	31200	30696	
1779	0	32712	31569	30700	
1780	0	32950	33004	30724	
1781	0	33032	34224	30741	
1782	0	33280	33513	30736	
1783	0	33420	34920	30748	
1784	0	33348	34380	30736	
1785	0	33236	31244	30748	
1786	0	33101	32316	30724	
1787	0	33060	34492	30716	
1788	0	33074	35081	30740	
1789	0	32960	34044	30740	
1790	0	32660	32126	30735	
1791	0	32824	31736	30729	
1792	0	32916	32488	30724	
1793	0	32460	32374	30707	
1794	0	32444	32463	30701	
1795	0	32264	32792	30708	
1796	0	32192	30845	30716	
1797	0	32080	29924	30701	
1798	0	32288	32648	30724	
1799	0	32508	36016	30748	
1800	0	32808	35132	30752	
1801	0	33016	32916	30738	
1802	0	33120	32772	30750	
1803	0	33308	32172	30752	
1804	0	33432	30814	30734	
1805	0	33328	33700	30740	
1806	0	33240	34836	30728	
1807	0	33152	34616	30717	
1808	0	33009	32066	30704	
1809	0	32828	31800	30713	
1810	0	32656	32108	30717	
1811	0	32708	31832	30710	
1812	0	32872	32760	30703	
1813	0	32304	32896	30698	
1814	0	32052	32322	30677	
1815	0	32100	31708	30672	
1816	0	32220	32545	30680	
1817	0	32336	33624	30650	
1818	0	32440	32928	30660	
1819	0	32668	32743	30666	
1820	0	32912	32292	30687	
1821	0	32956	32093	30696	
1822	0	32966	33112	30676	
1823	0	32800	30924	30676	
1824	0	32920	35380	30668	
1825	0	32880	35200	30676	
1826	0	33108	33245	30646	
1827	0	33628	34108	30624	
1828	0	35036	32336	30612	
1829	0	34009	33276	30604	
1830	0	33132	32731	30590	
1831	0	32468	32488	30564	
1832	0	32012	32364	30572	
1833	0	31808	31756	30547	
1834	0	31632	30896	30548	
1835	0	31912	31424	30560	
1836	0	32100	33348	30549	
1837	0	32196	31732	30554	
1838	0	32392	32094	30580	
1839	0	32700	30664	30601	
1840	0	32908	33474	30648	
1841	0	33048	37652	30679	
1842	0	33076	33029	30668	
1843	0	33272	32749	30684	
1844	0	33520	33097	30660	
1845	0	33548	35924	30672	
1846	0	33376	38428	30644	
1847	0	33400	34940	30638	
1848	0	33277	31132	30639	
1849	0	32948	31298	30628	
1850	0	32684	31024	30610	
1851	0	32348	31300	30616	
1852	0	32180	31544	30620	
1853	0	32164	32357	30621	
1854	0	32062	32250	30634	
1855	0	32136	31537	30644	
1856	0	32210	32649	30628	
1857	0	32312	33229	30629	
1858	0	32508	33024	30625	
1859	0	32702	32592	30620	
1860	0	32876	32557	30612	
1861	0	33081	33604	30604	
1862	0	33172	33448	30604	
1863	0	33129	33238	30599	
1864	0	33188	33583	30599	
1865	0	33228	31702	30596	
1866	0	33209	31589	30598	
1867	0	33200	31985	30583	
1868	0	33272	33702	30596	
1869	0	33064	33736	30597	
1870	0	32860	32768	30612	
1871	0	32500	31888	30596	
1872	0	32462	30972	30616	
1873	0	32600	31567	30620	
1874	0	32468	33289	30612	
1875	0	32408	32076	30598	
1876	0	32400	30532	30597	
1877	0	32356	35082	30594	
1878	0	32432	36608	30612	
1879	0	32368	33520	30608	
1880	0	32554	31637	30614	
1881	0	32744	34096	30592	
1882	0	33064	34032	30576	
1883	0	33080	32968	30557	
1884	0	33412	32209	30564	
1885	0	33372	32480	30569	
1886	0	33636	32686	30584	
1887	0	34096	32868	30602	
1888	0	33429	32341	30617	
1889	0	32765	32440	30632	
1890	0	32500	31677	30640	
1891	0	32388	34460	30660	
1892	0	32209	35136	30657	
1893	0	32179	36796	30657	
1894	0	32100	34272	30669	
1895	0	32144	32535	30664	
1896	0	32236	33031	30652	
1897	0	32224	33618	30667	
1898	0	32284	31144	30660	
1899	0	32689	31291	30664	
1900	0	32864	33138	30660	
1901	0	33148	32768	30654	
1902	0	33300	32151	30660	
1903	0	33356	32132	30669	
1904	0	33188	31964	30684	
1905	0	33156	31016	30678	
1906	0	33160	29776	30664	
1907	0	33097	31592	30646	
1908	0	32932	35224	30664	
1909	0	33732	34760	30660	
1910	0	33160	32192	30664	
1911	0	32704	32062	30660	
1912	0	32244	31644	30652	
1913	0	32069	32809	30676	
1914	0	32000	33836	30679	
1915	0	32348	31056	30668	
1916	0	32256	33572	30657	
1917	0	32287	33344	30670	
1918	0	32526	31102	30658	
1919	0	32962	32673	30663	
1920	0	32996	34212	30654	
1921	0	32997	33693	30648	
1922	0	32836	33100	30646	
1923	0	32952	32476	30644	
1924	0	33316	32263	30650	
1925	0	33300	33444	30652	
1926	0	33338	34116	30638	
1927	0	33246	33112	30628	
1928	0	32945	30856	30629	
1929	0	33000	27253	30625	
1930	0	32958	31987	30608	
1931	0	32656	34097	30607	
1932	0	32472	34720	30620	
1933	0	32616	34404	30632	
1934	0	32538	32548	30641	
1935	0	32196	29889	30650	
1936	0	31905	30144	30633	
1937	0	31948	31984	30628	
1938	0	32172	35732	30614	
1939	0	32692	36648	30632	
1940	0	32809	34744	30610	
1941	0	33020	33242	30604	
1942	0	33156	32863	30600	
1943	0	33172	32789	30606	
1944	0	33016	35576	30608	
1945	0	33272	34639	30616	
1946	0	33325	33432	30596	
1947	0	33240	33697	30610	
1948	0	33536	32550	30604	
1949	0	33692	28136	30588	
1950	0	33200	28125	30580	
1951	0	32512	29289	30560	
1952	0	32000	33380	30544	
1953	0	31894	35876	30536	
1954	0	31857	33606	30524	
1955	0	31930	35244	30512	
1956	0	32290	34000	30497	
1957	0	33208	32681	30501	
1958	0	33090	31956	30501	
1959	0	32628	31956	30512	
1960	0	32265	33364	30494	
1961	0	32880	33662	30502	
1962	0	33056	32396	30500	
1963	0	33056	32300	30536	
1964	0	33176	31990	30524	
1965	0	33398	32700	30536	
1966	0	33500	32949	30541	
1967	0	33460	33032	30554	
1968	0	33252	31430	30554	
1969	0	33072	33220	30560	
1970	0	32816	33664	30588	
1971	0	32432	33092	30589	
1972	0	32152	32924	30580	
1973	0	31976	32305	30592	
1974	0	32116	29948	30605	
1975	0	32174	31050	30613	
1976	0	32304	30213	30612	
1977	0	32480	29872	30614	
1978	0	32464	34536	30629	
1979	0	32600	37895	30638	
1980	0	32876	35372	30636	
1981	0	32926	33280	30638	
1982	0	33056	33120	30628	
1983	0	34256	35244	30652	
1984	0	33840	34717	30656	
1985	0	33231	32824	30654	
1986	0	33108	33252	30628	
1987	0	33044	31512	30604	
1988	0	33012	30858	30578	
1989	0	32768	31447	30582	
1990	0	32744	30512	30576	
1991	0	32508	31660	30598	
1992	0	32185	35081	30588	
1993	0	32116	33892	30608	
1994	0	32058	32149	30628	
1995	0	32268	33961	30640	
1996	0	32445	31676	30652	
1997	0	32464	34180	30657	
1998	0	32524	34898	30666	
1999	0	32692	33188	30661	
2000	0	32910	30983	30654	
2001	0	33140	32784	30636	
2002	0	33160	31580	30632	
2003	0	33153	32812	30628	
2004	0	33380	32133	30628	
2005	0	33128	33460	30628	
2006	0	33078	34302	30628	
2007	0	33145	33597	30628	
2008	0	32980	33944	30614	
2009	0	32992	32517	30616	
2010	0	32888	31884	30612	
2011	0	32900	32684	30604	
2012	0	32564	31648	30612	
2013	0	32205	31113	30620	
2014	0	32049	31296	30620	
2015	0	32078	31178	30592	
2016	0	32172	31372	30589	
2017	0	32320	32028	30596	
2018	0	32416	32494	30588	
2019	0	32676	33251	30588	
2020	0	32900	32340	30593	
2021	0	33100	33873	30600	
2022	0	33184	34076	30590	
2023	0	33160	32276	30596	
2024	0	33328	32366	30604	
2025	0	33444	32460	30608	
2026	0	33396	35964	30588	
2027	0	33144	32156	30588	
2028	0	32976	28632	30600	
2029	0	32916	33328	30604	
2030	0	32686	37916	30612	
2031	0	32724	34645	30608	
2032	0	32890	31980	30596	
2033	0	32364	35308	30588	
2034	0	31997	34784	30596	
2035	0	32092	33076	30594	
2036	0	32140	32605	30576	
2037	0	32270	32993	30572	
2038	0	32472	31756	30588	
2039	0	32640	31196	30595	
2040	0	32817	31437	30605	
2041	0	32956	32182	30602	
2042	0	33144	34289	30616	
2043	0	33242	34950	30604	
2044	0	33304	32572	30632	
2045	0	33312	31040	30648	
2046	0	33272	31290	30680	
2047	0	33044	34316	30672	
2048	0	32868	35828	30660	
2049	0	32736	32908	30648	
2050	0	32704	33296	30641	
2051	0	32508	33169	30640	
2052	0	32582	31318	30618	
2053	0	32904	32336	30605	
2054	0	32528	32657	30548	
2055	0	32104	32568	30516	
2056	0	32048	32826	30507	
2057	0	32284	31272	30520	
2058	0	32492	31176	30556	
2059	0	32732	32660	30600	
2060	0	33000	34344	30642	
2061	0	33116	33494	30672	
2062	0	33192	33388	30692	
2063	0	33180	32372	30732	
2064	0	33273	33732	30732	
2065	0	33324	33668	30760	
2066	0	33324	33005	30756	
2067	0	33224	32280	30758	
2068	0	32983	31632	30749	
2069	0	32888	30862	30756	
2070	0	32584	33900	30748	
2071	0	32392	34620	30756	
2072	0	32004	33384	30736	
2073	0	32108	32686	30736	
2074	0	32248	29864	30720	
2075	0	32412	31580	30701	
2076	0	32760	31504	30680	
2077	0	33352	32464	30679	
2078	0	32605	33040	30660	
2079	0	32492	34124	30636	
2080	0	32552	34533	30624	
2081	0	32900	36196	30617	
2082	0	33172	35309	30621	
2083	0	33352	34796	30576	
2084	0	33412	33770	30572	
2085	0	33242	33950	30560	
2086	0	33148	34060	30558	
2087	0	33205	31216	30564	
2088	0	33180	31148	30573	
2089	0	32940	31272	30591	
2090	0	32733	31846	30596	
2091	0	32504	32250	30608	
2092	0	32408	31399	30596	
2093	0	32264	28672	30612	
2094	0	32120	27536	30596	
2095	0	32032	34524	30604	
2096	0	31962	39608	30614	
2097	0	32114	35680	30620	
2098	0	32392	32565	30649	
2099	0	32608	32166	30650	
2100	0	32912	32361	30636	
2101	0	33176	32574	30644	
2102	0	33152	32644	30646	
2103	0	33248	32557	30656	
2104	0	33272	32813	30644	
2105	0	33356	32392	30632	
2106	0	33212	30600	30636	
2107	0	33156	32164	30640	
2108	0	33084	34689	30648	
2109	0	33172	31936	30644	
2110	0	33216	33229	30632	
2111	0	32970	33332	30641	
2112	0	32773	33872	30632	
2113	0	32228	33509	30620	
2114	0	31952	30412	30634	
2115	0	31980	31441	30648	
2116	0	32320	34292	30628	
2117	0	32512	33604	30627	
2118	0	32300	33004	30624	
2119	0	32442	31327	30604	
2120	0	33028	32488	30592	
2121	0	33121	34434	30601	
2122	0	33056	32749	30577	
2123	0	33016	32477	30588	
2124	0	33045	32609	30598	
2125	0	33108	33616	30560	
2126	0	33116	33592	30546	
2127	0	33276	33758	30538	
2128	0	33248	34276	30564	
2129	0	33100	31528	30572	
2130	0	32976	30656	30585	
2131	0	32752	33488	30592	
2132	0	32540	35493	30604	
2133	0	32756	32281	30609	
2134	0	32188	31986	30612	
2135	0	31860	34449	30612	
2136	0	31982	33932	30620	
2137	0	32364	31375	30628	
2138	0	32650	32188	30620	
2139	0	32856	32329	30623	
2140	0	32864	30436	30628	
2141	0	32824	33400	30604	
2142	0	32936	31952	30602	
2143	0	33188	32032	30596	
2144	0	33236	30564	30590	
2145	0	33224	33524	30568	
2146	0	33200	35908	30544	
2147	0	33292	35868	30548	
2148	0	33212	34076	30553	
2149	0	32924	32308	30564	
2150	0	32892	31845	30556	
2151	0	32728	32452	30560	
2152	0	32352	32487	30564	
2153	0	32156	32348	30592	
2154	0	32156	32536	30594	
2155	0	32104	32961	30580	
2156	0	32164	32084	30561	
2157	0	33496	31604	30552	
2158	0	32984	32574	30540	
2159	0	32528	30804	30544	
2160	0	32489	32409	30522	
2161	0	32728	34816	30532	
2162	0	33008	33415	30512	
2163	0	33172	32737	30522	
2164	0	33309	33905	30520	
2165	0	33380	34020	30526	
2166	0	33324	32120	30532	
2167	0	33292	31861	30548	
2168	0	33184	32033	30601	
2169	0	32948	31480	30625	
2170	0	32776	32240	30635	
2171	0	32612	34180	30660	
2172	0	32404	35697	30664	
2173	0	32204	35941	30680	
2174	0	32132	33698	30677	
2175	0	32076	32301	30668	
2176	0	32256	31596	30640	
2177	0	32348	32074	30664	
2178	0	32392	31784	30654	
2179	0	32584	30959	30656	
2180	0	32828	33336	30609	
2181	0	33021	36192	30628	
2182	0	33140	34836	30632	
2183	0	33300	32548	30640	
2184	0	33302	32132	30638	
2185	0	33408	32208	30628	
2186	0	33360	32760	30624	
2187	0	33348	32341	30644	
2188	0	33176	32204	30640	
2189	0	32996	32036	30648	
2190	0	32852	30890	30634	
2191	0	32590	33542	30633	
2192	0	32448	33428	30657	
2193	0	32304	31624	30664	
2194	0	32228	30524	30664	
2195	0	32012	35237	30654	
2196	0	32068	34292	30652	
2197	0	32093	34017	30644	
2198	0	32477	33332	30652	
2199	0	32640	32940	30660	
2200	0	32864	32824	30663	
2201	0	32804	32936	30688	
2202	0	32740	31244	30677	
2203	0	32992	32072	30704	
2204	0	33508	31672	30687	
2205	0	33364	33972	30664	
2206	0	33304	33092	30668	
2207	0	33248	33072	30660	
2208	0	34042	33404	30626	
2209	0	33868	33453	30644	
2210	0	32992	33444	30654	
2211	0	32716	31084	30652	
2212	0	32456	31240	30658	
2213	0	32184	34488	30668	
2214	0	32100	34426	30672	
2215	0	31948	32268	30640	
2216	0	31948	33568	30622	
2217	0	32233	33460	30632	
2218	0	32592	31136	30622	
2219	0	32604	28872	30616	
2220	0	32561	30292	30608	
2221	0	32912	30950	30600	
2222	0	33168	32583	30596	
2223	0	33200	35684	30584	
2224	0	33268	37016	30580	
2225	0	33264	35084	30573	
2226	0	33320	35289	30567	
2227	0	33276	32824	30560	
2228	0	33188	33037	30552	
2229	0	33028	33443	30565	
2230	0	32788	31553	30561	
2231	0	32640	31344	30584	
2232	0	32468	30200	30594	
2233	0	32258	32138	30598	
2234	0	32132	34764	30597	
2235	0	32056	32684	30584	
2236	0	32172	31648	30572	
2237	0	32276	33047	30561	
2238	0	32452	32928	30558	
2239	0	32508	32685	30536	
2240	0	32804	33144	30532	
2241	0	33108	31668	30532	
2242	0	33240	31064	30540	
2243	0	33252	34788	30528	
2244	0	33370	33969	30534	
2245	0	33400	31996	30553	
2246	0	33380	30228	30544	
2247	0	33372	32996	30568	
2248	0	33264	34350	30599	
2249	0	32990	33813	30592	
2250	0	32684	34044	30590	
2251	0	32420	33497	30589	
2252	0	32160	32594	30580	
2253	0	32028	31596	30584	
2254	0	32068	32944	30588	
2255	0	32216	34208	30596	
2256	0	32860	32928	30572	
2257	0	32836	31878	30564	
2258	0	32708	32013	30575	
2259	0	32569	33408	30578	
2260	0	32612	32672	30566	
2261	0	32921	32368	30592	
2262	0	33136	33208	30586	
2263	0	33284	32526	30580	
2264	0	33279	31892	30600	
2265	0	33368	31855	30621	
2266	0	33416	33296	30624	
2267	0	33356	33068	30626	
2268	0	33136	33848	30652	
2269	0	32864	34360	30676	
2270	0	32717	31829	30692	
2271	0	32504	33085	30688	
2272	0	32312	31764	30694	
2273	0	32184	29300	30680	
2274	0	31956	29329	30703	
2275	0	31736	37312	30701	
2276	0	32052	38007	30728	
2277	0	32396	34312	30719	
2278	0	32656	32552	30737	
2279	0	32898	30192	30727	
2280	0	33660	33846	30711	
2281	0	33865	34784	30700	
2282	0	33160	33668	30693	
2283	0	32972	32151	30694	
2284	0	33030	31380	30666	
2285	0	33040	30612	30656	
2286	0	32948	31619	30620	
2287	0	32966	34239	30606	
2288	0	33044	33031	30592	
2289	0	33088	32586	30596	
2290	0	32952	33767	30560	
2291	0	32764	32620	30568	
2292	0	32536	32060	30604	
2293	0	32876	32688	30596	
2294	0	32225	33405	30620	
2295	0	31720	34632	30636	
2296	0	31792	34224	30656	
2297	0	32020	32844	30668	
2298	0	32096	30318	30652	
2299	0	33268	31748	30632	
2300	0	33164	33588	30620	
2301	0	32924	30586	30613	
2302	0	32876	32632	30616	
2303	0	33064	35676	30618	
2304	0	33220	35694	30604	
2305	0	33440	28040	30584	
2306	0	33464	31717	30580	
2307	0	33488	34812	30574	
2308	0	33440	35225	30568	
2309	0	33164	32617	30570	
2310	0	32816	28325	30569	
2311	0	32528	30036	30556	
2312	0	32272	36084	30574	
2313	0	32124	36484	30581	
2314	0	32000	31800	30590	
2315	0	31813	34192	30582	
2316	0	31912	33742	30564	
2317	0	32109	35158	30562	
2318	0	32316	34252	30568	
2319	0	32388	32916	30564	
2320	0	33296	32964	30558	
2321	0	33912	32452	30566	
2322	0	33540	30598	30564	
2323	0	33280	30778	30560	
2324	0	33152	31078	30556	
2325	0	33188	30084	30560	
2326	0	33320	32964	30552	
2327	0	33325	34194	30577	
2328	0	33164	33172	30596	
2329	0	32964	34980	30618	
2330	0	32760	35244	30632	
2331	0	32600	31960	30640	
2332	0	32378	32001	30628	
2333	0	32216	33468	30648	
2334	0	32080	33116	30676	
2335	0	32044	32866	30692	
2336	0	32152	31639	30693	
2337	0	32306	32262	30708	
2338	0	32484	32732	30682	
2339	0	32596	31972	30664	
2340	0	32620	32373	30664	
2341	0	32781	30244	30672	
2342	0	32920	29968	30648	
2343	0	33284	36456	30654	
2344	0	33690	36431	30677	
2345	0	33760	34344	30668	
2346	0	33356	32206	30656	
2347	0	33204	31284	30664	
2348	0	33210	31529	30657	
2349	0	33008	34085	30660	
2350	0	32880	34672	30672	
2351	0	32976	32743	30662	
2352	0	32500	31296	30669	
2353	0	32184	31632	30692	
2354	0	32016	32740	30698	
2355	0	31995	30681	30697	
2356	0	32252	31725	30677	
2357	0	32244	33776	30680	
2358	0	32264	34604	30688	
2359	0	32456	34684	30680	
2360	0	32748	33421	30660	
2361	0	32968	32257	30672	
2362	0	33024	31879	30677	
2363	0	33296	33993	30668	
2364	0	33476	32392	30661	
2365	0	33360	32033	30630	
2366	0	33204	34105	30645	
2367	0	33216	33432	30630	
2368	0	33384	32263	30616	
2369	0	33646	32424	30617	
2370	0	33406	32189	30618	
2371	0	32738	32367	30596	
2372	0	32236	33633	30604	
2373	0	32136	32828	30600	
2374	0	32026	33610	30588	
2375	0	32072	31912	30596	
2376	0	32165	32180	30612	
2377	0	32262	32208	30607	
2378	0	32316	32738	30620	
2379	0	32554	31960	30608	
2380	0	32721	29650	30624	
2381	0	32744	34036	30633	
2382	0	32768	32352	30613	
2383	0	32940	36528	30612	
2384	0	33030	35400	30616	
2385	0	33344	33445	30613	
2386	0	34192	32408	30584	
2387	0	34616	33145	30556	
2388	0	33416	33940	30552	
2389	0	32912	32360	30550	
2390	0	32596	32377	30552	
2391	0	32398	32757	30581	
2392	0	32160	32323	30580	
2393	0	31889	32191	30628	
2394	0	31948	32487	30630	
2395	0	31922	32322	30636	
2396	0	32152	30910	30636	
2397	0	32420	33341	30653	
2398	0	32636	33692	30648	
2399	0	32834	34748	30654	
2400	0	33048	33820	30660	
2401	0	33108	31872	30653	
2402	0	33140	32540	30645	
2403	0	33121	31244	30660	
2404	0	33228	30548	30636	
2405	0	33324	30684	30624	
2406	0	33332	34608	30638	
2407	0	33304	34473	30648	
2408	0	33224	30972	30644	
2409	0	33012	29420	30664	
2410	0	32740	37428	30680	
2411	0	32680	35060	30674	
2412	0	32435	33296	30684	
2413	0	32312	30917	30698	
2414	0	32192	33420	30702	
2415	0	32076	34788	30696	
2416	0	32160	34030	30701	
2417	0	32294	33485	30692	
2418	0	32372	33168	30710	
2419	0	32460	33404	30688	
2420	0	32968	30937	30676	
2421	0	33136	31538	30673	
2422	0	33024	32693	30680	
2423	0	32966	32756	30692	
2424	0	33000	32273	30700	
2425	0	33174	33924	30708	
2426	0	33252	33428	30701	
2427	0	33780	29904	30696	
2428	0	33732	31624	30700	
2429	0	33080	35564	30721	
2430	0	33024	34667	30708	
2431	0	32981	33269	30704	
2432	0	32420	30156	30700	
2433	0	32221	30240	30684	
2434	0	32096	32692	30692	
2435	0	32188	34724	30672	
2436	0	32292	33400	30660	
2437	0	32356	33840	30632	
2438	0	32421	34404	30624	
2439	0	32404	32448	30629	
2440	0	32404	30814	30624	
2441	0	32636	29692	30593	
2442	0	32994	29876	30591	
2443	0	33112	35424	30588	
2444	0	33000	35248	30604	
2445	0	33632	33333	30597	
2446	0	33760	34600	30608	
2447	0	33526	33422	30596	
2448	0	33168	32238	30604	
2449	0	33041	34616	30616	
2450	0	33181	34287	30604	
2451	0	32840	33574	30600	
2452	0	32356	32052	30622	
2453	0	32309	31344	30628	
2454	0	32272	31784	30652	
2455	0	32168	32108	30613	
2456	0	32032	32512	30588	
2457	0	32106	32772	30580	
2458	0	32088	31485	30567	
2459	0	32177	32645	30540	
2460	0	32360	31984	30520	
2461	0	32648	32716	30508	
2462	0	33164	32788	30504	
2463	0	33932	33700	30492	
2464	0	33693	34348	30449	
2465	0	33840	32196	30438	
2466	0	33840	30872	30424	
2467	0	33464	30708	30404	
2468	0	33102	30002	30405	
2469	0	32874	34948	30392	
2470	0	32952	35862	30400	
2471	0	32456	35264	30396	
2472	0	32185	34893	30385	
2473	0	32048	32348	30408	
2474	0	32052	29312	30408	
2475	0	32072	32440	30420	
2476	0	32161	36408	30428	
2477	0	32356	35140	30436	
2478	0	32348	32249	30476	
2479	0	32464	31484	30480	
2480	0	32748	31511	30492	
2481	0	32948	31668	30520	
2482	0	33080	33541	30532	
2483	0	33160	32494	30526	
2484	0	33306	30984	30525	
2485	0	33416	31220	30524	
2486	0	33380	33994	30504	
2487	0	33144	33660	30516	
2488	0	33504	33992	30520	
2489	0	33154	33952	30524	
2490	0	32656	32899	30500	
2491	0	32512	32445	30520	
2492	0	32652	33852	30517	
2493	0	32365	32262	30552	
2494	0	32088	32856	30576	
2495	0	32024	32808	30588	
2496	0	32361	30365	30593	
2497	0	32660	28876	30608	
2498	0	32620	32196	30604	
2499	0	32460	37512	30622	
2500	0	32568	34092	30628	
2501	0	32760	36028	30618	
2502	0	33033	33541	30624	
2503	0	33156	32910	30613	
2504	0	33136	32484	30612	
2505	0	33521	32258	30622	
2506	0	33736	31566	30597	
2507	0	33336	31083	30626	
2508	0	33172	33495	30638	
2509	0	32933	33918	30652	
2510	0	32785	32796	30666	
2511	0	32772	32348	30660	
2512	0	32588	32232	30666	
2513	0	32408	31473	30684	
2514	0	32120	32576	30688	
2515	0	32052	34122	30697	
2516	0	32138	32537	30692	
2517	0	32257	31074	30692	
2518	0	32341	33526	30717	
2519	0	32549	33462	30726	
2520	0	32730	31328	30704	
2521	0	32918	29772	30713	
2522	0	33188	32260	30708	
2523	0	33260	34388	30708	
2524	0	33334	33264	30705	
2525	0	33444	36164	30685	
2526	0	33478	36932	30693	
2527	0	33408	34716	30693	
2528	0	33152	32814	30694	
2529	0	32918	31866	30684	
2530	0	32820	32178	30702	
2531	0	32590	31876	30705	
2532	0	32408	33304	30696	
2533	0	32277	31736	30680	
2534	0	32040	30468	30684	
2535	0	32074	32344	30672	
2536	0	32128	34372	30663	
2537	0	32268	33734	30638	
2538	0	32372	30041	30620	
2539	0	32560	29523	30600	
2540	0	33005	31852	30580	
2541	0	33176	35920	30586	
2542	0	33316	35437	30592	
2543	0	33464	35948	30580	
2544	0	33288	34183	30572	
2545	0	33272	32746	30552	
2546	0	33320	32920	30538	
2547	0	33172	30112	30540	
2548	0	33044	28932	30514	
2549	0	32784	31116	30521	
2550	0	32580	32076	30520	
2551	0	32492	34176	30516	
2552	0	32456	34952	30521	
2553	0	32578	34676	30488	
2554	0	32720	33992	30489	
2555	0	32552	31320	30502	
2556	0	32536	33572	30500	
2557	0	32660	32750	30504	
2558	0	32525	32372	30505	
2559	0	32353	31828	30504	
2560	0	32484	32480	30498	
2561	0	32696	34064	30476	
2562	0	33013	33268	30484	
2563	0	33156	32044	30500	
2564	0	33302	33758	30512	
2565	0	33356	33656	30516	
2566	0	33132	34592	30502	
2567	0	32834	32628	30492	
2568	0	32772	30840	30514	
2569	0	32776	31544	30514	
2570	0	32556	32818	30524	
2571	0	33156	33108	30532	
2572	0	33968	30654	30528	
2573	0	33068	32556	30528	
2574	0	32224	32420	30516	
2575	0	31860	31660	30486	
2576	0	31800	36321	30504	
2577	0	32104	34340	30496	
2578	0	32268	32266	30472	
2579	0	32372	31212	30470	
2580	0	32401	32492	30480	
2581	0	32460	33402	30486	
2582	0	32834	33620	30525	
2583	0	33060	33792	30540	
2584	0	33156	33172	30564	
2585	0	33852	31432	30576	
2586	0	33940	32032	30576	
2587	0	33629	32612	30575	
2588	0	33376	32293	30590	
2589	0	33698	34430	30600	
2590	0	33282	33364	30600	
2591	0	32708	31239	30608	
2592	0	32432	32612	30616	
2593	0	32132	28540	30597	
2594	0	31980	32024	30605	
2595	0	31922	38080	30596	
2596	0	31832	36345	30620	
2597	0	32040	33464	30616	
2598	0	32304	33067	30623	
2599	0	32484	33038	30636	
2600	0	32704	31605	30626	
2601	0	32756	32356	30609	
2602	0	33164	32002	30604	
2603	0	33276	32541	30629	
2604	0	33236	33525	30629	
2605	0	33436	32159	30650	
2606	0	33417	32775	30656	
2607	0	33372	31042	30648	
2608	0	33316	30160	30639	
2609	0	33092	34260	30636	
2610	0	32836	37517	30644	
2611	0	32665	36276	30652	
2612	0	32444	29612	30644	
2613	0	32312	30440	30633	
2614	0	32244	29056	30625	
2615	0	32072	30810	30632	
2616	0	32156	35552	30614	
2617	0	32240	34817	30624	
2618	0	32380	35096	30628	
2619	0	32592	34164	30616	
2620	0	32776	33540	30624	
2621	0	32929	32760	30625	
2622	0	33140	32789	30636	
2623	0	33312	32292	30633	
2624	0	33293	31988	30636	
2625	0	33440	32429	30620	
2626	0	33360	31553	30618	
2627	0	33300	34216	30608	
2628	0	33248	32496	30606	
2629	0	33100	30182	30608	
2630	0	32748	31020	30604	
2631	0	32664	33381	30608	
2632	0	32432	34464	30612	
2633	0	32095	35436	30600	
2634	0	32068	34767	30598	
2635	0	32016	32560	30596	
2636	0	32192	32600	30600	
2637	0	32554	32040	30598	
2638	0	32816	30325	30589	
2639	0	33048	32169	30577	
2640	0	33044	33908	30572	
2641	0	32900	33285	30554	
2642	0	32872	32128	30525	
2643	0	32986	30817	30524	
2644	0	33269	29310	30513	
2645	0	33232	33512	30502	
2646	0	33192	35836	30498	
2647	0	33252	34728	30516	
2648	0	33716	32982	30510	
2649	0	33332	34564	30524	
2650	0	32732	34736	30521	
2651	0	32361	32592	30528	
2652	0	32188	31148	30534	
2653	0	31940	32473	30512	
2654	0	31916	33786	30520	
2655	0	32192	30993	30516	
2656	0	32908	31880	30518	
2657	0	32545	34504	30508	
2658	0	32512	35004	30492	
2659	0	32888	32809	30498	
2660	0	32852	31361	30500	
2661	0	32608	32310	30504	
2662	0	32660	33543	30496	
2663	0	32788	32356	30478	
2664	0	33176	30640	30454	
2665	0	33440	31600	30436	
2666	0	33508	32700	30432	
2667	0	33320	33474	30444	
2668	0	33540	33888	30484	
2669	0	33356	32925	30488	
2670	0	32808	30674	30508	
2671	0	32604	35041	30524	
2672	0	32421	35577	30538	
2673	0	32356	33621	30565	
2674	0	32268	32776	30574	
2675	0	32072	32069	30560	
2676	0	32112	31788	30572	
2677	0	32230	31510	30585	
2678	0	32280	30332	30593	
2679	0	32442	32576	30586	
2680	0	32638	32361	30568	
2681	0	32836	35068	30582	
2682	0	33020	31106	30568	
2683	0	33129	34088	30540	
2684	0	33276	35540	30548	
2685	0	33200	32962	30538	
2686	0	33280	33792	30537	
2687	0	33300	34372	30556	
2688	0	33185	31536	30574	
2689	0	32929	32852	30576	
2690	0	33368	34226	30581	
2691	0	33480	31273	30572	
2692	0	32896	35088	30568	
2693	0	32304	33374	30588	
2694	0	32020	31674	30572	
2695	0	31984	31232	30560	
2696	0	32016	31188	30562	
2697	0	32164	31596	30572	
2698	0	32312	33182	30577	
2699	0	32484	34343	30596	
2700	0	32668	33080	30590	
2701	0	32872	32924	30593	
2702	0	32973	34084	30620	
2703	0	33220	32856	30626	
2704	0	33330	32212	30612	
2705	0	33362	31137	30612	
2706	0	33364	30296	30620	
2707	0	33396	33054	30632	
2708	0	33300	34048	30650	
2709	0	32996	34372	30664	
2710	0	32588	33500	30680	
2711	0	32380	32440	30696	
2712	0	32184	32248	30684	
2713	0	32097	31714	30677	
2714	0	32128	30320	30660	
2715	0	32760	32389	30680	
2716	0	33005	36632	30680	
2717	0	32964	35268	30661	
2718	0	32368	32617	30669	
2719	0	32356	32864	30664	
2720	0	32704	33076	30660	
2721	0	32740	32564	30658	
2722	0	32852	33256	30658	
2723	0	33076	33362	30640	
2724	0	33276	33933	30636	
2725	0	33495	30240	30648	
2726	0	33368	30212	30678	
2727	0	33284	32791	30688	
2728	0	33361	31696	30660	
2729	0	33144	33558	30680	
2730	0	33060	35804	30664	
2731	0	32849	34377	30688	
2732	0	32469	32812	30684	
2733	0	32200	31789	30689	
2734	0	32136	32900	30704	
2735	0	32008	31761	30697	
2736	0	31976	32406	30685	
2737	0	32156	35130	30688	
2738	0	32340	33160	30701	
2739	0	32448	31353	30692	
2740	0	32732	33260	30686	
2741	0	32869	34193	30676	
2742	0	33092	33237	30663	
2743	0	33336	32112	30668	
2744	0	33352	32393	30657	
2745	0	33436	32740	30652	
2746	0	33392	32262	30644	
2747	0	33384	32806	30633	
2748	0	33188	31776	30626	
2749	0	33052	27972	30616	
2750	0	32944	28796	30608	
2751	0	33032	36076	30625	
2752	0	32612	37952	30630	
2753	0	32204	36705	30620	
2754	0	31997	31974	30612	
2755	0	32068	30516	30605	
2756	0	32192	30572	30609	
2757	0	32336	34424	30593	
2758	0	32510	33799	30588	
2759	0	32560	33397	30600	
2760	0	32660	34032	30580	
2761	0	32638	32476	30556	
2762	0	32904	32801	30564	
2763	0	32980	32688	30568	
2764	0	33040	32061	30544	
2765	0	33236	34812	30532	
2766	0	33508	34292	30520	
2767	0	33432	33088	30516	
2768	0	33704	32644	30524	
2769	0	33641	32292	30516	
2770	0	33196	32150	30513	
2771	0	32656	32384	30518	
2772	0	32304	32756	30511	
2773	0	32076	31182	30526	
2774	0	31928	31349	30532	
2775	0	31884	33264	30528	
2776	0	32000	32066	30530	
2777	0	32282	32519	30514	
2778	0	32676	33981	30502	
2779	0	32718	33376	30514	
2780	0	32920	30799	30512	
2781	0	33380	34033	30500	
2782	0	33268	35296	30524	
2783	0	33108	32852	30512	
2784	0	32952	30924	30518	
2785	0	32896	32840	30537	
2786	0	32940	33048	30524	
2787	0	33024	32277	30524	
2788	0	33122	32945	30512	
2789	0	33668	32079	30517	
2790	0	33598	33924	30538	
2791	0	32940	33436	30530	
2792	0	32216	32645	30565	
2793	0	31912	33536	30577	
2794	0	31937	33380	30558	
2795	0	32100	32128	30562	
2796	0	32158	31460	30564	
2797	0	32304	30712	30548	
2798	0	32708	27500	30544	
2799	0	32888	32984	30552	
2800	0	32928	42556	30562	
2801	0	32840	38564	30560	
2802	0	33096	31317	30546	
2803	0	33184	30768	30550	
2804	0	33184	30888	30554	
2805	0	33232	30264	30560	
2806	0	33352	32084	30544	
2807	0	33312	31357	30568	
2808	0	33294	31409	30560	
2809	0	33136	32237	30583	
2810	0	32896	35848	30578	
2811	0	32657	36969	30588	
2812	0	32504	35880	30622	
2813	0	32364	33598	30604	
2814	0	31924	33239	30616	
2815	0	31742	32188	30605	
2816	0	31920	32356	30598	
2817	0	32236	32206	30588	
2818	0	32418	30764	30604	
2819	0	33204	33041	30592	
2820	0	33088	32912	30574	
2821	0	33058	30768	30564	
2822	0	33122	31984	30580	
2823	0	33164	33708	30601	
2824	0	33185	32620	30606	
2825	0	33208	33448	30596	
2826	0	33273	33412	30608	
2827	0	33282	34004	30614	
2828	0	33262	34160	30629	
2829	0	33116	32468	30620	
2830	0	32905	31953	30620	
2831	0	32724	33420	30602	
2832	0	32504	33711	30616	
2833	0	32384	29340	30617	
2834	0	32276	31014	30620	
2835	0	32000	33268	30641	
2836	0	32044	33204	30629	
2837	0	32108	33104	30632	
2838	0	32184	32080	30632	
2839	0	32352	31245	30616	
2840	0	32740	33776	30607	
2841	0	33060	33681	30615	
2842	0	33480	34446	30604	
2843	0	33476	33788	30612	
2844	0	33410	31892	30598	
2845	0	33396	33537	30616	
2846	0	33220	32564	30608	
2847	0	33204	32452	30604	
2848	0	33205	32484	30610	
2849	0	33139	31885	30632	
2850	0	32948	33116	30636	
2851	0	32748	31901	30656	
2852	0	32528	30591	30644	
2853	0	32376	31540	30660	
2854	0	32292	35207	30652	
2855	0	32088	32468	30636	
2856	0	32120	31353	30632	
2857	0	32181	34981	30628	
2858	0	32392	29900	30636	
2859	0	32464	30172	30596	
2860	0	32396	33996	30589	
2861	0	32506	35728	30569	
2862	0	32360	36176	30546	
2863	0	32540	34823	30557	
2864	0	32876	33740	30552	
2865	0	33917	34260	30528	
2866	0	34878	34566	30518	
2867	0	34401	32964	30508	
2868	0	33836	31452	30485	
2869	0	33396	31840	30462	
2870	0	32712	31712	30453	
2871	0	32408	32176	30473	
2872	0	32316	32031	30493	
2873	0	32024	32334	30482	
2874	0	31900	32104	30504	
2875	0	32184	31814	30500	
2876	0	32320	32236	30516	
2877	0	32468	33996	30538	
2878	0	32476	29816	30501	
2879	0	32536	32258	30484	
2880	0	32696	33388	30503	
2881	0	32688	33576	30500	
2882	0	32801	33820	30508	
2883	0	32912	32356	30524	
2884	0	33104	34060	30520	
2885	0	33256	34108	30528	
2886	0	33220	31293	30532	
2887	0	33276	30512	30536	
2888	0	33573	28963	30530	
2889	0	33484	36460	30560	
2890	0	33008	33973	30549	
2891	0	32684	33696	30540	
2892	0	32424	34376	30566	
2893	0	32324	32233	30576	
2894	0	32189	32380	30588	
2895	0	32060	33200	30597	
2896	0	32064	33818	30613	
2897	0	32140	35076	30601	
2898	0	32310	33984	30598	
2899	0	32604	31224	30588	
2900	0	32780	28484	30606	
2901	0	32884	29612	30624	
2902	0	33080	34405	30620	
2903	0	33199	34697	30606	
2904	0	33240	35206	30600	
2905	0	33256	34324	30604	
2906	0	33296	33836	30608	
2907	0	33540	32570	30600	
2908	0	33508	32082	30588	
2909	0	33360	32134	30565	
2910	0	33120	31867	30592	
2911	0	32764	32602	30591	
2912	0	32472	33357	30580	
2913	0	32284	32129	30618	
2914	0	32164	31502	30628	
2915	0	32164	32344	30648	
2916	0	32080	32368	30650	
2917	0	32100	32381	30658	
2918	0	32160	33380	30686	
2919	0	32447	30620	30692	
2920	0	32596	34676	30656	
2921	0	32772	35144	30624	
2922	0	32992	32644	30616	
2923	0	33196	32474	30616	
2924	0	33440	32114	30620	
2925	0	33516	31318	30616	
2926	0	33464	32006	30619	
2927	0	33184	35240	30610	
2928	0	33176	33914	30617	
2929	0	33036	33725	30620	
2930	0	33285	34097	30629	
2931	0	33080	30500	30636	
2932	0	32456	31686	30649	
2933	0	32270	32116	30661	
2934	0	32132	32773	30648	
2935	0	32048	32684	30661	
2936	0	32196	34242	30648	
2937	0	32252	29908	30654	
2938	0	32296	30933	30660	
2939	0	32356	36096	30661	
2940	0	32572	36072	30652	
2941	0	32796	34308	30646	
2942	0	32996	32428	30644	
2943	0	33292	31772	30596	
2944	0	33716	33873	30596	
2945	0	33536	33469	30596	
2946	0	33176	32464	30596	
2947	0	33144	32420	30584	
2948	0	33033	33526	30568	
2949	0	32892	32169	30588	
2950	0	32693	32740	30593	
2951	0	33216	31428	30572	
2952	0	33009	31233	30582	
2953	0	32384	31513	30568	
2954	0	32216	31800	30550	
2955	0	32188	31791	30557	
2956	0	32208	35304	30569	
2957	0	32248	36497	30590	
2958	0	32188	33565	30588	
2959	0	32426	31256	30576	
2960	0	32748	33444	30560	
2961	0	33052	29892	30556	
2962	0	33021	32544	30548	
2963	0	33005	34426	30534	
2964	0	32692	33674	30520	
2965	0	32832	34636	30510	
2966	0	33045	33740	30508	
2967	0	33100	32316	30493	
2968	0	33248	31460	30508	
2969	0	34524	31208	30520	
2970	0	33816	30176	30506	
2971	0	33070	34969	30492	
2972	0	32716	31480	30496	
2973	0	32324	31932	30508	
2974	0	32032	32093	30548	
2975	0	32076	35212	30570	
2976	0	32036	34961	30580	
2977	0	32048	34262	30570	
2978	0	32120	33181	30574	
2979	0	32374	32691	30596	
2980	0	32564	29252	30594	
2981	0	32777	30328	30612	
2982	0	32876	34324	30608	
2983	0	33088	34706	30591	
2984	0	33200	35966	30590	
2985	0	33356	32569	30596	
2986	0	33404	31905	30592	
2987	0	33380	33349	30598	
2988	0	33408	34277	30588	
2989	0	33200	33638	30609	
2990	0	32944	31800	30617	
2991	0	32888	31802	30604	
2992	0	32632	32692	30620	
2993	0	32200	32008	30628	
2994	0	31832	32608	30628	
2995	0	32380	31561	30612	
2996	0	32524	30508	30596	
2997	0	32276	32884	30592	
2998	0	32264	34976	30588	
2999	0	32404	35873	30564	
3000	0	32572	34456	30568	
3001	0	32760	33468	30580	
3002	0	32928	32704	30573	
3003	0	33148	32548	30564	
3004	0	33224	33502	30570	
3005	0	33204	33125	30564	
3006	0	33344	32200	30564	
3007	0	33352	32158	30551	
3008	0	33252	32556	30548	
3009	0	33260	32162	30569	
3010	0	33460	32305	30565	
3011	0	33073	32340	30560	
3012	0	32568	32372	30570	
3013	0	32245	32989	30564	
3014	0	32016	32486	30580	
3015	0	31992	32337	30588	
3016	0	31920	32668	30585	
3017	0	32100	32478	30604	
3018	0	32353	32724	30594	
3019	0	32516	32894	30596	
3020	0	32984	32664	30606	
3021	0	32864	32429	30601	
3022	0	32904	32548	30601	
3023	0	33184	32440	30593	
3024	0	33320	33636	30600	
3025	0	33496	33408	30613	
3026	0	33556	34268	30636	
3027	0	33420	33004	30644	
3028	0	33256	31280	30632	
3029	0	33290	32600	30636	
3030	0	33160	33296	30654	
3031	0	32754	31646	30632	
3032	0	32421	30174	30618	
3033	0	32120	35128	30604	
3034	0	32104	35896	30612	
3035	0	32068	31180	30636	
3036	0	32108	32473	30656	
3037	0	32236	32486	30647	
3038	0	32518	31054	30628	
3039	0	32612	30696	30627	
3040	0	32500	31645	30613	
3041	0	32600	31650	30586	
3042	0	32892	32712	30588	
3043	0	33108	36684	30604	
3044	0	33176	37288	30598	
3045	0	33392	36864	30616	
3046	0	33316	35908	30608	
3047	0	33208	32968	30630	
3048	0	33217	29752	30604	
3049	0	33244	28702	30604	
3050	0	33140	31508	30616	
3051	0	33193	33269	30620	
3052	0	33120	33479	30612	
3053	0	32796	31492	30616	
3054	0	32190	32119	30628	
3055	0	31848	32124	30632	
3056	0	31965	30572	30632	
3057	0	32204	32332	30648	
3058	0	32328	34288	30636	
3059	0	32353	37522	30652	
3060	0	32560	35444	30660	
3061	0	32784	33418	30686	
3062	0	33076	31266	30696	
3063	0	33248	30206	30690	
3064	0	33210	31956	30681	
3065	0	33460	33712	30677	
3066	0	33486	33277	30682	
3067	0	33264	33352	30685	
3068	0	33124	31968	30688	
3069	0	33116	30756	30693	
3070	0	32864	31447	30693	
3071	0	32696	34376	30696	
3072	0	32476	34333	30705	
3073	0	32248	32548	30704	
3074	0	32136	33050	30704	
3075	0	32298	33960	30692	
3076	0	32148	32852	30692	
3077	0	31920	32824	30677	
3078	0	32284	34468	30668	
3079	0	32884	31160	30662	
3080	0	32649	32021	30659	
3081	0	32780	32389	30640	
3082	0	33340	33512	30644	
3083	0	33600	31976	30640	
3084	0	33336	31400	30612	
3085	0	33121	33228	30624	
3086	0	33137	34410	30628	
3087	0	33184	32470	30626	
3088	0	33312	34121	30608	
3089	0	33176	33328	30589	
3090	0	33040	30016	30609	
3091	0	32689	32366	30605	
3092	0	32320	34076	30608	
3093	0	32284	30772	30612	
3094	0	32196	36244	30592	
3095	0	32028	35292	30586	
3096	0	32112	35816	30580	
3097	0	32316	32764	30564	
3098	0	32616	31412	30548	
3099	0	32828	32808	30540	
3100	0	32857	33792	30542	
3101	0	32920	31604	30553	
3102	0	33121	30173	30548	
3103	0	33248	32842	30552	
3104	0	33304	34865	30533	
3105	0	33408	33400	30523	
3106	0	33380	31716	30528	
3107	0	33160	32432	30544	
3108	0	33048	33643	30516	
3109	0	32976	31885	30516	
3110	0	32880	30228	30502	
3111	0	32740	33492	30524	
3112	0	32568	33933	30532	
3113	0	32136	35016	30546	
3114	0	32048	33224	30576	
3115	0	32036	32072	30588	
3116	0	32078	31970	30589	
3117	0	32240	33508	30606	
3118	0	32772	33569	30594	
3119	0	32964	33150	30582	
3120	0	32744	32580	30597	
3121	0	32740	32697	30600	
3122	0	32952	33116	30612	
3123	0	33124	33100	30588	
3124	0	33348	33258	30604	
3125	0	33264	32695	30620	
3126	0	33288	32561	30620	
3127	0	33208	31665	30613	
3128	0	33165	33216	30600	
3129	0	33100	34805	30644	
3130	0	32972	31092	30629	
3131	0	32700	31496	30636	
3132	0	32396	33287	30632	
3133	0	32408	31052	30620	
3134	0	32476	30508	30633	
3135	0	32480	31984	30620	
3136	0	32376	32690	30622	
3137	0	32352	34164	30650	
3138	0	32376	36080	30644	
3139	0	32408	35832	30634	
3140	0	32512	33736	30640	
3141	0	32730	33388	30625	
3142	0	32856	32340	30628	
3143	0	33092	32321	30624	
3144	0	33272	32648	30632	
3145	0	33288	31220	30649	
3146	0	33388	31320	30632	
3147	0	33410	31308	30636	
3148	0	33356	32757	30636	
3149	0	33160	34900	30632	
3150	0	32902	34453	30641	
3151	0	32560	32585	30648	
3152	0	32304	31972	30665	
3153	0	32124	32620	30666	
3154	0	32072	34716	30656	
3155	0	32292	35425	30642	
3156	0	32668	36856	30653	
3157	0	32648	36648	30646	
3158	0	32284	34488	30638	
3159	0	32348	34736	30624	
3160	0	32440	34360	30633	
3161	0	33036	32936	30619	
3162	0	33120	31984	30620	
3163	0	33028	31418	30604	
3164	0	33168	29980	30620	
3165	0	33340	31342	30636	
3166	0	33456	31174	30636	
3167	0	33400	29838	30640	
3168	0	33364	32708	30632	
3169	0	33204	33489	30629	
3170	0	32824	35168	30630	
3171	0	32524	33498	30636	
3172	0	32526	30384	30648	
3173	0	32600	32760	30650	
3174	0	32504	33562	30624	
3175	0	32316	31780	30612	
3176	0	32397	30504	30608	
3177	0	32232	31147	30617	
3178	0	32278	31184	30613	
3179	0	32296	31680	30605	
3180	0	32428	32380	30613	
3181	0	32664	32733	30637	
3182	0	32912	32827	30626	
3183	0	33090	34201	30622	
3184	0	33346	31872	30636	
3185	0	33408	29746	30645	
3186	0	33276	31784	30640	
3187	0	33296	31844	30644	
3188	0	33180	32933	30644	
3189	0	33024	31768	30656	
3190	0	32660	32324	30680	
3191	0	32496	32986	30674	
3192	0	32348	32796	30656	
3193	0	32572	35232	30650	
3194	0	32756	35612	30646	
3195	0	33077	35194	30646	
3196	0	32792	31556	30641	
3197	0	32472	30831	30640	
3198	0	32272	31670	30643	
3199	0	32152	32892	30620	
3200	0	32152	32861	30580	
3201	0	32468	31712	30588	
3202	0	32864	32249	30588	
3203	0	33092	32844	30576	
3204	0	32996	33154	30576	
3205	0	33472	33024	30556	
3206	0	33732	32672	30558	
3207	0	33160	32468	30548	
3208	0	33252	32438	30544	
3209	0	33240	30932	30556	
3210	0	33173	31908	30560	
3211	0	32838	34646	30574	
3212	0	32560	33828	30577	
3213	0	32440	36165	30566	
3214	0	32400	31980	30574	
3215	0	32160	31428	30559	
3216	0	32212	29776	30552	
3217	0	32400	32886	30548	
3218	0	32101	32542	30548	
3219	0	32156	33392	30533	
3220	0	32380	34660	30524	
3221	0	32636	34997	30526	
3222	0	32889	32926	30530	
3223	0	33445	32396	30533	
3224	0	33788	32839	30544	
3225	0	33456	32611	30552	
3226	0	33400	31948	30569	
3227	0	33292	32334	30556	
3228	0	33260	30308	30562	
3229	0	33016	30664	30572	
3230	0	32828	35044	30584	
3231	0	32736	36938	30620	
3232	0	32564	33484	30605	
3233	0	32413	33080	30598	
3234	0	32332	33346	30576	
3235	0	32280	33176	30582	
3236	0	32117	28961	30606	
3237	0	32141	31362	30606	
3238	0	32200	33208	30600	
3239	0	32376	31820	30591	
3240	0	32612	34560	30588	
3241	0	32756	35452	30574	
3242	0	32955	33116	30580	
3243	0	33092	33484	30560	
3244	0	33148	32775	30556	
3245	0	33064	32453	30568	
3246	0	33080	31972	30576	
3247	0	33189	32772	30581	
3248	0	33304	33342	30588	
3249	0	33242	32524	30584	
3250	0	33640	30000	30598	
3251	0	33620	33870	30599	
3252	0	33093	33856	30614	
3253	0	32548	32852	30604	
3254	0	32188	32622	30604	
3255	0	31944	32572	30598	
3256	0	31820	33639	30600	
3257	0	31828	33758	30574	
3258	0	31976	32612	30577	
3259	0	32246	31608	30568	
3260	0	32616	31520	30556	
3261	0	32968	32238	30512	
3262	0	33296	33084	30524	
3263	0	33348	32624	30513	
3264	0	33208	32340	30517	
3265	0	33224	32289	30516	
3266	0	33352	33070	30528	
3267	0	33304	34340	30536	
3268	0	33276	33768	30564	
3269	0	33149	33664	30564	
3270	0	32944	33564	30565	
3271	0	32817	31988	30592	
3272	0	32592	29276	30572	
3273	0	32424	30205	30590	
3274	0	32324	33020	30582	
3275	0	32184	37280	30572	
3276	0	32092	34364	30564	
3277	0	32240	35340	30572	
3278	0	32257	32183	30568	
3279	0	32370	30473	30569	
3280	0	32632	33172	30572	
3281	0	32780	33480	30588	
3282	0	32941	32981	30572	
3283	0	33068	32178	30568	
3284	0	33196	31756	30564	
3285	0	33281	32584	30572	
3286	0	33452	33437	30588	
3287	0	33428	31720	30592	
3288	0	33353	33216	30586	
3289	0	33269	32004	30604	
3290	0	33152	31178	30588	
3291	0	32924	32896	30588	
3292	0	32712	34548	30570	
3293	0	32208	34476	30593	
3294	0	31996	32860	30604	
3295	0	31940	33404	30607	
3296	0	31953	33253	30576	
3297	0	32092	32794	30580	
3298	0	32552	31153	30592	
3299	0	32888	33808	30600	
3300	0	32728	32457	30608	
3301	0	32688	32388	30604	
3302	0	32756	32872	30604	
3303	0	33060	31652	30589	
3304	0	33228	32352	30606	
3305	0	32988	33373	30589	
3306	0	33400	33480	30580	
3307	0	34308	33303	30565	
3308	0	34048	32828	30572	
3309	0	33261	32132	30608	
3310	0	32848	32272	30599	
3311	0	32760	32581	30590	
3312	0	32516	32868	30605	
3313	0	32349	33218	30618	
3314	0	32204	32480	30632	
3315	0	32064	32336	30631	
3316	0	32012	31804	30644	
3317	0	31860	32236	30660	
3318	0	32004	34985	30670	
3319	0	32274	34321	30688	
3320	0	32512	32008	30684	
3321	0	32577	30388	30689	
3322	0	33038	31132	30668	
3323	0	33572	33364	30664	
3324	0	33416	34605	30648	
3325	0	33552	33584	30637	
3326	0	33620	32082	30644	
3327	0	33572	34861	30636	
3328	0	33440	34624	30628	
3329	0	33284	31152	30628	
3330	0	32828	33288	30636	
3331	0	32536	32640	30649	
3332	0	32494	33677	30632	
3333	0	32320	34092	30640	
3334	0	32061	32592	30640	
3335	0	31844	32032	30632	
3336	0	32036	32360	30636	
3337	0	32286	32361	30608	
3338	0	32268	32246	30624	
3339	0	32432	32180	30626	
3340	0	32868	33030	30621	
3341	0	33117	32912	30621	
3342	0	33176	32288	30617	
3343	0	32918	33424	30604	
3344	0	32840	33716	30604	
3345	0	33264	32700	30628	
3346	0	33608	33024	30617	
3347	0	33664	32692	30616	
3348	0	33388	32469	30600	
3349	0	33384	33042	30596	
3350	0	33032	32454	30577	
3351	0	32726	32033	30573	
3352	0	32572	32292	30562	
3353	0	32396	32750	30568	
3354	0	32228	32224	30578	
3355	0	32166	32064	30589	
3356	0	32060	33745	30588	
3357	0	32080	34889	30588	
3358	0	32084	33441	30594	
3359	0	32400	32468	30602	
3360	0	32468	32258	30600	
3361	0	32662	32708	30608	
3362	0	32800	32688	30597	
3363	0	32976	33336	30610	
3364	0	33437	32356	30610	
3365	0	33825	33030	30604	
3366	0	33428	32740	30591	
3367	0	33285	31908	30608	
3368	0	34000	31992	30610	
3369	0	33880	33924	30614	
3370	0	32948	33855	30622	
3371	0	32574	33908	30642	
3372	0	32424	33804	30644	
3373	0	32324	31052	30628	
3374	0	32062	32420	30640	
3375	0	32001	34669	30636	
3376	0	31884	32081	30627	
3377	0	31985	33288	30628	
3378	0	32470	32382	30636	
3379	0	32460	33094	30644	
3380	0	32520	32732	30633	
3381	0	32752	33084	30620	
3382	0	33460	33423	30605	
3383	0	33140	33328	30608	
3384	0	33065	34996	30620	
3385	0	33106	29996	30628	
3386	0	33400	31188	30628	
3387	0	33868	31680	30594	
3388	0	33540	31636	30581	
3389	0	33190	34161	30569	
3390	0	33152	34072	30572	
3391	0	32928	33532	30581	
3392	0	32536	34221	30599	
3393	0	32300	33592	30600	
3394	0	32128	31402	30599	
3395	0	32076	31724	30596	
3396	0	31984	32618	30604	
3397	0	32084	33082	30610	
3398	0	32124	32058	30640	
3399	0	32217	30880	30648	
3400	0	32517	31556	30644	
3401	0	32850	33908	30628	
3402	0	33072	34976	30596	
3403	0	33440	33652	30556	
3404	0	33525	31308	30520	
3405	0	33224	34196	30553	
3406	0	33228	34252	30588	
3407	0	33208	32824	30593	
3408	0	33308	33388	30632	
3409	0	33232	33244	30664	
3410	0	33068	32920	30673	
3411	0	32944	32100	30668	
3412	0	32720	31524	30684	
3413	0	32368	31537	30696	
3414	0	32128	29544	30672	
3415	0	32168	31936	30684	
3416	0	32288	35552	30676	
3417	0	32293	33793	30675	
3418	0	32276	32437	30658	
3419	0	32360	31908	30640	
3420	0	32452	33000	30628	
3421	0	32764	34325	30625	
3422	0	32933	33978	30604	
3423	0	33096	33191	30622	
3424	0	33252	33756	30631	
3425	0	33316	32832	30644	
3426	0	33468	32333	30653	
3427	0	33264	32368	30668	
3428	0	33036	31992	30673	
3429	0	33049	33109	30688	
3430	0	32920	34445	30700	
3431	0	32780	30812	30700	
3432	0	33144	26822	30700	
3433	0	33216	28586	30712	
3434	0	32412	37127	30716	
3435	0	32104	38988	30716	
3436	0	32320	36845	30700	
3437	0	32092	34272	30681	
3438	0	32140	32134	30681	
3439	0	32193	31365	30661	
3440	0	32484	31910	30661	
3441	0	32692	31073	30664	
3442	0	32752	30424	30672	
3443	0	33020	34268	30654	
3444	0	33186	36396	30656	
3445	0	33185	34100	30636	
3446	0	33300	32960	30628	
3447	0	33325	31512	30644	
3448	0	33292	31836	30629	
3449	0	33384	32630	30623	
3450	0	33630	32136	30622	
3451	0	33268	32872	30652	
3452	0	32682	32504	30648	
3453	0	32372	32622	30628	
3454	0	32360	32677	30624	
3455	0	31908	32879	30625	
3456	0	31924	32884	30636	
3457	0	32084	32504	30629	
3458	0	31960	32960	30620	
3459	0	32208	32792	30622	
3460	0	32974	32580	30620	
3461	0	33170	33525	30604	
3462	0	32772	33345	30585	
3463	0	32980	32552	30596	
3464	0	33129	32292	30601	
3465	0	33376	31909	30608	
3466	0	33256	30552	30604	
3467	0	33108	32838	30602	
3468	0	33208	33870	30600	
3469	0	33232	32997	30607	
3470	0	33168	35254	30616	
3471	0	32948	33819	30624	
3472	0	32776	31944	30628	
3473	0	32620	32672	30632	
3474	0	32393	32468	30650	
3475	0	32216	34376	30654	
3476	0	32016	33536	30674	
3477	0	32304	31588	30648	
3478	0	32576	29963	30640	
3479	0	32668	32584	30640	
3480	0	32488	33160	30656	
3481	0	32268	33804	30664	
3482	0	32476	33480	30657	
3483	0	32844	33901	30676	
3484	0	33052	32488	30682	
3485	0	33144	31800	30690	
3486	0	34050	33006	30692	
3487	0	34196	33264	30692	
3488	0	33652	32833	30689	
3489	0	33247	32708	30684	
3490	0	32932	32194	30708	
3491	0	32618	32588	30709	
3492	0	32536	32628	30684	
3493	0	32229	32998	30692	
3494	0	32140	33220	30696	
3495	0	32004	33134	30694	
3496	0	31845	32774	30702	
3497	0	31900	31772	30716	
3498	0	32164	31388	30696	
3499	0	32304	32940	30688	
3500	0	32788	34801	30686	
3501	0	33158	34224	30672	
3502	0	32884	33798	30664	
3503	0	33088	32245	30656	
3504	0	33180	31132	30637	
3505	0	33396	31872	30616	
3506	0	33736	32372	30597	
3507	0	33616	30394	30586	
3508	0	33372	31196	30553	
3509	0	33140	34693	30569	
3510	0	32944	36293	30596	
3511	0	32861	36266	30624	
3512	0	32812	33192	30614	
3513	0	32420	31636	30608	
3514	0	32128	31530	30628	
3515	0	32212	32452	30606	
3516	0	32160	33017	30620	
3517	0	32144	33775	30640	
3518	0	32128	32692	30644	
3519	0	32248	32740	30629	
3520	0	32564	31604	30642	
3521	0	32792	29540	30650	
3522	0	32913	36168	30660	
3523	0	33093	34949	30655	
3524	0	33240	33304	30646	
3525	0	33324	31808	30650	
3526	0	33404	32566	30652	
3527	0	33385	33312	30660	
3528	0	33332	31566	30656	
3529	0	33192	32272	30645	
3530	0	33020	32344	30636	
3531	0	32896	33453	30624	
3532	0	32632	32020	30634	
3533	0	32616	32377	30660	
3534	0	32590	33534	30660	
3535	0	32224	32996	30668	
3536	0	32084	33161	30661	
3537	0	32044	33005	30656	
3538	0	32056	32320	30646	
3539	0	32094	32372	30642	
3540	0	32296	34281	30652	
3541	0	32660	33953	30646	
3542	0	33408	32838	30654	
3543	0	33544	32552	30636	
3544	0	33488	32344	30639	
3545	0	33516	32680	30636	
3546	0	33540	31469	30652	
3547	0	33412	31489	30692	
3548	0	33164	33828	30698	
3549	0	32896	34972	30696	
3550	0	32884	34980	30696	
3551	0	32796	32256	30692	
3552	0	32576	30476	30700	
3553	0	32424	32280	30700	
3554	0	32256	33772	30693	
3555	0	32136	33829	30700	
3556	0	32024	32456	30696	
3557	0	32248	32004	30697	
3558	0	32392	31633	30676	
3559	0	32468	31808	30676	
3560	0	32422	33700	30668	
3561	0	32617	34808	30652	
3562	0	32808	33521	30653	
3563	0	32944	30884	30656	
3564	0	33360	31192	30664	
3565	0	33616	35900	30686	
3566	0	33549	33076	30680	
3567	0	33316	33108	30672	
3568	0	33205	32322	30680	
3569	0	33032	32125	30686	
3570	0	32888	32169	30688	
3571	0	32580	30489	30696	
3572	0	32369	34300	30708	
3573	0	32856	33380	30689	
3574	0	32684	29795	30692	
3575	0	32616	33456	30680	
3576	0	32724	33181	30684	
3577	0	32612	29828	30666	
3578	0	32408	34856	30662	
3579	0	32360	38276	30664	
3580	0	32357	32764	30670	
3581	0	32324	34952	30672	
3582	0	32408	31972	30672	
3583	0	32616	29593	30688	
3584	0	33156	33284	30672	
3585	0	33317	34292	30668	
3586	0	33476	32788	30648	
3587	0	33692	32420	30654	
3588	0	33520	32454	30672	
3589	0	33268	31954	30652	
3590	0	32876	31156	30644	
3591	0	32952	32424	30636	
3592	0	33084	34372	30618	
3593	0	32772	33751	30630	
3594	0	32280	32446	30608	
3595	0	32008	31636	30604	
3596	0	31844	32620	30596	
3597	0	31940	32945	30596	
3598	0	32184	31776	30617	
3599	0	32248	30806	30629	
3600	0	32440	33218	30608	
3601	0	32578	34764	30612	
3602	0	32930	35978	30632	
3603	0	33080	33453	30620	
3604	0	33176	33340	30628	
3605	0	33260	32880	30609	
3606	0	33628	32692	30607	
3607	0	33648	31508	30600	
3608	0	33413	32958	30582	
3609	0	33228	33209	30578	
3610	0	33009	33644	30567	
3611	0	32772	32553	30562	
3612	0	32504	31600	30564	
3613	0	32336	31564	30564	
3614	0	32257	30574	30588	
3615	0	32301	32060	30605	
3616	0	32226	35670	30628	
3617	0	32412	34612	30630	
3618	0	32624	33525	30628	
3619	0	32612	33416	30628	
3620	0	32600	32448	30620	
3621	0	32572	31428	30609	
3622	0	32744	33804	30612	
3623	0	33000	32016	30624	
3624	0	33097	31340	30624	
3625	0	33192	36124	30632	
3626	0	33316	31792	30628	
3627	0	33220	31924	30620	
3628	0	33069	32157	30600	
3629	0	32948	31828	30590	
3630	0	32824	33150	30629	
3631	0	32864	32954	30616	
3632	0	33260	33100	30620	
3633	0	33316	32976	30656	
3634	0	32844	33144	30661	
3635	0	32109	33334	30672	
3636	0	31988	32644	30679	
3637	0	32168	30788	30671	
3638	0	32312	33608	30660	
3639	0	32328	32404	30660	
3640	0	32316	33348	30670	
3641	0	32504	33536	30660	
3642	0	32788	30396	30652	
3643	0	32708	30604	30648	
3644	0	32992	33738	30660	
3645	0	33220	35560	30674	
3646	0	33384	34277	30661	
3647	0	33448	33600	30670	
3648	0	33504	33268	30684	
3649	0	33360	32556	30672	
3650	0	33284	32500	30686	
3651	0	33126	32648	30693	
3652	0	32964	32744	30708	
3653	0	32564	32094	30718	
3654	0	32204	32273	30708	
3655	0	32192	32688	30690	
3656	0	32036	30124	30692	
3657	0	32060	31528	30688	
3658	0	32145	34726	30676	
3659	0	32292	37012	30676	
3660	0	32444	34518	30656	
3661	0	32600	33314	30660	
3662	0	32833	33666	30664	
3663	0	33064	33428	30664	
3664	0	33202	32364	30659	
3665	0	33333	30540	30653	
3666	0	33421	28788	30656	
3667	0	33404	32320	30676	
3668	0	33164	32544	30668	
3669	0	32908	32440	30674	
3670	0	32872	35328	30660	
3671	0	33308	34406	30670	
3672	0	32856	32332	30664	
3673	0	32544	31862	30652	
3674	0	32856	33060	30656	
3675	0	32796	33814	30649	
3676	0	32196	33048	30628	
3677	0	31918	33420	30608	
3678	0	32060	34600	30605	
3679	0	32248	32740	30588	
3680	0	32417	29492	30588	
3681	0	32608	34108	30602	
3682	0	32788	32556	30608	
3683	0	33006	33756	30599	
3684	0	33160	32944	30598	
3685	0	33292	30684	30594	
3686	0	33440	32229	30620	
3687	0	33476	33993	30612	
3688	0	33340	33026	30616	
3689	0	33012	32704	30602	
3690	0	32902	31984	30576	
3691	0	32768	31356	30588	
3692	0	32504	31561	30596	
3693	0	32644	31631	30608	
3694	0	32864	33808	30600	
3695	0	32464	34704	30599	
3696	0	32126	34176	30600	
3697	0	32164	33920	30567	
3698	0	32324	33744	30565	
3699	0	32453	33988	30564	
3700	0	32456	33189	30567	
3701	0	32420	32456	30552	
3702	0	32592	32212	30561	
3703	0	32976	31915	30562	
3704	0	33160	31149	30594	
3705	0	33360	32196	30596	
3706	0	33848	31860	30589	
3707	0	33764	32888	30588	
3708	0	33282	31920	30573	
3709	0	32912	34616	30584	
3710	0	32855	34832	30592	
3711	0	32616	33608	30593	
3712	0	32576	30520	30604	
3713	0	32380	30964	30604	
3714	0	32684	33648	30592	
3715	0	33176	32838	30596	
3716	0	32512	32060	30573	
3717	0	32064	33858	30578	
3718	0	31842	34729	30578	
3719	0	31872	32736	30574	
3720	0	32120	34536	30573	
3721	0	32525	33381	30581	
3722	0	32809	35695	30580	
3723	0	33116	34223	30584	
3724	0	33332	31384	30560	
3725	0	33462	30352	30582	
3726	0	33540	30663	30592	
3727	0	33636	32628	30594	
3728	0	33580	31877	30600	
3729	0	33254	32162	30584	
3730	0	33012	32934	30602	
3731	0	32936	33094	30616	
3732	0	32688	32232	30613	
3733	0	32132	32650	30616	
3734	0	32064	33888	30626	
3735	0	32688	31672	30621	
3736	0	32644	33614	30631	
3737	0	32172	33254	30646	
3738	0	31900	33228	30664	
3739	0	31968	32124	30664	
3740	0	32288	32730	30640	
3741	0	32484	31244	30652	
3742	0	32700	31492	30648	
3743	0	32976	34208	30674	
3744	0	33248	34311	30680	
3745	0	33312	33798	30680	
3746	0	33636	31524	30677	
3747	0	33636	32420	30680	
3748	0	33412	35500	30680	
3749	0	33340	34072	30684	
3750	0	33160	32593	30672	
3751	0	32932	32286	30680	
3752	0	32664	32456	30689	
3753	0	32356	32132	30684	
3754	0	32012	32048	30696	
3755	0	31584	31607	30700	
3756	0	31704	32548	30692	
3757	0	31929	35281	30700	
3758	0	32133	33480	30688	
3759	0	32909	32287	30678	
3760	0	34424	31580	30656	
3761	0	33192	31344	30654	
3762	0	32644	31598	30638	
3763	0	33052	31732	30625	
3764	0	33520	34357	30632	
3765	0	33549	33512	30648	
3766	0	33428	32958	30628	
3767	0	33313	35060	30608	
3768	0	33096	35914	30608	
3769	0	32993	34122	30600	
3770	0	32960	29734	30608	
3771	0	32740	32890	30601	
3772	0	32608	34340	30608	
3773	0	32476	33517	30628	
3774	0	32260	32508	30623	
3775	0	32188	33264	30620	
3776	0	32028	33912	30608	
3777	0	32084	33332	30600	
3778	0	32228	28488	30584	
3779	0	32304	29888	30572	
3780	0	32472	32497	30560	
3781	0	32652	33752	30549	
3782	0	32844	34020	30552	
3783	0	32930	33269	30562	
3784	0	33016	31168	30566	
3785	0	33320	33568	30544	
3786	0	33424	33876	30552	
3787	0	33434	32812	30560	
3788	0	33676	32381	30577	
3789	0	33560	32860	30578	
3790	0	33172	31928	30599	
3791	0	32876	33012	30589	
3792	0	32504	33604	30584	
3793	0	32428	32344	30593	
3794	0	32408	31588	30597	
3795	0	32218	31056	30591	
3796	0	32141	31884	30574	
3797	0	32098	35144	30580	
3798	0	32217	35038	30573	
3799	0	32348	34160	30580	
3800	0	32456	31252	30584	
3801	0	32692	32616	30590	
3802	0	32864	34548	30589	
3803	0	33084	33400	30570	
3804	0	33056	32780	30558	
3805	0	33181	33028	30572	
3806	0	33196	32796	30584	
3807	0	33223	32116	30562	
3808	0	33156	32088	30566	
3809	0	33504	32621	30564	
3810	0	33612	32532	30566	
3811	0	33236	32798	30574	
3812	0	33112	33140	30572	
3813	0	32661	32954	30577	
3814	0	32388	32328	30572	
3815	0	32164	32844	30592	
3816	0	32098	32822	30580	
3817	0	31884	32584	30586	
3818	0	31872	30456	30576	
3819	0	32072	31140	30599	
3820	0	32252	34592	30598	
3821	0	32504	35744	30581	
3822	0	32816	34522	30599	
3823	0	33366	32564	30601	
3824	0	33648	30216	30614	
3825	0	33532	32142	30589	
3826	0	33256	36905	30580	
3827	0	33244	32904	30588	
3828	0	33116	33031	30596	
3829	0	32814	33046	30598	
3830	0	33112	32758	30600	
3831	0	33740	32984	30620	
3832	0	33252	32188	30624	
3833	0	32774	32444	30632	
3834	0	32376	32089	30640	
3835	0	32012	34272	30652	
3836	0	31869	32897	30664	
3837	0	31913	31706	30660	
3838	0	32092	32329	30686	
3839	0	32206	32713	30692	
3840	0	32440	32573	30710	
3841	0	32608	33000	30708	
3842	0	32764	32386	30698	
3843	0	32916	32280	30694	
3844	0	33084	31798	30700	
3845	0	33100	32452	30724	
3846	0	33076	31565	30720	
3847	0	33420	32712	30717	
3848	0	33436	33945	30712	
3849	0	33544	33843	30698	
3850	0	33528	34229	30701	
3851	0	33744	33132	30688	
3852	0	33412	32765	30681	
3853	0	32660	32860	30704	
3854	0	32112	34164	30730	
3855	0	32277	33949	30710	
3856	0	32068	32034	30680	
3857	0	31920	31974	30660	
3858	0	32072	31848	30656	
3859	0	32076	32436	30644	
3860	0	32272	33849	30624	
3861	0	32464	33104	30633	
3862	0	32761	31246	30625	
3863	0	33012	32433	30606	
3864	0	33252	31961	30621	
3865	0	33421	32692	30628	
3866	0	33285	35540	30640	
3867	0	33288	32630	30616	
3868	0	33404	32740	30613	
3869	0	33252	33904	30609	
3870	0	33204	31820	30613	
3871	0	33328	30260	30616	
3872	0	33144	34128	30632	
3873	0	32740	36220	30624	
3874	0	32380	33382	30632	
3875	0	32100	33644	30639	
3876	0	31994	32216	30636	
3877	0	32008	30780	30648	
3878	0	32088	32030	30636	
3879	0	32156	31884	30612	
3880	0	32408	33980	30608	
3881	0	32632	33368	30612	
3882	0	32836	33404	30616	
3883	0	32958	32412	30628	
3884	0	33112	31800	30620	
3885	0	33165	32518	30613	
3886	0	33284	33169	30624	
3887	0	33348	33230	30601	
3888	0	33497	32824	30605	
3889	0	33641	31678	30602	
3890	0	33280	32725	30608	
3891	0	32888	32701	30660	
3892	0	32613	33997	30656	
3893	0	32410	33553	30652	
3894	0	32304	33272	30656	
3895	0	32210	32364	30638	
3896	0	32244	31944	30613	
3897	0	32360	33540	30613	
3898	0	32420	32648	30600	
3899	0	32532	32302	30590	
3900	0	32561	32765	30597	
3901	0	32614	32845	30594	
3902	0	32596	33043	30596	
3903	0	32940	32966	30565	
3904	0	33124	33296	30558	
3905	0	33224	33020	30568	
3906	0	33360	28908	30584	
3907	0	33384	32061	30580	
3908	0	33429	31804	30584	
3909	0	33286	34204	30544	
3910	0	33040	36396	30566	
3911	0	32724	34454	30584	
3912	0	32488	33761	30576	
3913	0	32584	32884	30589	
3914	0	32712	31880	30586	
3915	0	32684	32538	30589	
3916	0	32540	32720	30598	
3917	0	32068	32786	30596	
3918	0	31901	32304	30591	
3919	0	31996	32308	30586	
3920	0	32322	32044	30590	
3921	0	32676	31662	30572	
3922	0	32936	33164	30572	
3923	0	33152	34944	30578	
3924	0	33301	34120	30548	
3925	0	33396	32757	30580	
3926	0	33360	30404	30577	
3927	0	33273	31149	30564	
3928	0	33280	34886	30558	
3929	0	33204	34024	30569	
3930	0	33144	34428	30588	
3931	0	32892	31684	30592	
3932	0	32652	30968	30596	
3933	0	32461	35120	30608	
3934	0	32310	32386	30612	
3935	0	32112	32416	30616	
3936	0	32016	31726	30620	
3937	0	32153	32052	30604	
3938	0	32354	33361	30608	
3939	0	32488	32712	30644	
3940	0	32900	32885	30656	
3941	0	32681	33132	30646	
3942	0	32524	33036	30616	
3943	0	32720	31408	30598	
3944	0	32972	31436	30604	
3945	0	33168	36048	30612	
3946	0	33376	34046	30602	
3947	0	33596	32904	30588	
3948	0	33728	32887	30603	
3949	0	33604	32004	30614	
3950	0	33492	31876	30612	
3951	0	33006	31300	30612	
3952	0	32632	33031	30613	
3953	0	32417	33696	30633	
3954	0	32200	33250	30648	
3955	0	32268	32632	30644	
3956	0	32100	32325	30656	
3957	0	32060	33721	30640	
3958	0	32028	33276	30664	
3959	0	32196	32728	30664	
3960	0	32224	32536	30650	
3961	0	32840	32846	30644	
3962	0	32800	32901	30634	
3963	0	32981	32250	30628	
3964	0	33164	32277	30656	
3965	0	33330	31105	30652	
3966	0	33416	29142	30636	
3967	0	33580	34124	30633	
3968	0	33476	34201	30624	
3969	0	33308	34688	30612	
3970	0	33188	33628	30637	
3971	0	32904	32300	30616	
3972	0	32688	35072	30632	
3973	0	32464	33860	30634	
3974	0	32288	32960	30632	
3975	0	32164	33132	30632	
3976	0	32149	32292	30647	
3977	0	32285	32037	30660	
3978	0	32364	31022	30676	
3979	0	32440	33168	30682	
3980	0	32440	35472	30668	
3981	0	32404	32944	30672	
3982	0	32466	31368	30661	
3983	0	32806	34661	30668	
3984	0	33093	31844	30648	
3985	0	33480	31904	30663	
3986	0	34164	31616	30697	
3987	0	33556	32804	30693	
3988	0	33204	32484	30709	
3989	0	33204	33383	30700	
3990	0	33305	32572	30700	
3991	0	33152	33008	30676	
3992	0	32748	33088	30632	
3993	0	32425	30720	30612	
3994	0	32196	29978	30584	
3995	0	32068	33452	30598	
3996	0	32029	35304	30613	
3997	0	32020	34865	30636	
3998	0	32256	31924	30655	
3999	0	32408	32561	30681	
4000	0	32640	33432	30690	
4001	0	32760	34135	30696	
4002	0	33056	33957	30695	
4003	0	33027	33350	30684	
4004	0	33052	31900	30662	
4005	0	33184	31943	30644	
4006	0	33284	32217	30636	
4007	0	33380	32356	30624	
4008	0	33308	32440	30620	
4009	0	33337	32684	30632	
4010	0	33128	33057	30636	
4011	0	32918	32519	30630	
4012	0	32772	33177	30632	
4013	0	32537	32796	30620	
4014	0	32340	32088	30610	
4015	0	32282	31901	30613	
4016	0	32060	33352	30632	
4017	0	31978	33775	30644	
4018	0	32060	33296	30640	
4019	0	32186	32504	30646	
4020	0	32380	30796	30620	
4021	0	32800	33780	30620	
4022	0	32998	34528	30608	
4023	0	33044	32191	30593	
4024	0	33428	32430	30620	
4025	0	33584	34229	30629	
4026	0	33456	34368	30588	
4027	0	33290	31358	30592	
4028	0	33232	34940	30588	
4029	0	33172	34753	30576	
4030	0	33094	33436	30597	
4031	0	32885	31802	30599	
4032	0	33034	29681	30609	
4033	0	32663	30197	30618	
4034	0	32342	34620	30613	
4035	0	32078	33434	30632	
4036	0	31934	32164	30646	
4037	0	31852	31709	30633	
4038	0	32072	32012	30608	
4039	0	32237	33144	30630	
4040	0	32361	33678	30624	
4041	0	32796	33559	30620	
4042	0	33184	33738	30614	
4043	0	33196	33799	30593	
4044	0	33168	32806	30594	
4045	0	32952	32424	30596	
4046	0	33004	32726	30589	
4047	0	33164	32308	30612	
4048	0	33146	31888	30609	
4049	0	33312	30797	30604	
4050	0	33848	31392	30604	
4051	0	33675	35712	30613	
4052	0	33040	33864	30625	
4053	0	32612	33118	30624	
4054	0	32484	32328	30632	
4055	0	32160	32132	30634	
4056	0	32028	33381	30623	
4057	0	31784	34320	30620	
4058	0	31896	32605	30609	
4059	0	32104	31612	30628	
4060	0	32436	34072	30605	
4061	0	32652	32456	30599	
4062	0	33168	34048	30605	
4063	0	33540	32754	30608	
4064	0	33332	32556	30604	
4065	0	33157	32384	30609	
4066	0	33240	31952	30608	
4067	0	33232	31817	30618	
4068	0	33300	33012	30614	
4069	0	33352	34084	30617	
4070	0	33128	32828	30634	
4071	0	32993	32368	30646	
4072	0	32684	31665	30640	
4073	0	32614	32260	30646	
4074	0	32332	33226	30656	
4075	0	32218	33388	30676	
4076	0	32076	33420	30692	
4077	0	31936	31760	30673	
4078	0	32120	30820	30668	
4079	0	32238	35384	30676	
4080	0	32310	33500	30677	
4081	0	32596	36552	30676	
4082	0	32780	35376	30688	
4083	0	32956	31476	30680	
4084	0	33252	30980	30644	
4085	0	33352	30956	30660	
4086	0	33352	31844	30660	
4087	0	33482	30708	30656	
4088	0	33528	31236	30660	
4089	0	33606	31321	30666	
4090	0	33584	34900	30680	
4091	0	33217	36600	30688	
4092	0	32728	34718	30672	
4093	0	32544	32317	30660	
4094	0	32376	32921	30652	
4095	0	32150	32320	30657	
4096	0	32132	32872	30672	
4097	0	32044	32552	30657	
4098	0	32101	32690	30652	
4099	0	32097	32628	30662	
4100	0	32256	32783	30641	
4101	0	32588	32708	30641	
4102	0	32844	33162	30649	
4103	0	32936	32724	30657	
4104	0	33124	32460	30659	
4105	0	33336	32620	30661	
4106	0	33412	30360	30644	
4107	0	33567	31024	30644	
4108	0	33424	32708	30625	
4109	0	33344	33621	30617	
4110	0	33248	35360	30621	
4111	0	32992	34437	30622	
4112	0	32656	34254	30628	
4113	0	32480	32497	30636	
4114	0	32348	31802	30624	
4115	0	32180	33950	30652	
4116	0	31884	33692	30662	
4117	0	32056	32200	30660	
4118	0	32156	31718	30648	
4119	0	32137	34088	30648	
4120	0	32240	33612	30618	
4121	0	33205	32608	30628	
4122	0	33280	32470	30620	
4123	0	33064	32665	30620	
4124	0	33272	31892	30628	
4125	0	33256	32508	30632	
4126	0	33280	31982	30622	
4127	0	33260	32280	30620	
4128	0	33312	32634	30628	
4129	0	33256	32813	30593	
4130	0	33145	32852	30572	
4131	0	33012	33182	30580	
4132	0	32840	32796	30576	
4133	0	32652	32816	30565	
4134	0	32325	30520	30580	
4135	0	32028	31926	30584	
4136	0	32130	32480	30592	
4137	0	32492	36428	30589	
4138	0	32232	36072	30594	
4139	0	32280	31441	30607	
4140	0	32484	33849	30628	
4141	0	32480	33264	30628	
4142	0	32502	31328	30596	
4143	0	33064	32189	30588	
4144	0	32964	33096	30574	
4145	0	32928	31016	30584	
4146	0	33270	31504	30568	
4147	0	33517	33465	30561	
4148	0	33596	34392	30564	
4149	0	33824	33880	30564	
4150	0	33856	33164	30581	
4151	0	33452	31932	30614	
4152	0	32706	32556	30632	
4153	0	32416	33353	30644	
4154	0	32320	32126	30636	
4155	0	31688	33082	30604	
4156	0	31729	33521	30604	
4157	0	31776	33989	30608	
4158	0	31968	33260	30607	
4159	0	32322	32320	30613	
4160	0	33132	31514	30604	
4161	0	33316	34056	30612	
4162	0	33008	33941	30627	
4163	0	32960	31623	30614	
4164	0	32994	31330	30608	
4165	0	33310	30788	30609	
4166	0	33404	29446	30636	
4167	0	33241	33394	30629	
4168	0	33008	32292	30636	
4169	0	33064	31828	30660	
4170	0	33144	36472	30648	
4171	0	33001	36668	30652	
4172	0	32820	34413	30648	
4173	0	32624	31588	30648	
4174	0	32312	30738	30665	
4175	0	32217	33674	30672	
4176	0	32116	33822	30665	
4177	0	32046	33276	30660	
4178	0	32164	32936	30680	
4179	0	32352	32188	30676	
4180	0	32464	31996	30688	
4181	0	32632	32537	30684	
4182	0	32836	31868	30684	
4183	0	33036	29918	30680	
4184	0	33196	32404	30681	
4185	0	33232	35949	30704	
4186	0	33344	33396	30704	
4187	0	33460	34564	30717	
4188	0	33424	34220	30703	
4189	0	33360	33700	30672	
4190	0	33332	30760	30660	
4191	0	33006	31822	30680	
4192	0	32700	33981	30664	
4193	0	32440	32057	30658	
4194	0	32380	32432	30660	
4195	0	32272	32946	30648	
4196	0	32502	31008	30648	
4197	0	32384	31356	30633	
4198	0	32128	30383	30639	
4199	0	32172	33728	30656	
4200	0	32280	35792	30660	
4201	0	32546	33668	30656	
4202	0	32714	32982	30656	
4203	0	32980	32860	30664	
4204	0	33056	32293	30662	
4205	0	33220	33417	30680	
4206	0	33396	34016	30679	
4207	0	33416	34404	30660	
4208	0	33308	32836	30661	
4209	0	33221	31684	30671	
4210	0	33140	32613	30673	
4211	0	32943	31198	30668	
4212	0	32840	32740	30656	
4213	0	32840	34000	30676	
4214	0	32432	32776	30660	
4215	0	32156	33241	30664	
4216	0	31804	31600	30656	
4217	0	31808	32465	30656	
4218	0	32669	35300	30636	
4219	0	32884	33196	30647	
4220	0	32556	32020	30656	
4221	0	32728	32228	30624	
4222	0	32872	32498	30624	
4223	0	33038	34044	30612	
4224	0	33194	33310	30630	
4225	0	33356	34240	30626	
4226	0	33468	33276	30620	
4227	0	33396	32355	30644	
4228	0	33104	31780	30652	
4229	0	32954	32215	30627	
4230	0	33023	33472	30648	
4231	0	32974	33552	30654	
4232	0	32756	32676	30656	
4233	0	32560	32130	30649	
4234	0	32312	31712	30642	
4235	0	31928	32579	30644	
4236	0	31860	32640	30664	
4237	0	32028	32691	30674	
4238	0	32165	32762	30692	
4239	0	32380	33872	30708	
4240	0	32764	31682	30680	
4241	0	32868	31057	30684	
4242	0	32746	33916	30686	
4243	0	32960	33968	30668	
4244	0	33120	34176	30648	
4245	0	33196	30764	30660	
4246	0	33232	32730	30660	
4247	0	33290	34137	30656	
4248	0	33220	32997	30632	
4249	0	33212	33406	30636	
4250	0	33601	32694	30628	
4251	0	33176	32069	30629	
4252	0	32968	32300	30626	
4253	0	32932	31978	30608	
4254	0	32680	32360	30632	
4255	0	32237	33628	30649	
4256	0	31992	33904	30664	
4257	0	31972	33899	30658	
4258	0	31960	32372	30652	
4259	0	32144	33405	30628	
4260	0	32280	34188	30596	
4261	0	32536	33864	30589	
4262	0	32640	31824	30588	
4263	0	32808	31140	30586	
4264	0	33048	30182	30576	
4265	0	33186	32404	30585	
4266	0	33592	32225	30581	
4267	0	33865	31487	30580	
4268	0	33358	32016	30578	
4269	0	33394	34772	30594	
4270	0	33516	34532	30604	
4271	0	33292	35032	30601	
4272	0	32964	33240	30604	
4273	0	32624	32245	30601	
4274	0	32400	31205	30596	
4275	0	32116	33310	30596	
4276	0	32044	33072	30586	
4277	0	32008	32048	30599	
4278	0	32120	33408	30605	
4279	0	32200	32305	30636	
4280	0	32160	32628	30666	
4281	0	32192	32201	30653	
4282	0	32468	33805	30660	
4283	0	32777	34500	30641	
4284	0	32968	31684	30634	
4285	0	33692	33639	30626	
4286	0	34100	33424	30657	
4287	0	33864	31924	30652	
4288	0	33192	31847	30637	
4289	0	33116	32764	30656	
4290	0	33148	32978	30660	
4291	0	33177	32340	30654	
4292	0	32984	30996	30664	
4293	0	32937	31452	30664	
4294	0	32600	35472	30680	
4295	0	32365	35108	30688	
4296	0	32044	29812	30682	
4297	0	32025	32284	30672	
4298	0	32032	34092	30687	
4299	0	32156	33799	30694	
4300	0	32544	34036	30688	
4301	0	32532	34644	30684	
4302	0	32426	33557	30668	
4303	0	32800	32391	30650	
4304	0	33184	33322	30644	
4305	0	33221	31676	30644	
4306	0	33252	30826	30636	
4307	0	33424	31000	30640	
4308	0	33404	32404	30620	
4309	0	33336	33220	30620	
4310	0	33268	33932	30629	
4311	0	33072	33428	30625	
4312	0	32816	32956	30629	
4313	0	32516	32192	30657	
4314	0	32284	30842	30678	
4315	0	32224	33566	30672	
4316	0	32089	34838	30668	
4317	0	32108	33104	30684	
4318	0	32217	31888	30684	
4319	0	32608	30858	30670	
4320	0	32682	31228	30670	
4321	0	32612	33016	30688	
4322	0	32652	36174	30700	
4323	0	32880	34188	30708	
4324	0	33036	32920	30716	
4325	0	33176	33541	30709	
4326	0	33236	32093	30704	
4327	0	33474	33608	30704	
4328	0	33448	32973	30688	
4329	0	33440	32148	30684	
4330	0	33428	32716	30672	
4331	0	33116	32708	30672	
4332	0	32844	32588	30648	
4333	0	32648	32774	30650	
4334	0	32412	32646	30657	
4335	0	32252	32552	30656	
4336	0	32244	32653	30641	
4337	0	32066	32692	30672	
4338	0	32105	33112	30668	
4339	0	32212	33008	30670	
4340	0	32365	32901	30678	
4341	0	32512	33000	30694	
4342	0	32648	32884	30702	
4343	0	32648	32852	30697	
4344	0	32924	32904	30688	
4345	0	33052	33240	30692	
4346	0	33208	33746	30682	
4347	0	33428	32644	30656	
4348	0	34146	31844	30646	
4349	0	33846	32006	30636	
4350	0	33452	32664	30632	
4351	0	32936	32869	30628	
4352	0	32516	34532	30650	
4353	0	32296	33884	30652	
4354	0	32248	31100	30650	
4355	0	32152	31616	30658	
4356	0	32228	30384	30661	
4357	0	32652	31664	30684	
4358	0	32288	32206	30674	
4359	0	32444	33909	30668	
4360	0	32594	37052	30664	
4361	0	32474	35044	30658	
4362	0	32512	33530	30636	
4363	0	33005	32789	30620	
4364	0	33169	35157	30615	
4365	0	33044	30928	30616	
4366	0	33124	29136	30616	
4367	0	33216	29094	30634	
4368	0	33228	33958	30624	
4369	0	33244	35012	30648	
4370	0	33301	34064	30628	
4371	0	33212	32886	30596	
4372	0	33008	31272	30589	
4373	0	32916	32266	30600	
4374	0	32696	34900	30625	
4375	0	32490	33700	30628	
4376	0	32120	32744	30632	
4377	0	31908	30380	30644	
4378	0	32048	30810	30652	
4379	0	31984	32872	30664	
4380	0	32101	32740	30649	
4381	0	32353	35720	30629	
4382	0	32396	33284	30628	
4383	0	32716	31793	30612	
4384	0	33292	35448	30612	
4385	0	33308	33932	30596	
4386	0	33290	32758	30596	
4387	0	34032	33117	30606	
4388	0	33998	32244	30584	
4389	0	33612	32137	30565	
4390	0	33148	32222	30560	
4391	0	32852	31950	30588	
4392	0	32804	32099	30607	
4393	0	32816	32645	30613	
4394	0	32520	32720	30620	
4395	0	32216	33080	30638	
4396	0	32008	32724	30640	
4397	0	31978	33048	30648	
4398	0	32012	33124	30632	
4399	0	32130	33076	30626	
4400	0	32263	32497	30624	
4401	0	32448	32765	30633	
4402	0	32673	32788	30636	
4403	0	32824	31804	30654	
4404	0	33072	31962	30641	
4405	0	33288	34055	30632	
4406	0	33440	33548	30631	
4407	0	33496	31233	30641	
4408	0	33468	33244	30641	
4409	0	33436	32828	30648	
4410	0	33312	32536	30644	
4411	0	33120	35060	30656	
4412	0	32908	34457	30658	
4413	0	32704	32368	30652	
4414	0	32428	31334	30652	
4415	0	32318	32108	30620	
4416	0	31990	31652	30606	
4417	0	31760	31367	30608	
4418	0	31956	32903	30606	
4419	0	32208	32636	30620	
4420	0	32444	33568	30616	
4421	0	32864	34180	30599	
4422	0	32816	34720	30616	
4423	0	32600	34320	30604	
4424	0	32816	32804	30633	
4425	0	33092	32294	30640	
4426	0	33664	31856	30636	
4427	0	33852	31508	30641	
4428	0	33788	31866	30624	
4429	0	33752	33200	30641	
4430	0	33444	32740	30622	
4431	0	33024	33464	30596	
4432	0	32580	33057	30593	
4433	0	32496	31756	30602	
4434	0	32904	30444	30596	
4435	0	32448	33066	30620	
4436	0	31896	36108	30624	
4437	0	31864	35292	30621	
4438	0	31961	31588	30620	
4439	0	32072	30042	30610	
4440	0	32216	32156	30608	
4441	0	32436	31516	30631	
4442	0	32684	32597	30631	
4443	0	32834	37719	30653	
4444	0	33192	36252	30668	
4445	0	33216	32288	30660	
4446	0	33356	31580	30660	
4447	0	33360	32052	30623	
4448	0	33188	32788	30630	
4449	0	33245	33220	30621	
4450	0	33260	32160	30624	
4451	0	33152	31684	30644	
4452	0	33136	31584	30645	
4453	0	33289	32180	30616	
4454	0	33097	32212	30648	
4455	0	32628	32570	30657	
4456	0	32044	33396	30678	
4457	0	31840	33769	30689	
4458	0	32012	32642	30672	
4459	0	32060	32401	30672	
4460	0	32220	33212	30676	
4461	0	32440	33720	30664	
4462	0	32604	32768	30660	
4463	0	32796	31932	30692	
4464	0	33028	32216	30697	
4465	0	33092	33736	30708	
4466	0	33285	35350	30693	
4467	0	33416	30786	30692	
4468	0	33408	30984	30700	
4469	0	33292	33464	30692	
4470	0	33232	33320	30685	
4471	0	33176	33480	30655	
4472	0	32892	32936	30680	
4473	0	32628	33604	30673	
4474	0	32449	34709	30687	
4475	0	32712	33332	30693	
4476	0	32172	32080	30701	
4477	0	32022	31598	30680	
4478	0	31984	31825	30665	
4479	0	32232	33100	30676	
4480	0	32442	32280	30688	
4481	0	32576	30890	30680	
4482	0	32868	30688	30670	
4483	0	33016	32730	30668	
4484	0	33076	34552	30660	
4485	0	33120	33680	30664	
4486	0	33114	32608	30664	
4487	0	33157	31951	30656	
4488	0	33016	34148	30657	
4489	0	33020	35582	30652	
4490	0	33305	33540	30670	
4491	0	33348	32646	30642	
4492	0	33376	32428	30642	
4493	0	33532	33080	30660	
4494	0	32888	32044	30685	
4495	0	32468	32244	30685	
4496	0	31932	33164	30696	
4497	0	31800	32912	30708	
4498	0	31752	33197	30693	
4499	0	31880	31792	30664	
4500	0	32516	28432	30640	
4501	0	32712	32189	30618	
4502	0	32512	36260	30614	
4503	0	32700	33912	30619	
4504	0	32996	33879	30605	
4505	0	33308	32892	30620	
4506	0	33912	32664	30628	
4507	0	33664	33177	30628	
4508	0	33376	33420	30620	
4509	0	33269	31652	30624	
4510	0	33112	32282	30620	
4511	0	33054	33549	30620	
4512	0	32904	33568	30613	
4513	0	32660	32976	30618	
4514	0	32440	32909	30636	
4515	0	32200	32776	30632	
4516	0	32168	32921	30652	
4517	0	32048	32690	30650	
4518	0	32044	32284	30636	
4519	0	32064	32816	30637	
4520	0	32220	32796	30652	
4521	0	32472	32369	30646	
4522	0	32648	34284	30636	
4523	0	32724	33281	30624	
4524	0	33012	31220	30644	
4525	0	33224	33232	30636	
4526	0	33332	33196	30640	
4527	0	33598	33436	30628	
4528	0	33636	32752	30616	
4529	0	33697	32556	30622	
4530	0	33624	32176	30616	
4531	0	33308	32425	30600	
4532	0	32856	32974	30620	
4533	0	32706	33101	30640	
4534	0	32556	33926	30625	
4535	0	32202	31520	30594	
4536	0	31890	32317	30592	
4537	0	31804	31676	30580	
4538	0	31956	31336	30586	
4539	0	32073	31812	30584	
4540	0	32278	31606	30596	
4541	0	32544	35096	30584	
4542	0	32732	36066	30600	
4543	0	33028	35113	30612	
4544	0	33180	34384	30596	
4545	0	33236	30256	30596	
4546	0	33072	32380	30576	
4547	0	33088	33908	30592	
4548	0	33556	32221	30593	
4549	0	33676	32144	30575	
4550	0	33616	32132	30572	
4551	0	33292	33212	30572	
4552	0	33000	32421	30594	
4553	0	32848	31465	30599	
4554	0	32649	31392	30584	
4555	0	32480	32348	30601	
4556	0	32093	35049	30620	
4557	0	31824	34220	30636	
4558	0	31820	33232	30606	
4559	0	31916	33716	30621	
4560	0	32084	33362	30626	
4561	0	32144	32361	30602	
4562	0	32764	32904	30616	
4563	0	33264	32924	30621	
4564	0	33000	32653	30639	
4565	0	33288	33236	30629	
4566	0	33868	32420	30636	
4567	0	33936	32048	30640	
4568	0	33352	32519	30632	
4569	0	33044	31892	30648	
4570	0	33109	32176	30676	
4571	0	33168	33165	30660	
4572	0	33174	34456	30649	
4573	0	32897	33425	30652	
4574	0	32480	32236	30652	
4575	0	32204	32036	30654	
4576	0	32101	34520	30692	
4577	0	31968	33888	30680	
4578	0	31992	31393	30697	
4579	0	32072	32476	30685	
4580	0	32248	32556	30685	
4581	0	32464	33828	30692	
4582	0	32682	32950	30676	
4583	0	32802	32014	30672	
4584	0	33156	31936	30680	
4585	0	33208	33704	30684	
4586	0	33382	34621	30693	
4587	0	33493	33861	30676	
4588	0	33480	32781	30673	
4589	0	33340	31292	30664	
4590	0	33376	31417	30675	
4591	0	33204	32292	30676	
4592	0	32916	32410	30681	
4593	0	32669	34086	30672	
4594	0	32352	33868	30685	
4595	0	32237	33220	30692	
4596	0	32034	30892	30668	
4597	0	32012	31150	30648	
4598	0	32192	32962	30650	
4599	0	32244	33021	30657	
4600	0	32340	33356	30646	
4601	0	32644	33135	30629	
4602	0	32732	33110	30640	
4603	0	32788	32212	30648	
4604	0	33332	31749	30644	
4605	0	33540	30548	30660	
4606	0	33564	35641	30648	
4607	0	33617	34804	30633	
4608	0	33492	34107	30634	
4609	0	33392	32343	30604	
4610	0	33172	31668	30596	
4611	0	33009	31972	30599	
4612	0	32798	31517	30605	
4613	0	32532	33156	30596	
4614	0	32292	33798	30601	
4615	0	32108	32353	30604	
4616	0	32040	30520	30601	
4617	0	32158	30654	30613	
4618	0	32220	35284	30601	
4619	0	32432	36846	30601	
4620	0	32460	34361	30598	
4621	0	32624	33174	30605	
4622	0	32818	34101	30604	
4623	0	32981	30812	30614	
4624	0	33066	30536	30608	
4625	0	33134	35302	30630	
4626	0	33220	34120	30636	
4627	0	33237	33008	30641	
4628	0	33232	30600	30624	
4629	0	33216	31376	30616	
4630	0	33276	32088	30603	
4631	0	33376	33258	30592	
4632	0	33312	33964	30592	
