# OpenSignals Text File Format
# {"00:07:80:4D:2E:AD": {"sensor": ["RAW"], "device name": "00:07:80:4D:2E:AD", "column": ["nSeq", "DI", "CH1"], "sync interval": 2, "time": "13:56:22.261", "comments": "", "device connection": "BTH00:07:80:4D:2E:AD", "channels": [1], "keywords": "", "mode": 1, "digital IO": [0, 1], "firmware version": 773, "device": "biosignalsplux", "position": 0, "sampling rate": 1000, "label": ["CH1"], "resolution": [16], "date": "2019-3-12", "special": [{}]}, "00:07:80:3B:46:58": {"sensor": ["RAW"], "device name": "00:07:80:3B:46:58", "column": ["nSeq", "DI", "CH1"], "sync interval": 2, "time": "13:56:22.261", "comments": "", "device connection": "BTH00:07:80:3B:46:58", "channels": [1], "keywords": "", "mode": 1, "digital IO": [0, 1], "firmware version": 774, "device": "biosignalsplux", "position": 1, "sampling rate": 1000, "label": ["CH1"], "resolution": [16], "date": "2019-3-12", "special": [{}]}}
# EndOfHeader
13911	1	32682	11662	1	32489	
13912	1	32468	11663	1	32545	
13913	1	32548	11664	1	32457	
13914	1	32752	11665	1	32720	
13915	1	32912	11666	1	32950	
13916	1	32584	11667	1	32792	
13917	1	32761	11668	1	32774	
13918	1	32893	11669	1	32946	
13919	1	32860	11670	1	32770	
13920	1	32968	11671	1	32676	
13921	1	33012	11672	1	32898	
13922	1	32760	11673	1	32836	
13923	1	32864	11674	1	32820	
13924	1	33054	11675	1	33092	
13925	1	32952	11676	1	32971	
13926	1	32877	11677	1	32832	
13927	1	32892	11678	1	32864	
13928	1	32662	11679	1	32682	
13929	1	32928	11680	1	32640	
13930	1	33008	11681	1	32938	
13931	1	32686	11682	1	32722	
13932	1	32820	11683	1	32778	
13933	1	32741	11684	1	33034	
13934	1	32568	11685	1	32745	
13935	1	32792	11686	1	32658	
13936	1	32804	11687	1	32730	
13937	1	32572	11688	1	32512	
13938	1	32656	11689	1	32500	
13939	1	32517	11690	1	32602	
13940	1	32505	11691	1	32435	
13941	1	32456	11692	1	32322	
13942	1	32750	11693	1	32682	
13943	1	32621	11694	1	32880	
13944	1	32812	11695	1	32812	
13945	1	32820	11696	1	32960	
13946	1	32680	11697	1	32664	
13947	1	32644	11698	1	32508	
13948	1	32776	11699	1	32564	
13949	1	32604	11700	1	32627	
13950	1	32452	11701	1	32540	
13951	1	32832	11702	1	32716	
13952	1	32992	11703	1	32674	
13953	1	32900	11704	1	32480	
13954	1	32840	11705	1	32668	
13955	1	32936	11706	1	32904	
13956	1	32768	11707	1	32816	
13957	1	32976	11708	1	32802	
13958	1	32916	11709	1	32852	
13959	1	32833	11710	1	32772	
13960	1	32836	11711	1	32825	
13961	1	32980	11712	1	32864	
13962	1	32856	11713	1	32936	
13963	1	33056	11714	1	33029	
13964	1	32864	11715	1	32830	
13965	1	32894	11716	1	32786	
13966	1	32793	11717	1	32796	
13967	1	32844	11718	1	32856	
13968	1	32604	11719	1	32712	
13969	1	32668	11720	1	32572	
13970	1	32830	11721	1	32704	
13971	1	32832	11722	1	32714	
13972	1	32836	11723	1	32724	
13973	1	32980	11724	1	32849	
13974	1	32836	11725	1	32720	
13975	1	32829	11726	1	32504	
13976	1	32880	11727	1	32592	
13977	1	32661	11728	1	32524	
13978	1	32700	11729	1	32500	
13979	1	32752	11730	1	32836	
13980	1	32535	11731	1	32742	
13981	1	32676	11732	1	32624	
13982	1	32932	11733	1	32842	
13983	1	32724	11734	1	32808	
13984	1	32992	11735	1	32856	
13985	1	32924	11736	1	33120	
13986	1	32804	11737	1	32784	
13987	1	32848	11738	1	32664	
13988	1	32765	11739	1	32810	
13989	1	32532	11740	1	32558	
13990	1	32728	11741	1	32518	
13991	1	33004	11742	1	32688	
13992	1	32869	11743	1	32760	
13993	1	32808	11744	1	32768	
13994	1	33044	11745	1	33014	
13995	1	32800	11746	1	32809	
13996	1	32645	11747	1	32548	
13997	1	32840	11748	1	32700	
13998	1	32749	11749	1	32640	
13999	1	32542	11750	1	32417	
14000	1	32696	11751	1	32672	
14001	1	32744	11752	1	32746	
14002	1	32740	11753	1	32566	
14003	1	32884	11754	1	32600	
14004	1	32976	11755	1	32901	
14005	1	32768	11756	1	32832	
14006	1	32862	11757	1	32746	
14007	1	32888	11758	1	32784	
14008	1	32740	11759	1	32792	
14009	1	32773	11760	1	32802	
14010	1	32750	11761	1	32955	
14011	1	32612	11762	1	32904	
14012	1	32932	11763	1	32832	
14013	1	33234	11764	1	33016	
14014	1	33060	11765	1	32864	
14015	1	32910	11766	1	32668	
14016	1	32844	11767	1	32669	
14017	1	32812	11768	1	32838	
14018	1	32836	11769	1	32816	
14019	1	32708	11770	1	32905	
14020	1	32700	11771	1	32748	
14021	1	32684	11772	1	32736	
14022	1	32736	11773	1	32728	
14023	1	32714	11774	1	32658	
14024	1	32902	11775	1	32728	
14025	1	33012	11776	1	32928	
14026	1	32630	11777	1	32658	
14027	1	32616	11778	1	32558	
14028	1	32732	11779	1	32696	
14029	1	32616	11780	1	32528	
14030	1	32513	11781	1	32312	
14031	1	32596	11782	1	32466	
14032	1	32524	11783	1	32500	
14033	1	32573	11784	1	32496	
14034	1	32736	11785	1	32692	
14035	1	32706	11786	1	32784	
14036	1	32797	11787	1	32736	
14037	1	33032	11788	1	32868	
14038	1	32886	11789	1	32952	
14039	1	33038	11790	1	32821	
14040	1	33012	11791	1	32892	
14041	1	32828	11792	1	32758	
14042	1	32596	11793	1	32626	
14043	1	32824	11794	1	32792	
14044	1	32852	11795	1	32882	
14045	1	32804	11796	1	32804	
14046	1	32912	11797	1	32892	
14047	1	32928	11798	1	32904	
14048	1	32792	11799	1	32760	
14049	1	32776	11800	1	32775	
14050	1	32738	11801	1	32686	
14051	1	32685	11802	1	32696	
14052	1	33060	11803	1	32848	
14053	1	32940	11804	1	32824	
14054	1	32796	11805	1	32636	
14055	1	32746	11806	1	32647	
14056	1	32712	11807	1	32774	
14057	1	32588	11808	1	32672	
14058	1	32782	11809	1	32704	
14059	1	32836	11810	1	32796	
14060	1	32688	11811	1	32654	
14061	1	32808	11812	1	32770	
14062	1	32836	11813	1	32886	
14063	1	32528	11814	1	32512	
14064	1	32847	11815	1	32618	
14065	1	33208	11816	1	32832	
14066	1	32904	11817	1	32746	
14067	1	32725	11818	1	32706	
14068	1	32824	11819	1	32740	
14069	1	32536	11820	1	32624	
14070	1	32494	11821	1	32480	
14071	1	32752	11822	1	32592	
14072	1	32812	11823	1	32659	
14073	1	32844	11824	1	32690	
14074	1	33001	11825	1	32817	
14075	1	32912	11826	1	32960	
14076	1	32882	11827	1	32936	
14077	1	33162	11828	1	32989	
14078	1	33024	11829	1	33000	
14079	1	32900	11830	1	32904	
14080	1	33095	11831	1	32924	
14081	1	32924	11832	1	32874	
14082	1	32708	11833	1	32647	
14083	1	32988	11834	1	32688	
14084	1	32932	11835	1	32932	
14085	1	32690	11836	1	32754	
14086	1	32740	11837	1	32732	
14087	1	32530	11838	1	32684	
14088	1	32168	11839	1	32288	
14089	1	32596	11840	1	32440	
14090	1	32513	11841	1	32612	
14091	1	32660	11842	1	32480	
14092	1	32886	11843	1	32700	
14093	1	32882	11844	1	32772	
14094	1	32782	11845	1	32588	
14095	1	32976	11846	1	32876	
14096	1	32864	11847	1	32856	
14097	1	32548	11848	1	32596	
14098	1	32824	11849	1	32594	
14099	1	33120	11850	1	32832	
14100	1	32980	11851	1	32866	
14101	1	33209	11852	1	32946	
14102	1	33248	11853	1	33082	
14103	1	32900	11854	1	32828	
14104	1	33180	11855	1	32831	
14105	1	32912	11856	1	33046	
14106	1	32692	11857	1	32830	
14107	1	32728	11858	1	32813	
14108	1	32692	11859	1	32792	
14109	1	32452	11860	1	32560	
14110	1	32280	11861	1	32488	
14111	1	32556	11862	1	32605	
14112	1	32604	11863	1	32775	
14113	1	32720	11864	1	32741	
14114	1	32836	11865	1	32752	
14115	1	32340	11866	1	32642	
14116	1	32578	11867	1	32466	
14117	1	32716	11868	1	32584	
14118	1	32596	11869	1	32520	
14119	1	32815	11870	1	32460	
14120	1	32880	11871	1	32682	
14121	1	32669	11872	1	32793	
14122	1	32797	11873	1	32745	
14123	1	32940	11874	1	32864	
14124	1	32812	11875	1	32760	
14125	1	32760	11876	1	32720	
14126	1	32844	11877	1	32797	
14127	1	32612	11878	1	32760	
14128	1	32781	11879	1	32750	
14129	1	32834	11880	1	32889	
14130	1	32892	11881	1	32813	
14131	1	32884	11882	1	32720	
14132	1	33016	11883	1	32801	
14133	1	32992	11884	1	32836	
14134	1	32834	11885	1	32852	
14135	1	33068	11886	1	32884	
14136	1	32784	11887	1	32852	
14137	1	32548	11888	1	32636	
14138	1	32788	11889	1	32672	
14139	1	32672	11890	1	32728	
14140	1	32529	11891	1	32569	
14141	1	32784	11892	1	32796	
14142	1	32942	11893	1	32871	
14143	1	32956	11894	1	32754	
14144	1	32766	11895	1	32712	
14145	1	32777	11896	1	32760	
14146	1	32696	11897	1	32672	
14147	1	33034	11898	1	32786	
14148	1	32958	11899	1	32896	
14149	1	32752	11900	1	32610	
14150	1	32704	11901	1	32464	
14151	1	32622	11902	1	32602	
14152	1	32680	11903	1	32640	
14153	1	32862	11904	1	32878	
14154	1	32892	11905	1	32808	
14155	1	32676	11906	1	32698	
14156	1	32842	11907	1	32552	
14157	1	33012	11908	1	32812	
14158	1	32860	11909	1	32804	
14159	1	32936	11910	1	32792	
14160	1	33028	11911	1	32940	
14161	1	32920	11912	1	32912	
14162	1	33136	11913	1	32948	
14163	1	33128	11914	1	32960	
14164	1	32764	11915	1	32858	
14165	1	32738	11916	1	32656	
14166	1	32782	11917	1	32864	
14167	1	32688	11918	1	32736	
14168	1	32624	11919	1	32580	
14169	1	32956	11920	1	32788	
14170	1	32736	11921	1	32713	
14171	1	32689	11922	1	32502	
14172	1	32916	11923	1	32696	
14173	1	32848	11924	1	32760	
14174	1	32606	11925	1	32726	
14175	1	32677	11926	1	32748	
14176	1	32804	11927	1	32762	
14177	1	32880	11928	1	32780	
14178	1	32812	11929	1	32940	
14179	1	32744	11930	1	32730	
14180	1	32580	11931	1	32472	
14181	1	33001	11932	1	32612	
14182	1	32959	11933	1	32968	
14183	1	32873	11934	1	32852	
14184	1	33036	11935	1	32820	
14185	1	32833	11936	1	32748	
14186	1	32572	11937	1	32481	
14187	1	32740	11938	1	32608	
14188	1	32897	11939	1	32872	
14189	1	32810	11940	1	32740	
14190	1	32804	11941	1	32672	
14191	1	32732	11942	1	32844	
14192	1	32728	11943	1	32800	
14193	1	32676	11944	1	32804	
14194	1	32748	11945	1	32816	
14195	1	32760	11946	1	32800	
14196	1	32652	11947	1	32646	
14197	1	32768	11948	1	32624	
14198	1	32720	11949	1	32569	
14199	1	32798	11950	1	32312	
14200	1	32902	11951	1	32672	
14201	1	32704	11952	1	32640	
14202	1	32680	11953	1	32644	
14203	1	32728	11954	1	32770	
14204	1	32688	11955	1	32878	
14205	1	32680	11956	1	32814	
14206	1	32872	11957	1	32912	
14207	1	32712	11958	1	32804	
14208	1	32692	11959	1	32841	
14209	1	32724	11960	1	32836	
14210	1	32704	11961	1	32660	
14211	1	32833	11962	1	32608	
14212	1	33133	11963	1	32938	
14213	1	32706	11964	1	32851	
14214	1	32564	11965	1	32720	
14215	1	32872	11966	1	32897	
14216	1	32748	11967	1	32786	
14217	1	32488	11968	1	32417	
14218	1	32772	11969	1	32666	
14219	1	32708	11970	1	32584	
14220	1	32464	11971	1	32432	
14221	1	32608	11972	1	32484	
14222	1	32880	11973	1	32624	
14223	1	32932	11974	1	32754	
14224	1	33060	11975	1	32884	
14225	1	32808	11976	1	32824	
14226	1	32684	11977	1	32801	
14227	1	32798	11978	1	32973	
14228	1	32714	11979	1	32804	
14229	1	32596	11980	1	32644	
14230	1	32668	11981	1	32622	
14231	1	32617	11982	1	32616	
14232	1	32708	11983	1	32572	
14233	1	32804	11984	1	32628	
14234	1	33224	11985	1	32936	
14235	1	32970	11986	1	32808	
14236	1	32900	11987	1	32590	
14237	1	32964	11988	1	32801	
14238	1	32784	11989	1	32712	
14239	1	32824	11990	1	32584	
14240	1	32790	11991	1	32788	
14241	1	32682	11992	1	32840	
14242	1	32952	11993	1	32960	
14243	1	33040	11994	1	33056	
14244	1	32860	11995	1	32924	
14245	1	32796	11996	1	32858	
14246	1	32940	11997	1	32764	
14247	1	32616	11998	1	32562	
14248	1	32722	11999	1	32538	
14249	1	32704	12000	1	32796	
14250	1	32526	12001	1	32697	
14251	1	32648	12002	1	32524	
14252	1	33040	12003	1	32792	
14253	1	32980	12004	1	32946	
14254	1	32940	12005	1	32864	
14255	1	33000	12006	1	32864	
14256	1	32928	12007	1	32918	
14257	1	32696	12008	1	32870	
14258	1	32828	12009	1	32808	
14259	1	32612	12010	1	32516	
14260	1	32584	12011	1	32492	
14261	1	32895	12012	1	32604	
14262	1	32954	12013	1	32692	
14263	1	32948	12014	1	32712	
14264	1	33000	12015	1	32948	
14265	1	32916	12016	1	32976	
14266	1	32516	12017	1	32672	
14267	1	32564	12018	1	32592	
14268	1	32822	12019	1	32808	
14269	1	32868	12020	1	32904	
14270	1	32873	12021	1	32820	
14271	1	32800	12022	1	32662	
14272	1	32600	12023	1	32428	
14273	1	32812	12024	1	32652	
14274	1	32716	12025	1	32904	
14275	1	32664	12026	1	32672	
14276	1	33036	12027	1	32707	
14277	1	32892	12028	1	32942	
14278	1	32676	12029	1	32720	
14279	1	32684	12030	1	32660	
14280	1	32720	12031	1	32852	
14281	1	32741	12032	1	32740	
14282	1	33062	12033	1	32882	
14283	1	32980	12034	1	32998	
14284	1	32988	12035	1	32894	
14285	1	32956	12036	1	32786	
14286	1	32666	12037	1	32756	
14287	1	32576	12038	1	32604	
14288	1	32660	12039	1	32525	
14289	1	32698	12040	1	32664	
14290	1	32424	12041	1	32548	
14291	1	32632	12042	1	32536	
14292	1	32890	12043	1	32775	
14293	1	32765	12044	1	32792	
14294	1	32781	12045	1	32742	
14295	1	32961	12046	1	32972	
14296	1	32760	12047	1	32848	
14297	1	32657	12048	1	32680	
14298	1	32892	12049	1	32650	
14299	1	32732	12050	1	32640	
14300	1	32726	12051	1	32604	
14301	1	32892	12052	1	32636	
14302	1	32838	12053	1	32812	
14303	1	32832	12054	1	32928	
14304	1	33136	12055	1	32962	
14305	1	32978	12056	1	32868	
14306	1	32744	12057	1	32682	
14307	1	32608	12058	1	32568	
14308	1	32582	12059	1	32600	
14309	1	32632	12060	1	32568	
14310	1	32722	12061	1	32722	
14311	1	32856	12062	1	32804	
14312	1	32744	12063	1	32689	
14313	1	33009	12064	1	32764	
14314	1	32980	12065	1	32868	
14315	1	32760	12066	1	32740	
14316	1	32880	12067	1	32810	
14317	1	32982	12068	1	32984	
14318	1	32844	12069	1	32812	
14319	1	32904	12070	1	32832	
14320	1	32820	12071	1	32840	
14321	1	32472	12072	1	32564	
14322	1	32852	12073	1	32544	
14323	1	32852	12074	1	32832	
14324	1	32645	12075	1	32712	
14325	1	32756	12076	1	32646	
14326	1	32740	12077	1	32709	
14327	1	32664	12078	1	32554	
14328	1	32820	12079	1	32512	
14329	1	32912	12080	1	32720	
14330	1	32552	12081	1	32596	
14331	1	32757	12082	1	32616	
14332	1	32828	12083	1	32830	
14333	1	32736	12084	1	32796	
14334	1	32960	12085	1	32864	
14335	1	33008	12086	1	33008	
14336	1	32976	12087	1	32820	
14337	1	32937	12088	1	32796	
14338	1	32976	12089	1	32848	
14339	1	32780	12090	1	32786	
14340	1	32624	12091	1	32630	
14341	1	32728	12092	1	32772	
14342	1	32708	12093	1	32778	
14343	1	32693	12094	1	32706	
14344	1	33000	12095	1	32794	
14345	1	32814	12096	1	32878	
14346	1	32760	12097	1	32554	
14347	1	32964	12098	1	32746	
14348	1	32706	12099	1	32758	
14349	1	32580	12100	1	32581	
14350	1	32832	12101	1	32720	
14351	1	32820	12102	1	32903	
14352	1	32812	12103	1	32855	
14353	1	32884	12104	1	32872	
14354	1	32717	12105	1	32744	
14355	1	32424	12106	1	32524	
14356	1	32774	12107	1	32712	
14357	1	32896	12108	1	32936	
14358	1	32816	12109	1	32642	
14359	1	32901	12110	1	32525	
14360	1	32912	12111	1	32621	
14361	1	32704	12112	1	32650	
14362	1	32925	12113	1	32672	
14363	1	32884	12114	1	32700	
14364	1	32852	12115	1	32784	
14365	1	32629	12116	1	32876	
14366	1	32692	12117	1	32748	
14367	1	32460	12118	1	32640	
14368	1	32684	12119	1	32716	
14369	1	32936	12120	1	32964	
14370	1	32716	12121	1	32796	
14371	1	32796	12122	1	32736	
14372	1	33076	12123	1	32828	
14373	1	32853	12124	1	32710	
14374	1	32760	12125	1	32696	
14375	1	32860	12126	1	32928	
14376	1	32742	12127	1	32826	
14377	1	32840	12128	1	32900	
14378	1	32944	12129	1	32842	
14379	1	32730	12130	1	32832	
14380	1	32853	12131	1	32760	
14381	1	33058	12132	1	33048	
14382	1	32724	12133	1	32788	
14383	1	32712	12134	1	32544	
14384	1	32928	12135	1	32646	
14385	1	32832	12136	1	32660	
14386	1	32792	12137	1	32674	
14387	1	32832	12138	1	32762	
14388	1	32622	12139	1	32664	
14389	1	32476	12140	1	32413	
14390	1	32728	12141	1	32456	
14391	1	32732	12142	1	32640	
14392	1	32718	12143	1	32608	
14393	1	32938	12144	1	32816	
14394	1	32828	12145	1	32932	
14395	1	32692	12146	1	32746	
14396	1	32672	12147	1	32624	
14397	1	32696	12148	1	32562	
14398	1	32573	12149	1	32569	
14399	1	32816	12150	1	32648	
14400	1	32785	12151	1	32822	
14401	1	32380	12152	1	32601	
14402	1	32640	12153	1	32758	
14403	1	32820	12154	1	32946	
14404	1	32900	12155	1	32848	
14405	1	32968	12156	1	32794	
14406	1	32976	12157	1	32766	
14407	1	32886	12158	1	32722	
14408	1	32836	12159	1	32715	
14409	1	32846	12160	1	32852	
14410	1	32812	12161	1	32754	
14411	1	32614	12162	1	32584	
14412	1	32685	12163	1	32622	
14413	1	32655	12164	1	32658	
14414	1	32844	12165	1	32768	
14415	1	32901	12166	1	32888	
14416	1	32716	12167	1	32684	
14417	1	32712	12168	1	32563	
14418	1	32980	12169	1	32957	
14419	1	32933	12170	1	32868	
14420	1	32948	12171	1	32920	
14421	1	32992	12172	1	32929	
14422	1	32792	12173	1	32738	
14423	1	32624	12174	1	32500	
14424	1	32914	12175	1	32760	
14425	1	32833	12176	1	32796	
14426	1	32812	12177	1	32800	
14427	1	32964	12178	1	32844	
14428	1	32736	12179	1	32720	
14429	1	32476	12180	1	32536	
14430	1	32708	12181	1	32658	
14431	1	32768	12182	1	32692	
14432	1	32593	12183	1	32658	
14433	1	32792	12184	1	32752	
14434	1	32740	12185	1	32811	
14435	1	32536	12186	1	32552	
14436	1	32896	12187	1	32804	
14437	1	32876	12188	1	32820	
14438	1	32870	12189	1	32710	
14439	1	32932	12190	1	32816	
14440	1	32816	12191	1	32824	
14441	1	32672	12192	1	32676	
14442	1	32829	12193	1	32808	
14443	1	32984	12194	1	32852	
14444	1	33156	12195	1	32910	
14445	1	33220	12196	1	33040	
14446	1	33096	12197	1	33076	
14447	1	32700	12198	1	32744	
14448	1	33074	12199	1	32730	
14449	1	32648	12200	1	32684	
14450	1	32592	12201	1	32536	
14451	1	32656	12202	1	32622	
14452	1	32788	12203	1	32844	
14453	1	32320	12204	1	32676	
14454	1	32556	12205	1	32472	
14455	1	32740	12206	1	32579	
14456	1	32629	12207	1	32662	
14457	1	32804	12208	1	32686	
14458	1	32904	12209	1	32728	
14459	1	32549	12210	1	32668	
14460	1	32852	12211	1	32592	
14461	1	33056	12212	1	32763	
14462	1	32897	12213	1	32836	
14463	1	32860	12214	1	32796	
14464	1	33056	12215	1	33048	
14465	1	32780	12216	1	32834	
14466	1	32676	12217	1	32652	
14467	1	32904	12218	1	32848	
14468	1	32753	12219	1	32920	
14469	1	32692	12220	1	32624	
14470	1	32800	12221	1	32832	
14471	1	32628	12222	1	32720	
14472	1	32586	12223	1	32686	
14473	1	32760	12224	1	32821	
14474	1	32897	12225	1	32754	
14475	1	32640	12226	1	32700	
14476	1	32710	12227	1	32580	
14477	1	32688	12228	1	32586	
14478	1	32705	12229	1	32606	
14479	1	32812	12230	1	32648	
14480	1	32736	12231	1	32646	
14481	1	32660	12232	1	32496	
14482	1	32720	12233	1	32658	
14483	1	32704	12234	1	32752	
14484	1	32614	12235	1	32720	
14485	1	33012	12236	1	32832	
14486	1	33060	12237	1	32992	
14487	1	32769	12238	1	32962	
14488	1	32816	12239	1	32820	
14489	1	32804	12240	1	32728	
14490	1	32596	12241	1	32608	
14491	1	32796	12242	1	32692	
14492	1	32852	12243	1	32875	
14493	1	32741	12244	1	32684	
14494	1	32900	12245	1	32672	
14495	1	32945	12246	1	32824	
14496	1	32764	12247	1	32716	
14497	1	32864	12248	1	32678	
14498	1	33165	12249	1	33128	
14499	1	32818	12250	1	32906	
14500	1	33172	12251	1	33020	
14501	1	33056	12252	1	33152	
14502	1	32720	12253	1	32762	
14503	1	32828	12254	1	32640	
14504	1	32956	12255	1	32884	
14505	1	32836	12256	1	32754	
14506	1	32798	12257	1	32744	
14507	1	32964	12258	1	32864	
14508	1	32744	12259	1	32728	
14509	1	32408	12260	1	32538	
14510	1	32510	12261	1	32476	
14511	1	32321	12262	1	32325	
14512	1	32509	12263	1	32364	
14513	1	32868	12264	1	32608	
14514	1	32780	12265	1	32820	
14515	1	32644	12266	1	32704	
14516	1	32625	12267	1	32664	
14517	1	32576	12268	1	32592	
14518	1	32541	12269	1	32448	
14519	1	32768	12270	1	32622	
14520	1	32862	12271	1	32980	
14521	1	32896	12272	1	32808	
14522	1	33049	12273	1	32921	
14523	1	32970	12274	1	32865	
14524	1	32912	12275	1	32897	
14525	1	33162	12276	1	32982	
14526	1	32916	12277	1	32784	
14527	1	32916	12278	1	32764	
14528	1	32932	12279	1	32985	
14529	1	32864	12280	1	32958	
14530	1	32376	12281	1	32644	
14531	1	32566	12282	1	32482	
14532	1	32650	12283	1	32546	
14533	1	32332	12284	1	32445	
14534	1	32752	12285	1	32648	
14535	1	32748	12286	1	32868	
14536	1	32469	12287	1	32532	
14537	1	32864	12288	1	32660	
14538	1	32829	12289	1	32633	
14539	1	32744	12290	1	32452	
14540	1	32852	12291	1	32684	
14541	1	32892	12292	1	32956	
14542	1	32948	12293	1	32904	
14543	1	33188	12294	1	32900	
14544	1	33128	12295	1	33110	
14545	1	32817	12296	1	32836	
14546	1	32724	12297	1	32760	
14547	1	32945	12298	1	32828	
14548	1	32740	12299	1	32712	
14549	1	32846	12300	1	32696	
14550	1	32960	12301	1	32836	
14551	1	32764	12302	1	32696	
14552	1	32752	12303	1	32608	
14553	1	32992	12304	1	32873	
14554	1	32968	12305	1	32848	
14555	1	32884	12306	1	32892	
14556	1	32864	12307	1	32932	
14557	1	32652	12308	1	32621	
14558	1	32576	12309	1	32572	
14559	1	32760	12310	1	32692	
14560	1	32780	12311	1	32594	
14561	1	32829	12312	1	32744	
14562	1	32924	12313	1	32878	
14563	1	32848	12314	1	32828	
14564	1	32556	12315	1	32601	
14565	1	32656	12316	1	32648	
14566	1	32668	12317	1	32632	
14567	1	32692	12318	1	32614	
14568	1	32773	12319	1	32654	
14569	1	32762	12320	1	32680	
14570	1	32598	12321	1	32649	
14571	1	32796	12322	1	32800	
14572	1	32884	12323	1	32860	
14573	1	32940	12324	1	32782	
14574	1	33188	12325	1	32972	
14575	1	33196	12326	1	32954	
14576	1	32712	12327	1	32648	
14577	1	32764	12328	1	32628	
14578	1	32860	12329	1	32788	
14579	1	32588	12330	1	32665	
14580	1	32660	12331	1	32636	
14581	1	32785	12332	1	32784	
14582	1	32856	12333	1	32864	
14583	1	33050	12334	1	32859	
14584	1	32896	12335	1	32800	
14585	1	32680	12336	1	32788	
14586	1	32772	12337	1	32804	
14587	1	32556	12338	1	32697	
14588	1	32464	12339	1	32536	
14589	1	32653	12340	1	32568	
14590	1	32660	12341	1	32676	
14591	1	32702	12342	1	32729	
14592	1	32881	12343	1	32736	
14593	1	33004	12344	1	32960	
14594	1	33124	12345	1	33073	
14595	1	32916	12346	1	32857	
14596	1	32992	12347	1	32930	
14597	1	32800	12348	1	32696	
14598	1	32816	12349	1	32620	
14599	1	32888	12350	1	32778	
14600	1	32752	12351	1	32592	
14601	1	32888	12352	1	32897	
14602	1	33134	12353	1	33091	
14603	1	32812	12354	1	32822	
14604	1	32456	12355	1	32560	
14605	1	32716	12356	1	32858	
14606	1	32709	12357	1	32788	
14607	1	32526	12358	1	32556	
14608	1	32832	12359	1	32732	
14609	1	32807	12360	1	32825	
14610	1	32586	12361	1	32656	
14611	1	32764	12362	1	32696	
14612	1	32704	12363	1	32682	
14613	1	32781	12364	1	32732	
14614	1	32948	12365	1	32737	
14615	1	32754	12366	1	32672	
14616	1	32696	12367	1	32592	
14617	1	32773	12368	1	32688	
14618	1	32728	12369	1	32714	
14619	1	32564	12370	1	32624	
14620	1	32768	12371	1	32575	
14621	1	33036	12372	1	32870	
14622	1	32664	12373	1	32780	
14623	1	32810	12374	1	32636	
14624	1	33070	12375	1	32872	
14625	1	32741	12376	1	32732	
14626	1	32764	12377	1	32740	
14627	1	32861	12378	1	32738	
14628	1	32548	12379	1	32494	
14629	1	32896	12380	1	32620	
14630	1	32845	12381	1	32825	
14631	1	32852	12382	1	32724	
14632	1	33070	12383	1	33084	
14633	1	32898	12384	1	32944	
14634	1	32732	12385	1	32816	
14635	1	32757	12386	1	32820	
14636	1	32956	12387	1	32908	
14637	1	32784	12388	1	32680	
14638	1	32644	12389	1	32333	
14639	1	32653	12390	1	32516	
14640	1	32534	12391	1	32522	
14641	1	32524	12392	1	32489	
14642	1	32782	12393	1	32825	
14643	1	32792	12394	1	32890	
14644	1	32808	12395	1	32800	
14645	1	32832	12396	1	32868	
14646	1	32752	12397	1	32820	
14647	1	33016	12398	1	32712	
14648	1	33066	12399	1	32982	
14649	1	32932	12400	1	32740	
14650	1	32900	12401	1	32770	
14651	1	32814	12402	1	32824	
14652	1	32652	12403	1	32720	
14653	1	32608	12404	1	32540	
14654	1	32924	12405	1	32862	
14655	1	33160	12406	1	33008	
14656	1	33008	12407	1	32908	
14657	1	33032	12408	1	32840	
14658	1	32976	12409	1	32928	
14659	1	32920	12410	1	32852	
14660	1	33176	12411	1	33110	
14661	1	32962	12412	1	32934	
14662	1	32744	12413	1	32720	
14663	1	33043	12414	1	32858	
14664	1	32692	12415	1	32684	
14665	1	32534	12416	1	32394	
14666	1	32600	12417	1	32612	
14667	1	32644	12418	1	32600	
14668	1	32172	12419	1	32336	
14669	1	32400	12420	1	32292	
14670	1	32400	12421	1	32444	
14671	1	32417	12422	1	32328	
14672	1	32574	12423	1	32440	
14673	1	32744	12424	1	32584	
14674	1	32748	12425	1	32692	
14675	1	33004	12426	1	32889	
14676	1	33364	12427	1	33248	
14677	1	33260	12428	1	33176	
14678	1	33134	12429	1	32972	
14679	1	32832	12430	1	32848	
14680	1	32481	12431	1	32516	
14681	1	32768	12432	1	32680	
14682	1	33160	12433	1	33110	
14683	1	33016	12434	1	32952	
14684	1	32768	12435	1	32998	
14685	1	33005	12436	1	33180	
14686	1	32792	12437	1	32908	
14687	1	32704	12438	1	32628	
14688	1	32988	12439	1	32784	
14689	1	32740	12440	1	32552	
14690	1	32708	12441	1	32596	
14691	1	32783	12442	1	32677	
14692	1	32630	12443	1	32580	
14693	1	32456	12444	1	32312	
14694	1	32604	12445	1	32391	
14695	1	32482	12446	1	32492	
14696	1	32706	12447	1	32524	
14697	1	32888	12448	1	32688	
14698	1	32736	12449	1	32576	
14699	1	32304	12450	1	32394	
14700	1	32348	12451	1	32520	
14701	1	32461	12452	1	32720	
14702	1	32692	12453	1	32744	
14703	1	33024	12454	1	32928	
14704	1	33038	12455	1	32978	
14705	1	32788	12456	1	32920	
14706	1	32989	12457	1	32913	
14707	1	33108	12458	1	32996	
14708	1	32661	12459	1	32756	
14709	1	32791	12460	1	32690	
14710	1	32886	12461	1	32846	
14711	1	32895	12462	1	32698	
14712	1	32994	12463	1	32904	
14713	1	33012	12464	1	32879	
14714	1	32745	12465	1	32560	
14715	1	32920	12466	1	32658	
14716	1	32816	12467	1	33050	
14717	1	32744	12468	1	32800	
14718	1	32950	12469	1	32994	
14719	1	32628	12470	1	32840	
14720	1	32464	12471	1	32555	
14721	1	32488	12472	1	32336	
14722	1	32777	12473	1	32508	
14723	1	32772	12474	1	32569	
14724	1	32842	12475	1	32612	
14725	1	32936	12476	1	32804	
14726	1	32636	12477	1	32429	
14727	1	32544	12478	1	32552	
14728	1	32728	12479	1	32740	
14729	1	32552	12480	1	32621	
14730	1	32701	12481	1	32704	
14731	1	33064	12482	1	32952	
14732	1	33048	12483	1	33010	
14733	1	32948	12484	1	32872	
14734	1	33149	12485	1	33152	
14735	1	33236	12486	1	33088	
14736	1	32872	12487	1	32656	
14737	1	33152	12488	1	33012	
14738	1	33129	12489	1	32912	
14739	1	32904	12490	1	32638	
14740	1	32932	12491	1	32620	
14741	1	32536	12492	1	32608	
14742	1	32700	12493	1	32609	
14743	1	32734	12494	1	32744	
14744	1	32612	12495	1	32714	
14745	1	32384	12496	1	32540	
14746	1	32416	12497	1	32370	
14747	1	32560	12498	1	32492	
14748	1	32306	12499	1	32348	
14749	1	32472	12500	1	32564	
14750	1	32578	12501	1	32640	
14751	1	32732	12502	1	32720	
14752	1	32888	12503	1	32712	
14753	1	32926	12504	1	33000	
14754	1	32936	12505	1	33004	
14755	1	33060	12506	1	33152	
14756	1	33072	12507	1	33202	
14757	1	32964	12508	1	32990	
14758	1	33412	12509	1	33106	
14759	1	33270	12510	1	32992	
14760	1	32965	12511	1	32808	
14761	1	33060	12512	1	32901	
14762	1	33176	12513	1	32817	
14763	1	32862	12514	1	32820	
14764	1	33020	12515	1	33036	
14765	1	33098	12516	1	33108	
14766	1	32805	12517	1	32824	
14767	1	32550	12518	1	32658	
14768	1	32621	12519	1	32624	
14769	1	32384	12520	1	32464	
14770	1	32572	12521	1	32524	
14771	1	32605	12522	1	32672	
14772	1	32426	12523	1	32523	
14773	1	32406	12524	1	32450	
14774	1	32822	12525	1	32586	
14775	1	32685	12526	1	32568	
14776	1	32632	12527	1	32560	
14777	1	32996	12528	1	32764	
14778	1	32673	12529	1	32581	
14779	1	32588	12530	1	32448	
14780	1	32670	12531	1	32701	
14781	1	32509	12532	1	32620	
14782	1	32612	12533	1	32544	
14783	1	32904	12534	1	32783	
14784	1	32944	12535	1	32850	
14785	1	33008	12536	1	32828	
14786	1	32948	12537	1	32868	
14787	1	32740	12538	1	32728	
14788	1	32552	12539	1	32496	
14789	1	32754	12540	1	32728	
14790	1	32748	12541	1	32752	
14791	1	32846	12542	1	32608	
14792	1	33090	12543	1	32796	
14793	1	33060	12544	1	33113	
14794	1	32916	12545	1	33004	
14795	1	33136	12546	1	33056	
14796	1	32932	12547	1	32996	
14797	1	32716	12548	1	32884	
14798	1	32744	12549	1	32848	
14799	1	32840	12550	1	33007	
14800	1	32640	12551	1	32800	
14801	1	32782	12552	1	32742	
14802	1	32720	12553	1	32682	
14803	1	32348	12554	1	32298	
14804	1	32582	12555	1	32294	
14805	1	32864	12556	1	32568	
14806	1	32488	12557	1	32416	
14807	1	32672	12558	1	32616	
14808	1	32720	12559	1	32580	
14809	1	32316	12560	1	32284	
14810	1	32528	12561	1	32410	
14811	1	32734	12562	1	32632	
14812	1	32980	12563	1	32688	
14813	1	32960	12564	1	32908	
14814	1	32903	12565	1	33108	
14815	1	32904	12566	1	32868	
14816	1	33034	12567	1	32856	
14817	1	33036	12568	1	32848	
14818	1	32924	12569	1	32850	
14819	1	33084	12570	1	32968	
14820	1	33336	12571	1	33120	
14821	1	33154	12572	1	33120	
14822	1	32920	12573	1	32924	
14823	1	33026	12574	1	33044	
14824	1	32972	12575	1	33184	
14825	1	32829	12576	1	32720	
14826	1	32784	12577	1	32704	
14827	1	32468	12578	1	32708	
14828	1	32472	12579	1	32522	
14829	1	32654	12580	1	32608	
14830	1	32676	12581	1	32544	
14831	1	32404	12582	1	32268	
14832	1	32564	12583	1	32384	
14833	1	32660	12584	1	32512	
14834	1	32624	12585	1	32431	
14835	1	32844	12586	1	32812	
14836	1	32765	12587	1	32820	
14837	1	32516	12588	1	32608	
14838	1	32852	12589	1	32668	
14839	1	32981	12590	1	32744	
14840	1	32728	12591	1	32670	
14841	1	32829	12592	1	32682	
14842	1	32980	12593	1	32804	
14843	1	32776	12594	1	32750	
14844	1	32781	12595	1	32677	
14845	1	32860	12596	1	32775	
14846	1	32785	12597	1	32836	
14847	1	32824	12598	1	32816	
14848	1	32828	12599	1	32802	
14849	1	32756	12600	1	32800	
14850	1	32665	12601	1	32786	
14851	1	32884	12602	1	32976	
14852	1	32898	12603	1	32775	
14853	1	33092	12604	1	32891	
14854	1	33185	12605	1	33188	
14855	1	33014	12606	1	32924	
14856	1	32818	12607	1	33028	
14857	1	32944	12608	1	32996	
14858	1	32702	12609	1	32804	
14859	1	32677	12610	1	32690	
14860	1	32980	12611	1	32756	
14861	1	32528	12612	1	32572	
14862	1	32476	12613	1	32324	
14863	1	32732	12614	1	32504	
14864	1	32868	12615	1	32722	
14865	1	32840	12616	1	32696	
14866	1	32954	12617	1	32776	
14867	1	32772	12618	1	32760	
14868	1	32643	12619	1	32722	
14869	1	32732	12620	1	32746	
14870	1	32609	12621	1	32670	
14871	1	32684	12622	1	32592	
14872	1	32856	12623	1	32800	
14873	1	32784	12624	1	32904	
14874	1	32832	12625	1	33006	
14875	1	33164	12626	1	33082	
14876	1	32993	12627	1	32914	
14877	1	32872	12628	1	32800	
14878	1	32804	12629	1	32716	
14879	1	32768	12630	1	32680	
14880	1	32712	12631	1	32698	
14881	1	32778	12632	1	32788	
14882	1	32813	12633	1	32760	
14883	1	32760	12634	1	32720	
14884	1	32924	12635	1	32850	
14885	1	32908	12636	1	32880	
14886	1	32698	12637	1	32612	
14887	1	32948	12638	1	32720	
14888	1	33085	12639	1	32935	
14889	1	32780	12640	1	32688	
14890	1	32772	12641	1	32496	
14891	1	32796	12642	1	32602	
14892	1	32677	12643	1	32704	
14893	1	32916	12644	1	32942	
14894	1	32856	12645	1	32956	
14895	1	32761	12646	1	32916	
14896	1	32890	12647	1	32802	
14897	1	32736	12648	1	32738	
14898	1	32616	12649	1	32564	
14899	1	32653	12650	1	32634	
14900	1	32824	12651	1	32752	
14901	1	32556	12652	1	32558	
14902	1	32474	12653	1	32348	
14903	1	32660	12654	1	32592	
14904	1	32576	12655	1	32722	
14905	1	32558	12656	1	32504	
14906	1	32506	12657	1	32666	
14907	1	32388	12658	1	32586	
14908	1	32464	12659	1	32522	
14909	1	32592	12660	1	32664	
14910	1	32560	12661	1	32704	
14911	1	32796	12662	1	32712	
14912	1	33180	12663	1	32944	
14913	1	33252	12664	1	32912	
14914	1	33109	12665	1	32784	
14915	1	33232	12666	1	33004	
14916	1	33140	12667	1	33072	
14917	1	33076	12668	1	33056	
14918	1	32944	12669	1	32880	
14919	1	32872	12670	1	32712	
14920	1	32800	12671	1	32634	
14921	1	32908	12672	1	32826	
14922	1	33000	12673	1	33024	
14923	1	32724	12674	1	32832	
14924	1	32641	12675	1	32612	
14925	1	32810	12676	1	32696	
14926	1	32548	12677	1	32608	
14927	1	32624	12678	1	32542	
14928	1	32748	12679	1	32656	
14929	1	32636	12680	1	32528	
14930	1	32600	12681	1	32564	
14931	1	32550	12682	1	32576	
14932	1	32572	12683	1	32532	
14933	1	32792	12684	1	32755	
14934	1	33124	12685	1	33046	
14935	1	32864	12686	1	32892	
14936	1	32524	12687	1	32728	
14937	1	32646	12688	1	32812	
14938	1	32615	12689	1	32573	
14939	1	32692	12690	1	32580	
14940	1	32748	12691	1	32756	
14941	1	32716	12692	1	32708	
14942	1	32584	12693	1	32690	
14943	1	32756	12694	1	32698	
14944	1	32708	12695	1	32500	
14945	1	32612	12696	1	32488	
14946	1	32948	12697	1	32864	
14947	1	32745	12698	1	32795	
14948	1	32648	12699	1	32656	
14949	1	33152	12700	1	32898	
14950	1	33032	12701	1	32908	
14951	1	32818	12702	1	32816	
14952	1	32944	12703	1	32928	
14953	1	32726	12704	1	32775	
14954	1	32612	12705	1	32688	
14955	1	32856	12706	1	32832	
14956	1	32996	12707	1	32836	
14957	1	32812	12708	1	32756	
14958	1	32820	12709	1	32628	
14959	1	32653	12710	1	32556	
14960	1	32518	12711	1	32571	
14961	1	32536	12712	1	32596	
14962	1	32744	12713	1	32632	
14963	1	32792	12714	1	32722	
14964	1	32729	12715	1	32746	
14965	1	32661	12716	1	32571	
14966	1	32553	12717	1	32416	
14967	1	32708	12718	1	32686	
14968	1	32836	12719	1	32856	
14969	1	32900	12720	1	32784	
14970	1	32886	12721	1	32797	
14971	1	32877	12722	1	32804	
14972	1	32856	12723	1	32820	
14973	1	32980	12724	1	32880	
14974	1	33304	12725	1	33285	
14975	1	33056	12726	1	33004	
14976	1	33204	12727	1	33065	
14977	1	33268	12728	1	33058	
14978	1	32928	12729	1	32754	
14979	1	32840	12730	1	32642	
14980	1	32796	12731	1	32806	
14981	1	32748	12732	1	32682	
14982	1	32664	12733	1	32548	
14983	1	32864	12734	1	32722	
14984	1	32844	12735	1	32888	
14985	1	32700	12736	1	32724	
14986	1	32756	12737	1	32673	
14987	1	32784	12738	1	32568	
14988	1	32676	12739	1	32492	
14989	1	32848	12740	1	32596	
14990	1	32822	12741	1	32636	
14991	1	32696	12742	1	32589	
14992	1	33012	12743	1	32826	
14993	1	32772	12744	1	32858	
14994	1	32709	12745	1	32656	
14995	1	33034	12746	1	32842	
14996	1	32772	12747	1	32852	
14997	1	32617	12748	1	32834	
14998	1	32837	12749	1	32960	
14999	1	32824	12750	1	32940	
15000	1	32552	12751	1	32660	
15001	1	32740	12752	1	32669	
15002	1	32840	12753	1	32826	
15003	1	32892	12754	1	32994	
15004	1	32964	12755	1	32923	
15005	1	32760	12756	1	32842	
15006	1	32541	12757	1	32596	
15007	1	32656	12758	1	32600	
15008	1	32550	12759	1	32668	
15009	1	32492	12760	1	32466	
15010	1	32574	12761	1	32530	
15011	1	32665	12762	1	32540	
15012	1	32600	12763	1	32366	
15013	1	32660	12764	1	32620	
15014	1	32924	12765	1	32752	
15015	1	32988	12766	1	32844	
15016	1	33012	12767	1	32750	
15017	1	32845	12768	1	32872	
15018	1	32636	12769	1	32706	
15019	1	32656	12770	1	32532	
15020	1	32840	12771	1	32644	
15021	1	32760	12772	1	32704	
15022	1	32830	12773	1	32703	
15023	1	32748	12774	1	32608	
15024	1	32572	12775	1	32498	
15025	1	32484	12776	1	32524	
15026	1	32676	12777	1	32776	
15027	1	32697	12778	1	32842	
15028	1	32576	12779	1	32728	
15029	1	33046	12780	1	33040	
15030	1	33200	12781	1	33112	
15031	1	33028	12782	1	32852	
15032	1	33240	12783	1	33066	
15033	1	33173	12784	1	33232	
15034	1	33009	12785	1	32902	
15035	1	32972	12786	1	32820	
15036	1	32906	12787	1	32828	
15037	1	32892	12788	1	32688	
15038	1	33152	12789	1	32872	
15039	1	32956	12790	1	32774	
15040	1	32460	12791	1	32350	
15041	1	32440	12792	1	32584	
15042	1	32500	12793	1	32604	
15043	1	32472	12794	1	32578	
15044	1	32352	12795	1	32526	
15045	1	32540	12796	1	32664	
15046	1	32392	12797	1	32536	
15047	1	32372	12798	1	32298	
15048	1	32392	12799	1	32548	
15049	1	32480	12800	1	32465	
15050	1	32716	12801	1	32532	
15051	1	32748	12802	1	32696	
15052	1	32624	12803	1	32588	
15053	1	32828	12804	1	32704	
15054	1	32996	12805	1	32909	
15055	1	32992	12806	1	32892	
15056	1	33118	12807	1	33012	
15057	1	33178	12808	1	33200	
15058	1	32993	12809	1	32872	
15059	1	32988	12810	1	32888	
15060	1	33092	12811	1	33074	
15061	1	32996	12812	1	32874	
15062	1	32932	12813	1	32708	
15063	1	33084	12814	1	32984	
15064	1	32925	12815	1	32842	
15065	1	32601	12816	1	32610	
15066	1	32510	12817	1	32610	
15067	1	32582	12818	1	32550	
15068	1	32512	12819	1	32470	
15069	1	32664	12820	1	32688	
15070	1	32380	12821	1	32576	
15071	1	32435	12822	1	32444	
15072	1	32732	12823	1	32720	
15073	1	32692	12824	1	32668	
15074	1	32576	12825	1	32382	
15075	1	32812	12826	1	32708	
15076	1	32920	12827	1	32800	
15077	1	32858	12828	1	32728	
15078	1	32964	12829	1	32900	
15079	1	32956	12830	1	32810	
15080	1	33010	12831	1	32924	
15081	1	33088	12832	1	32920	
15082	1	33133	12833	1	32948	
15083	1	33197	12834	1	33034	
15084	1	33176	12835	1	33322	
15085	1	33180	12836	1	33146	
15086	1	32896	12837	1	32856	
15087	1	32781	12838	1	32820	
15088	1	32708	12839	1	32852	
15089	1	32684	12840	1	32673	
15090	1	32868	12841	1	32796	
15091	1	33167	12842	1	33110	
15092	1	32848	12843	1	32696	
15093	1	32846	12844	1	32800	
15094	1	32952	12845	1	32898	
15095	1	32796	12846	1	32720	
15096	1	32828	12847	1	32652	
15097	1	32796	12848	1	32644	
15098	1	32548	12849	1	32484	
15099	1	32578	12850	1	32524	
15100	1	32529	12851	1	32600	
15101	1	32212	12852	1	32176	
15102	1	32592	12853	1	32496	
15103	1	33117	12854	1	32822	
15104	1	32772	12855	1	32792	
15105	1	32548	12856	1	32672	
15106	1	32660	12857	1	32644	
15107	1	32704	12858	1	32716	
15108	1	32424	12859	1	32654	
15109	1	32600	12860	1	32680	
15110	1	32668	12861	1	32822	
15111	1	32732	12862	1	32701	
15112	1	33060	12863	1	32832	
15113	1	33136	12864	1	32944	
15114	1	33014	12865	1	32860	
15115	1	33168	12866	1	32992	
15116	1	32878	12867	1	32744	
15117	1	32674	12868	1	32564	
15118	1	32651	12869	1	32720	
15119	1	32752	12870	1	32868	
15120	1	32580	12871	1	32670	
15121	1	32712	12872	1	32650	
15122	1	32792	12873	1	32673	
15123	1	32740	12874	1	32493	
15124	1	33052	12875	1	32708	
15125	1	32924	12876	1	33004	
15126	1	32268	12877	1	32498	
15127	1	32188	12878	1	32304	
15128	1	32252	12879	1	32374	
15129	1	32300	12880	1	32482	
15130	1	32680	12881	1	32484	
15131	1	32866	12882	1	32804	
15132	1	32742	12883	1	32627	
15133	1	32928	12884	1	32651	
15134	1	32932	12885	1	32920	
15135	1	32730	12886	1	32683	
15136	1	32924	12887	1	32656	
15137	1	33094	12888	1	32850	
15138	1	32860	12889	1	32812	
15139	1	32860	12890	1	32796	
15140	1	32872	12891	1	32876	
15141	1	32812	12892	1	32858	
15142	1	32928	12893	1	32932	
15143	1	33224	12894	1	33156	
15144	1	33016	12895	1	32860	
15145	1	32898	12896	1	32865	
15146	1	32800	12897	1	32840	
15147	1	32676	12898	1	32720	
15148	1	32802	12899	1	32670	
15149	1	33032	12900	1	32792	
15150	1	32984	12901	1	32912	
15151	1	32818	12902	1	32842	
15152	1	33020	12903	1	32900	
15153	1	32998	12904	1	32928	
15154	1	32952	12905	1	32800	
15155	1	32972	12906	1	32892	
15156	1	32674	12907	1	32636	
15157	1	32500	12908	1	32408	
15158	1	32773	12909	1	32568	
15159	1	32556	12910	1	32626	
15160	1	32568	12911	1	32512	
15161	1	32665	12912	1	32528	
15162	1	32520	12913	1	32528	
15163	1	32524	12914	1	32464	
15164	1	33164	12915	1	32724	
15165	1	32820	12916	1	32909	
15166	1	32874	12917	1	32740	
15167	1	32980	12918	1	32754	
15168	1	32845	12919	1	32922	
15169	1	32494	12920	1	32760	
15170	1	32741	12921	1	32704	
15171	1	32896	12922	1	32976	
15172	1	33124	12923	1	32986	
15173	1	33244	12924	1	33170	
15174	1	33185	12925	1	33296	
15175	1	32944	12926	1	32942	
15176	1	32920	12927	1	32800	
15177	1	33094	12928	1	32932	
15178	1	32853	12929	1	32784	
15179	1	32752	12930	1	32630	
15180	1	32606	12931	1	32528	
15181	1	32353	12932	1	32378	
15182	1	32392	12933	1	32480	
15183	1	32526	12934	1	32570	
15184	1	32414	12935	1	32428	
15185	1	32612	12936	1	32494	
15186	1	32800	12937	1	32702	
15187	1	32556	12938	1	32596	
15188	1	32420	12939	1	32432	
15189	1	32686	12940	1	32509	
15190	1	32676	12941	1	32524	
15191	1	32664	12942	1	32504	
15192	1	33000	12943	1	32976	
15193	1	32956	12944	1	33040	
15194	1	33068	12945	1	33020	
15195	1	33007	12946	1	33176	
15196	1	33020	12947	1	32968	
15197	1	32928	12948	1	32805	
15198	1	32974	12949	1	32852	
15199	1	32910	12950	1	32868	
15200	1	32896	12951	1	32824	
15201	1	32936	12952	1	32918	
15202	1	32844	12953	1	32960	
15203	1	32732	12954	1	32688	
15204	1	32944	12955	1	32686	
15205	1	33124	12956	1	32957	
15206	1	32928	12957	1	32800	
15207	1	32958	12958	1	32896	
15208	1	32898	12959	1	32872	
15209	1	32496	12960	1	32434	
15210	1	32624	12961	1	32496	
15211	1	32548	12962	1	32650	
15212	1	32796	12963	1	32706	
15213	1	33008	12964	1	32996	
15214	1	33002	12965	1	32836	
15215	1	32632	12966	1	32598	
15216	1	32724	12967	1	32612	
15217	1	32708	12968	1	32733	
15218	1	32332	12969	1	32532	
15219	1	32576	12970	1	32435	
15220	1	32606	12971	1	32602	
15221	1	32548	12972	1	32596	
15222	1	32612	12973	1	32592	
15223	1	32714	12974	1	32724	
15224	1	32644	12975	1	32620	
15225	1	32760	12976	1	32568	
15226	1	32714	12977	1	32700	
15227	1	32653	12978	1	32692	
15228	1	32798	12979	1	32753	
15229	1	32907	12980	1	32857	
15230	1	32856	12981	1	32828	
15231	1	32940	12982	1	32708	
15232	1	33393	12983	1	33012	
15233	1	33268	12984	1	33012	
15234	1	32964	12985	1	32858	
15235	1	33052	12986	1	33174	
15236	1	32876	12987	1	32900	
15237	1	32760	12988	1	32724	
15238	1	32708	12989	1	32746	
15239	1	32596	12990	1	32736	
15240	1	32460	12991	1	32568	
15241	1	32664	12992	1	32590	
15242	1	32503	12993	1	32680	
15243	1	32549	12994	1	32477	
15244	1	32700	12995	1	32560	
15245	1	32772	12996	1	32610	
15246	1	32768	12997	1	32588	
15247	1	32970	12998	1	32654	
15248	1	32838	12999	1	32736	
15249	1	32652	13000	1	32588	
15250	1	32488	13001	1	32608	
15251	1	32550	13002	1	32736	
15252	1	32559	13003	1	32496	
15253	1	32909	13004	1	32722	
15254	1	33292	13005	1	33060	
15255	1	32932	13006	1	32936	
15256	1	32720	13007	1	32918	
15257	1	32829	13008	1	32856	
15258	1	32706	13009	1	32670	
15259	1	32900	13010	1	32680	
15260	1	32852	13011	1	32836	
15261	1	32836	13012	1	32521	
15262	1	32692	13013	1	32576	
15263	1	32772	13014	1	32800	
15264	1	32724	13015	1	32664	
15265	1	32876	13016	1	32732	
15266	1	33100	13017	1	33088	
15267	1	32861	13018	1	33005	
15268	1	32680	13019	1	32666	
15269	1	32662	13020	1	32720	
15270	1	32756	13021	1	32680	
15271	1	32900	13022	1	32660	
15272	1	32898	13023	1	33098	
15273	1	32836	13024	1	32944	
15274	1	32836	13025	1	32868	
15275	1	33038	13026	1	32902	
15276	1	32736	13027	1	32468	
15277	1	32574	13028	1	32353	
15278	1	32867	13029	1	32660	
15279	1	32676	13030	1	32736	
15280	1	32532	13031	1	32652	
15281	1	32736	13032	1	32648	
15282	1	32728	13033	1	32582	
15283	1	32608	13034	1	32552	
15284	1	32638	13035	1	32820	
15285	1	32560	13036	1	32746	
15286	1	32728	13037	1	32592	
15287	1	32932	13038	1	32728	
15288	1	32864	13039	1	32783	
15289	1	32820	13040	1	32716	
15290	1	32800	13041	1	32840	
15291	1	32685	13042	1	32768	
15292	1	32644	13043	1	32678	
15293	1	33036	13044	1	33072	
15294	1	33132	13045	1	33158	
15295	1	33036	13046	1	33016	
15296	1	33244	13047	1	33088	
15297	1	33281	13048	1	33028	
15298	1	33028	13049	1	32740	
15299	1	33100	13050	1	32736	
15300	1	33066	13051	1	33194	
15301	1	32850	13052	1	32936	
15302	1	32728	13053	1	32590	
15303	1	32892	13054	1	32584	
15304	1	32430	13055	1	32476	
15305	1	32572	13056	1	32624	
15306	1	32640	13057	1	32762	
15307	1	32480	13058	1	32660	
15308	1	32717	13059	1	32540	
15309	1	32512	13060	1	32532	
15310	1	32148	13061	1	32320	
15311	1	32328	13062	1	32248	
15312	1	32612	13063	1	32466	
15313	1	32628	13064	1	32486	
15314	1	32736	13065	1	32575	
15315	1	32720	13066	1	32754	
15316	1	32548	13067	1	32690	
15317	1	32544	13068	1	32628	
15318	1	32824	13069	1	32772	
15319	1	32872	13070	1	32864	
15320	1	32868	13071	1	32891	
15321	1	32937	13072	1	33008	
15322	1	32934	13073	1	33044	
15323	1	33100	13074	1	32994	
15324	1	33344	13075	1	33328	
15325	1	33292	13076	1	33104	
15326	1	33037	13077	1	32728	
15327	1	33094	13078	1	32837	
15328	1	32878	13079	1	32940	
15329	1	32832	13080	1	32612	
15330	1	32840	13081	1	32608	
15331	1	32628	13082	1	32476	
15332	1	32440	13083	1	32242	
15333	1	32518	13084	1	32587	
15334	1	32832	13085	1	32923	
15335	1	32700	13086	1	32756	
15336	1	32734	13087	1	32586	
15337	1	32672	13088	1	32502	
15338	1	32052	13089	1	32320	
15339	1	32354	13090	1	32364	
15340	1	32592	13091	1	32416	
15341	1	32641	13092	1	32406	
15342	1	32852	13093	1	32608	
15343	1	32804	13094	1	32762	
15344	1	32820	13095	1	32768	
15345	1	32996	13096	1	32836	
15346	1	33196	13097	1	33088	
15347	1	33021	13098	1	32952	
15348	1	32880	13099	1	32920	
15349	1	32950	13100	1	33088	
15350	1	32785	13101	1	32848	
15351	1	32832	13102	1	32867	
15352	1	32944	13103	1	32824	
15353	1	32848	13104	1	32880	
15354	1	32953	13105	1	32868	
15355	1	33100	13106	1	33064	
15356	1	32912	13107	1	32840	
15357	1	32800	13108	1	32632	
15358	1	32841	13109	1	32664	
15359	1	32592	13110	1	32552	
15360	1	32712	13111	1	32402	
15361	1	32937	13112	1	32724	
15362	1	32872	13113	1	32848	
15363	1	32896	13114	1	32804	
15364	1	33088	13115	1	32928	
15365	1	32736	13116	1	32712	
15366	1	32634	13117	1	32576	
15367	1	32684	13118	1	32688	
15368	1	32608	13119	1	32704	
15369	1	32412	13120	1	32632	
15370	1	32640	13121	1	32634	
15371	1	32656	13122	1	32652	
15372	1	32512	13123	1	32504	
15373	1	32778	13124	1	32674	
15374	1	32960	13125	1	32746	
15375	1	32854	13126	1	32800	
15376	1	33016	13127	1	32988	
15377	1	32904	13128	1	32920	
15378	1	32581	13129	1	32676	
15379	1	32503	13130	1	32353	
15380	1	32636	13131	1	32512	
15381	1	32756	13132	1	32690	
15382	1	33128	13133	1	32888	
15383	1	33000	13134	1	33032	
15384	1	32822	13135	1	32624	
15385	1	32953	13136	1	32644	
15386	1	32924	13137	1	32997	
15387	1	32672	13138	1	32712	
15388	1	32940	13139	1	32850	
15389	1	33100	13140	1	33024	
15390	1	32760	13141	1	32800	
15391	1	32584	13142	1	32722	
15392	1	32972	13143	1	32824	
15393	1	32853	13144	1	32770	
15394	1	32864	13145	1	32763	
15395	1	33032	13146	1	32942	
15396	1	32792	13147	1	32866	
15397	1	32768	13148	1	32645	
15398	1	32637	13149	1	32470	
15399	1	32522	13150	1	32400	
15400	1	32620	13151	1	32524	
15401	1	32804	13152	1	32640	
15402	1	32788	13153	1	32704	
15403	1	32764	13154	1	32816	
15404	1	33068	13155	1	32897	
15405	1	32908	13156	1	32929	
15406	1	32869	13157	1	32880	
15407	1	32900	13158	1	32834	
15408	1	32648	13159	1	32729	
15409	1	32600	13160	1	32453	
15410	1	32710	13161	1	32682	
15411	1	32756	13162	1	32852	
15412	1	32708	13163	1	32644	
15413	1	32812	13164	1	32640	
15414	1	32952	13165	1	32832	
15415	1	32729	13166	1	32700	
15416	1	32884	13167	1	32824	
15417	1	32828	13168	1	32864	
15418	1	32548	13169	1	32524	
15419	1	32820	13170	1	32554	
15420	1	32852	13171	1	32858	
15421	1	32706	13172	1	32680	
15422	1	33040	13173	1	32815	
15423	1	33136	13174	1	33158	
15424	1	32864	13175	1	32896	
15425	1	32776	13176	1	32773	
15426	1	32964	13177	1	32880	
15427	1	32536	13178	1	32499	
15428	1	32612	13179	1	32322	
15429	1	32676	13180	1	32644	
15430	1	32580	13181	1	32606	
15431	1	32656	13182	1	32668	
15432	1	32736	13183	1	32829	
15433	1	32684	13184	1	32792	
15434	1	32848	13185	1	32860	
15435	1	32990	13186	1	32994	
15436	1	32759	13187	1	32722	
15437	1	32744	13188	1	32666	
15438	1	33028	13189	1	32971	
15439	1	32736	13190	1	32760	
15440	1	32860	13191	1	32740	
15441	1	33076	13192	1	32913	
15442	1	32828	13193	1	32904	
15443	1	32800	13194	1	32836	
15444	1	33088	13195	1	32912	
15445	1	32848	13196	1	32741	
15446	1	32704	13197	1	32600	
15447	1	32629	13198	1	32546	
15448	1	32524	13199	1	32581	
15449	1	32484	13200	1	32562	
15450	1	32768	13201	1	32816	
15451	1	32841	13202	1	32660	
15452	1	32468	13203	1	32472	
15453	1	32820	13204	1	32748	
15454	1	32768	13205	1	32870	
15455	1	32720	13206	1	32804	
15456	1	32802	13207	1	32720	
15457	1	33005	13208	1	32840	
15458	1	32832	13209	1	32720	
15459	1	32776	13210	1	32686	
15460	1	32740	13211	1	32742	
15461	1	32740	13212	1	32664	
15462	1	33000	13213	1	32884	
15463	1	32896	13214	1	32986	
15464	1	32920	13215	1	32984	
15465	1	32988	13216	1	32872	
15466	1	32844	13217	1	32926	
15467	1	32548	13218	1	32696	
15468	1	32824	13219	1	32636	
15469	1	32844	13220	1	32760	
15470	1	32614	13221	1	32432	
15471	1	32644	13222	1	32492	
15472	1	32768	13223	1	32706	
15473	1	32604	13224	1	32692	
15474	1	32672	13225	1	32570	
15475	1	32804	13226	1	32696	
15476	1	32848	13227	1	32773	
15477	1	32788	13228	1	32692	
15478	1	32808	13229	1	32636	
15479	1	32392	13230	1	32424	
15480	1	32680	13231	1	32550	
15481	1	32818	13232	1	32842	
15482	1	32612	13233	1	32644	
15483	1	32796	13234	1	32705	
15484	1	33328	13235	1	33200	
15485	1	33068	13236	1	32946	
15486	1	32724	13237	1	32688	
15487	1	32792	13238	1	32680	
15488	1	32856	13239	1	32792	
15489	1	32745	13240	1	32801	
15490	1	32682	13241	1	32792	
15491	1	32696	13242	1	32696	
15492	1	32726	13243	1	32472	
15493	1	32920	13244	1	32770	
15494	1	32776	13245	1	32700	
15495	1	32728	13246	1	32552	
15496	1	32988	13247	1	32780	
15497	1	32804	13248	1	32830	
15498	1	32652	13249	1	32712	
15499	1	32988	13250	1	32858	
15500	1	32828	13251	1	32826	
15501	1	32573	13252	1	32616	
15502	1	33008	13253	1	32774	
15503	1	33188	13254	1	33032	
15504	1	33044	13255	1	33002	
15505	1	33061	13256	1	32981	
15506	1	32848	13257	1	32868	
15507	1	32774	13258	1	32684	
15508	1	32826	13259	1	32676	
15509	1	32728	13260	1	32650	
15510	1	32828	13261	1	32664	
15511	1	32972	13262	1	32775	
15512	1	32854	13263	1	32841	
15513	1	32728	13264	1	32760	
15514	1	32900	13265	1	32816	
15515	1	32961	13266	1	32952	
15516	1	32596	13267	1	32738	
15517	1	32588	13268	1	32573	
15518	1	32800	13269	1	32832	
15519	1	32436	13270	1	32744	
15520	1	32416	13271	1	32376	
15521	1	32628	13272	1	32553	
15522	1	32680	13273	1	32624	
15523	1	32805	13274	1	32722	
15524	1	33056	13275	1	32992	
15525	1	32728	13276	1	32724	
15526	1	32716	13277	1	32588	
15527	1	32692	13278	1	32768	
15528	1	32492	13279	1	32588	
15529	1	32676	13280	1	32480	
15530	1	32989	13281	1	32744	
15531	1	33048	13282	1	33003	
15532	1	32952	13283	1	32958	
15533	1	33264	13284	1	33124	
15534	1	33116	13285	1	33204	
15535	1	32852	13286	1	32852	
15536	1	32960	13287	1	32860	
15537	1	32957	13288	1	33018	
15538	1	32828	13289	1	32828	
15539	1	33004	13290	1	32968	
15540	1	32824	13291	1	32680	
15541	1	32684	13292	1	32577	
15542	1	32608	13293	1	32608	
15543	1	32781	13294	1	32596	
15544	1	32758	13295	1	32664	
15545	1	32972	13296	1	32864	
15546	1	32848	13297	1	32924	
15547	1	32588	13298	1	32624	
15548	1	32604	13299	1	32562	
15549	1	32780	13300	1	32772	
15550	1	32618	13301	1	32596	
15551	1	32860	13302	1	32652	
15552	1	33072	13303	1	33000	
15553	1	32832	13304	1	32884	
15554	1	32916	13305	1	32857	
15555	1	32812	13306	1	32830	
15556	1	32676	13307	1	32688	
15557	1	32680	13308	1	32652	
15558	1	32836	13309	1	32762	
15559	1	32702	13310	1	32720	
15560	1	32776	13311	1	32704	
15561	1	32932	13312	1	32920	
15562	1	32721	13313	1	32780	
15563	1	32828	13314	1	32828	
15564	1	32952	13315	1	32826	
15565	1	32880	13316	1	32812	
15566	1	32781	13317	1	32772	
15567	1	32606	13318	1	32801	
15568	1	32376	13319	1	32588	
15569	1	32424	13320	1	32448	
15570	1	32696	13321	1	32500	
15571	1	32660	13322	1	32556	
15572	1	32793	13323	1	32648	
15573	1	32800	13324	1	32626	
15574	1	32825	13325	1	32522	
15575	1	32796	13326	1	32489	
15576	1	32792	13327	1	32696	
15577	1	32704	13328	1	32804	
15578	1	32572	13329	1	32692	
15579	1	32552	13330	1	32638	
15580	1	32784	13331	1	32732	
15581	1	32508	13332	1	32532	
15582	1	32516	13333	1	32462	
15583	1	32612	13334	1	32628	
15584	1	32509	13335	1	32594	
15585	1	32760	13336	1	32608	
15586	1	32992	13337	1	32944	
15587	1	33156	13338	1	33210	
15588	1	33353	13339	1	33120	
15589	1	33385	13340	1	33302	
15590	1	33064	13341	1	33014	
15591	1	33320	13342	1	33128	
15592	1	33268	13343	1	33164	
15593	1	32805	13344	1	32756	
15594	1	32568	13345	1	32544	
15595	1	32816	13346	1	32533	
15596	1	32669	13347	1	32358	
15597	1	32682	13348	1	32482	
15598	1	32826	13349	1	32676	
15599	1	32800	13350	1	32804	
15600	1	32722	13351	1	32804	
15601	1	32741	13352	1	32828	
15602	1	32744	13353	1	32734	
15603	1	32784	13354	1	32720	
15604	1	32813	13355	1	32766	
15605	1	32548	13356	1	32586	
15606	1	32528	13357	1	32413	
15607	1	32648	13358	1	32493	
15608	1	32504	13359	1	32408	
15609	1	32596	13360	1	32460	
15610	1	32860	13361	1	32678	
15611	1	32868	13362	1	32768	
15612	1	32968	13363	1	32790	
15613	1	33104	13364	1	32916	
15614	1	32984	13365	1	32982	
15615	1	32793	13366	1	32832	
15616	1	32688	13367	1	32868	
15617	1	32564	13368	1	32752	
15618	1	32516	13369	1	32632	
15619	1	32768	13370	1	32796	
15620	1	32574	13371	1	32736	
15621	1	32785	13372	1	32746	
15622	1	32992	13373	1	32914	
15623	1	32838	13374	1	32788	
15624	1	32516	13375	1	32572	
15625	1	32896	13376	1	32644	
15626	1	32992	13377	1	32950	
15627	1	32801	13378	1	32732	
15628	1	32828	13379	1	32630	
15629	1	32876	13380	1	32665	
15630	1	32701	13381	1	32576	
15631	1	32704	13382	1	32632	
15632	1	32700	13383	1	32764	
15633	1	32776	13384	1	32864	
15634	1	33002	13385	1	33008	
15635	1	33040	13386	1	33164	
15636	1	32592	13387	1	32592	
15637	1	32672	13388	1	32548	
15638	1	32592	13389	1	32520	
15639	1	32412	13390	1	32264	
15640	1	32794	13391	1	32677	
15641	1	33140	13392	1	32988	
15642	1	33012	13393	1	32976	
15643	1	33079	13394	1	32971	
15644	1	32916	13395	1	32931	
15645	1	32948	13396	1	32732	
15646	1	32832	13397	1	32640	
15647	1	32700	13398	1	32732	
15648	1	32588	13399	1	32664	
15649	1	32796	13400	1	32528	
15650	1	33046	13401	1	33006	
15651	1	32730	13402	1	32720	
15652	1	32684	13403	1	32632	
15653	1	33056	13404	1	32886	
15654	1	33006	13405	1	33036	
15655	1	32964	13406	1	33012	
15656	1	33316	13407	1	33252	
15657	1	33112	13408	1	33096	
15658	1	32884	13409	1	32736	
15659	1	32838	13410	1	32682	
15660	1	32773	13411	1	32696	
15661	1	32850	13412	1	32729	
15662	1	32980	13413	1	32888	
15663	1	32764	13414	1	32796	
15664	1	32660	13415	1	32562	
15665	1	32826	13416	1	32672	
15666	1	32656	13417	1	32680	
15667	1	32628	13418	1	32580	
15668	1	32712	13419	1	32656	
15669	1	32576	13420	1	32726	
15670	1	32204	13421	1	32214	
15671	1	32432	13422	1	32416	
15672	1	32628	13423	1	32544	
15673	1	32792	13424	1	32548	
15674	1	32960	13425	1	32688	
15675	1	33060	13426	1	32884	
15676	1	32840	13427	1	32760	
15677	1	32824	13428	1	32817	
15678	1	32912	13429	1	32844	
15679	1	32884	13430	1	32760	
15680	1	32951	13431	1	32900	
15681	1	33070	13432	1	32926	
15682	1	32788	13433	1	32668	
15683	1	32844	13434	1	32696	
15684	1	33023	13435	1	32920	
15685	1	32633	13436	1	32720	
15686	1	32766	13437	1	32760	
15687	1	32900	13438	1	32896	
15688	1	32690	13439	1	32672	
15689	1	32622	13440	1	32466	
15690	1	32702	13441	1	32568	
15691	1	32600	13442	1	32477	
15692	1	32428	13443	1	32559	
15693	1	32534	13444	1	32692	
15694	1	32452	13445	1	32520	
15695	1	32528	13446	1	32364	
15696	1	32648	13447	1	32572	
15697	1	32336	13448	1	32432	
15698	1	32562	13449	1	32548	
15699	1	32844	13450	1	32952	
15700	1	32820	13451	1	32940	
15701	1	33028	13452	1	32862	
15702	1	33357	13453	1	33144	
15703	1	33324	13454	1	33120	
15704	1	33032	13455	1	32889	
15705	1	33169	13456	1	33045	
15706	1	33132	13457	1	33172	
15707	1	33092	13458	1	33234	
15708	1	33173	13459	1	33240	
15709	1	32894	13460	1	33110	
15710	1	32584	13461	1	32728	
15711	1	32638	13462	1	32588	
15712	1	32652	13463	1	32480	
15713	1	32686	13464	1	32484	
15714	1	32676	13465	1	32624	
15715	1	32548	13466	1	32648	
15716	1	32536	13467	1	32528	
15717	1	32708	13468	1	32464	
15718	1	32604	13469	1	32626	
15719	1	32426	13470	1	32338	
15720	1	32704	13471	1	32424	
15721	1	32914	13472	1	32668	
15722	1	32660	13473	1	32704	
15723	1	32732	13474	1	32728	
15724	1	32844	13475	1	32832	
15725	1	32726	13476	1	32872	
15726	1	32960	13477	1	32890	
15727	1	32960	13478	1	32922	
15728	1	32644	13479	1	32632	
15729	1	32934	13480	1	32789	
15730	1	32952	13481	1	32874	
15731	1	32788	13482	1	32782	
15732	1	32916	13483	1	32912	
15733	1	32868	13484	1	32952	
15734	1	32924	13485	1	32768	
15735	1	32852	13486	1	32656	
15736	1	32832	13487	1	32673	
15737	1	32680	13488	1	32644	
15738	1	32548	13489	1	32416	
15739	1	32520	13490	1	32494	
15740	1	32368	13491	1	32524	
15741	1	32658	13492	1	32468	
15742	1	32780	13493	1	32676	
15743	1	32620	13494	1	32660	
15744	1	32676	13495	1	32662	
15745	1	32784	13496	1	32738	
15746	1	32784	13497	1	32825	
15747	1	32656	13498	1	32564	
15748	1	32824	13499	1	32620	
15749	1	32928	13500	1	32796	
15750	1	32804	13501	1	32704	
15751	1	32962	13502	1	32796	
15752	1	32862	13503	1	32724	
15753	1	32724	13504	1	32628	
15754	1	33117	13505	1	32876	
15755	1	33004	13506	1	33032	
15756	1	32660	13507	1	32917	
15757	1	32670	13508	1	32768	
15758	1	32712	13509	1	32704	
15759	1	32548	13510	1	32508	
15760	1	32853	13511	1	32640	
15761	1	33036	13512	1	32901	
15762	1	32804	13513	1	32760	
15763	1	32956	13514	1	32764	
15764	1	33040	13515	1	33174	
15765	1	32836	13516	1	32898	
15766	1	32846	13517	1	32768	
15767	1	32846	13518	1	32992	
15768	1	32696	13519	1	32852	
15769	1	32848	13520	1	32681	
15770	1	33188	13521	1	32916	
15771	1	33016	13522	1	32750	
15772	1	33165	13523	1	32889	
15773	1	33148	13524	1	33104	
15774	1	32922	13525	1	32978	
15775	1	33052	13526	1	32816	
15776	1	33096	13527	1	33139	
15777	1	33038	13528	1	32864	
15778	1	32852	13529	1	32600	
15779	1	33000	13530	1	32634	
15780	1	32684	13531	1	32636	
15781	1	32554	13532	1	32556	
15782	1	32584	13533	1	32628	
15783	1	32588	13534	1	32682	
15784	1	32704	13535	1	32666	
15785	1	32860	13536	1	32616	
15786	1	32509	13537	1	32559	
15787	1	32361	13538	1	32262	
15788	1	32740	13539	1	32496	
15789	1	32765	13540	1	32584	
15790	1	32752	13541	1	32544	
15791	1	32976	13542	1	32796	
15792	1	32700	13543	1	32708	
15793	1	32697	13544	1	32594	
15794	1	32880	13545	1	32978	
15795	1	32950	13546	1	32904	
15796	1	32824	13547	1	32814	
15797	1	32856	13548	1	32804	
15798	1	32772	13549	1	32704	
15799	1	32608	13550	1	32462	
15800	1	32776	13551	1	32644	
15801	1	32865	13552	1	32744	
15802	1	32817	13553	1	32952	
15803	1	32996	13554	1	32984	
15804	1	32874	13555	1	32864	
15805	1	32546	13556	1	32670	
15806	1	32673	13557	1	32572	
15807	1	32864	13558	1	32744	
15808	1	32773	13559	1	32704	
15809	1	32788	13560	1	32656	
15810	1	32928	13561	1	32828	
15811	1	32730	13562	1	32678	
15812	1	32952	13563	1	32836	
15813	1	32902	13564	1	32924	
15814	1	32656	13565	1	32645	
15815	1	32782	13566	1	32626	
15816	1	32671	13567	1	32844	
15817	1	32636	13568	1	32711	
15818	1	32708	13569	1	32672	
15819	1	33064	13570	1	33096	
15820	1	32633	13571	1	32788	
15821	1	32684	13572	1	32610	
15822	1	32788	13573	1	32972	
15823	1	32772	13574	1	32780	
15824	1	32790	13575	1	32640	
15825	1	32912	13576	1	32804	
15826	1	32684	13577	1	32696	
15827	1	32776	13578	1	32532	
15828	1	32928	13579	1	32640	
15829	1	32808	13580	1	32700	
15830	1	32911	13581	1	32788	
15831	1	33088	13582	1	32998	
15832	1	32868	13583	1	32772	
15833	1	32780	13584	1	32614	
15834	1	33032	13585	1	33038	
15835	1	32976	13586	1	33048	
15836	1	32732	13587	1	32732	
15837	1	32854	13588	1	32700	
15838	1	32852	13589	1	32696	
15839	1	32461	13590	1	32532	
15840	1	32588	13591	1	32564	
15841	1	32784	13592	1	32692	
15842	1	32752	13593	1	32770	
15843	1	32804	13594	1	32780	
15844	1	32736	13595	1	32820	
15845	1	32572	13596	1	32584	
15846	1	32612	13597	1	32688	
15847	1	32457	13598	1	32664	
15848	1	32340	13599	1	32496	
15849	1	32541	13600	1	32571	
15850	1	32684	13601	1	32738	
15851	1	32652	13602	1	32632	
15852	1	32741	13603	1	32706	
15853	1	32960	13604	1	32882	
15854	1	32932	13605	1	32912	
15855	1	32932	13606	1	32844	
15856	1	32761	13607	1	32848	
15857	1	32564	13608	1	32688	
15858	1	32583	13609	1	32768	
15859	1	32701	13610	1	32880	
15860	1	32636	13611	1	32704	
15861	1	32794	13612	1	32624	
15862	1	32892	13613	1	32768	
15863	1	32736	13614	1	32724	
15864	1	32652	13615	1	32576	
15865	1	32788	13616	1	32672	
15866	1	32608	13617	1	32706	
15867	1	32470	13618	1	32530	
15868	1	32572	13619	1	32528	
15869	1	32712	13620	1	32578	
15870	1	32718	13621	1	32616	
15871	1	33014	13622	1	32844	
15872	1	32844	13623	1	32754	
15873	1	32797	13624	1	32468	
15874	1	32894	13625	1	32620	
15875	1	32688	13626	1	32632	
15876	1	32620	13627	1	32478	
15877	1	32864	13628	1	32752	
15878	1	32828	13629	1	32936	
15879	1	32708	13630	1	32646	
15880	1	33129	13631	1	32740	
15881	1	33060	13632	1	33024	
15882	1	33024	13633	1	32922	
15883	1	33252	13634	1	33100	
15884	1	33132	13635	1	33144	
15885	1	32956	13636	1	32956	
15886	1	32884	13637	1	32777	
15887	1	32846	13638	1	32714	
15888	1	32896	13639	1	32724	
15889	1	32956	13640	1	32842	
15890	1	32927	13641	1	32857	
15891	1	32877	13642	1	32772	
15892	1	32937	13643	1	32952	
15893	1	32910	13644	1	33012	
15894	1	32720	13645	1	32588	
15895	1	32816	13646	1	32488	
15896	1	32876	13647	1	32804	
15897	1	32609	13648	1	32624	
15898	1	32706	13649	1	32464	
15899	1	32708	13650	1	32624	
15900	1	32596	13651	1	32694	
15901	1	32521	13652	1	32548	
15902	1	32553	13653	1	32566	
15903	1	32612	13654	1	32530	
15904	1	32752	13655	1	32658	
15905	1	32864	13656	1	32801	
15906	1	32946	13657	1	32858	
15907	1	32824	13658	1	32886	
15908	1	32848	13659	1	32775	
15909	1	32708	13660	1	32704	
15910	1	32752	13661	1	32656	
15911	1	33114	13662	1	32940	
15912	1	33068	13663	1	33052	
15913	1	32916	13664	1	32786	
15914	1	33076	13665	1	32914	
15915	1	32786	13666	1	32840	
15916	1	32821	13667	1	32682	
15917	1	32852	13668	1	32748	
15918	1	32708	13669	1	32869	
15919	1	32568	13670	1	32704	
15920	1	32460	13671	1	32666	
15921	1	32544	13672	1	32670	
15922	1	32461	13673	1	32408	
15923	1	32740	13674	1	32588	
15924	1	32860	13675	1	32776	
15925	1	32808	13676	1	32624	
15926	1	32716	13677	1	32676	
15927	1	32768	13678	1	32580	
15928	1	32630	13679	1	32469	
15929	1	32736	13680	1	32626	
15930	1	32954	13681	1	32860	
15931	1	32848	13682	1	32866	
15932	1	32812	13683	1	32866	
15933	1	33004	13684	1	32872	
15934	1	32820	13685	1	32876	
15935	1	32884	13686	1	32860	
15936	1	32976	13687	1	32990	
15937	1	32864	13688	1	32797	
15938	1	32884	13689	1	32736	
15939	1	32916	13690	1	32964	
15940	1	32792	13691	1	32768	
15941	1	32897	13692	1	32730	
15942	1	32927	13693	1	32784	
15943	1	32800	13694	1	32638	
15944	1	32820	13695	1	32556	
15945	1	33110	13696	1	32944	
15946	1	33029	13697	1	32916	
15947	1	32912	13698	1	32900	
15948	1	32825	13699	1	32840	
15949	1	32560	13700	1	32820	
15950	1	32756	13701	1	32772	
15951	1	32828	13702	1	32826	
15952	1	32756	13703	1	32698	
15953	1	32971	13704	1	32722	
15954	1	32968	13705	1	32868	
15955	1	32612	13706	1	32680	
15956	1	32586	13707	1	32512	
15957	1	32856	13708	1	32612	
15958	1	32832	13709	1	32690	
15959	1	32612	13710	1	32612	
15960	1	32512	13711	1	32562	
15961	1	32548	13712	1	32624	
15962	1	32604	13713	1	32656	
15963	1	32724	13714	1	32690	
15964	1	32708	13715	1	32662	
15965	1	32654	13716	1	32704	
15966	1	32944	13717	1	32900	
15967	1	32840	13718	1	32762	
15968	1	32596	13719	1	32384	
15969	1	32694	13720	1	32744	
15970	1	32834	13721	1	32965	
15971	1	32804	13722	1	32968	
15972	1	32920	13723	1	32952	
15973	1	33028	13724	1	33000	
15974	1	32953	13725	1	32857	
15975	1	33000	13726	1	32744	
15976	1	32971	13727	1	32908	
15977	1	32636	13728	1	32764	
15978	1	32628	13729	1	32671	
15979	1	32775	13730	1	32805	
15980	1	32614	13731	1	32580	
15981	1	32724	13732	1	32504	
15982	1	32712	13733	1	32620	
15983	1	32684	13734	1	32560	
15984	1	32660	13735	1	32584	
15985	1	32900	13736	1	32852	
15986	1	32720	13737	1	32712	
15987	1	32636	13738	1	32664	
15988	1	32716	13739	1	32928	
15989	1	32576	13740	1	32700	
15990	1	32748	13741	1	32489	
15991	1	33032	13742	1	32626	
15992	1	33056	13743	1	32832	
15993	1	32950	13744	1	32888	
15994	1	33110	13745	1	32897	
15995	1	32900	13746	1	32928	
15996	1	32760	13747	1	32822	
15997	1	32790	13748	1	32820	
15998	1	32837	13749	1	32804	
15999	1	32720	13750	1	32676	
16000	1	32792	13751	1	32754	
16001	1	32928	13752	1	32848	
16002	1	32648	13753	1	32706	
16003	1	32750	13754	1	32736	
16004	1	33100	13755	1	33016	
16005	1	32876	13756	1	32768	
16006	1	32992	13757	1	32825	
16007	1	32862	13758	1	32928	
16008	1	32452	13759	1	32612	
16009	1	32616	13760	1	32496	
16010	1	32688	13761	1	32680	
16011	1	32804	13762	1	32840	
16012	1	32900	13763	1	32712	
16013	1	32822	13764	1	32820	
16014	1	32792	13765	1	32775	
16015	1	33036	13766	1	32704	
16016	1	32804	13767	1	32868	
16017	1	32625	13768	1	32660	
16018	1	32761	13769	1	32568	
16019	1	32792	13770	1	32836	
16020	1	32556	13771	1	32748	
16021	1	32625	13772	1	32680	
16022	1	32996	13773	1	32888	
16023	1	32912	13774	1	32760	
16024	1	32756	13775	1	32648	
16025	1	32826	13776	1	32705	
16026	1	32736	13777	1	32626	
16027	1	32700	13778	1	32626	
16028	1	32692	13779	1	32658	
16029	1	32388	13780	1	32476	
16030	1	32594	13781	1	32530	
16031	1	32844	13782	1	32796	
16032	1	32912	13783	1	32880	
16033	1	32856	13784	1	32858	
16034	1	33232	13785	1	33004	
16035	1	32996	13786	1	32916	
16036	1	32668	13787	1	32691	
16037	1	32652	13788	1	32678	
16038	1	32668	13789	1	32736	
16039	1	32617	13790	1	32724	
16040	1	32894	13791	1	32904	
16041	1	32820	13792	1	32888	
16042	1	32892	13793	1	32796	
16043	1	33136	13794	1	32934	
16044	1	32944	13795	1	32864	
16045	1	32750	13796	1	32592	
16046	1	32916	13797	1	32872	
16047	1	32831	13798	1	32944	
16048	1	32576	13799	1	32520	
16049	1	32740	13800	1	32680	
16050	1	32844	13801	1	32752	
16051	1	32622	13802	1	32626	
16052	1	32764	13803	1	32736	
16053	1	33098	13804	1	32924	
16054	1	32920	13805	1	32820	
16055	1	32868	13806	1	32836	
16056	1	32769	13807	1	32780	
16057	1	32708	13808	1	32712	
16058	1	32600	13809	1	32626	
16059	1	32620	13810	1	32654	
16060	1	32470	13811	1	32528	
16061	1	32732	13812	1	32584	
16062	1	32820	13813	1	32744	
16063	1	32704	13814	1	32504	
16064	1	32724	13815	1	32704	
16065	1	32704	13816	1	32864	
16066	1	32625	13817	1	32644	
16067	1	32652	13818	1	32504	
16068	1	33004	13819	1	32732	
16069	1	32870	13820	1	32856	
16070	1	32821	13821	1	32714	
16071	1	32820	13822	1	32796	
16072	1	32924	13823	1	32844	
16073	1	32877	13824	1	32888	
16074	1	32980	13825	1	32964	
16075	1	32949	13826	1	32921	
16076	1	32844	13827	1	32744	
16077	1	32768	13828	1	32800	
16078	1	32668	13829	1	32604	
16079	1	32712	13830	1	32628	
16080	1	32806	13831	1	32800	
16081	1	32532	13832	1	32726	
16082	1	32498	13833	1	32581	
16083	1	32833	13834	1	32676	
16084	1	32684	13835	1	32744	
16085	1	32532	13836	1	32426	
16086	1	32672	13837	1	32502	
16087	1	32788	13838	1	32712	
16088	1	32849	13839	1	32740	
16089	1	32768	13840	1	32620	
16090	1	32676	13841	1	32544	
16091	1	32812	13842	1	32676	
16092	1	32904	13843	1	32841	
16093	1	32908	13844	1	32897	
16094	1	32768	13845	1	32672	
16095	1	33080	13846	1	32952	
16096	1	33264	13847	1	33188	
16097	1	32913	13848	1	32969	
16098	1	33120	13849	1	33040	
16099	1	33204	13850	1	32944	
16100	1	32857	13851	1	32752	
16101	1	32876	13852	1	32682	
16102	1	32884	13853	1	32800	
16103	1	32765	13854	1	32872	
16104	1	32704	13855	1	32800	
16105	1	32824	13856	1	32780	
16106	1	32656	13857	1	32720	
16107	1	32778	13858	1	32688	
16108	1	32660	13859	1	32724	
16109	1	32412	13860	1	32548	
16110	1	32478	13861	1	32460	
16111	1	32554	13862	1	32522	
16112	1	32524	13863	1	32698	
16113	1	32869	13864	1	32818	
16114	1	32836	13865	1	32866	
16115	1	32972	13866	1	32896	
16116	1	32928	13867	1	32968	
16117	1	32892	13868	1	32908	
16118	1	32772	13869	1	32732	
16119	1	32612	13870	1	32600	
16120	1	32536	13871	1	32484	
16121	1	32560	13872	1	32464	
16122	1	32816	13873	1	32644	
16123	1	32892	13874	1	32848	
16124	1	32676	13875	1	32720	
16125	1	32784	13876	1	32696	
16126	1	32788	13877	1	32748	
16127	1	32789	13878	1	32692	
16128	1	32789	13879	1	32698	
16129	1	32852	13880	1	32620	
16130	1	32732	13881	1	32652	
16131	1	32705	13882	1	32710	
16132	1	32980	13883	1	32916	
16133	1	33101	13884	1	33140	
16134	1	32922	13885	1	32964	
16135	1	33144	13886	1	32894	
16136	1	33048	13887	1	32997	
16137	1	32412	13888	1	32608	
16138	1	32420	13889	1	32452	
16139	1	32566	13890	1	32408	
16140	1	32590	13891	1	32580	
16141	1	32540	13892	1	32714	
16142	1	32820	13893	1	32824	
16143	1	32737	13894	1	32708	
16144	1	32736	13895	1	32560	
16145	1	32932	13896	1	32688	
16146	1	32645	13897	1	32656	
16147	1	32788	13898	1	32720	
16148	1	32768	13899	1	32810	
16149	1	32692	13900	1	32722	
16150	1	32781	13901	1	32812	
16151	1	33272	13902	1	33140	
16152	1	32996	13903	1	33033	
16153	1	32760	13904	1	32840	
16154	1	33052	13905	1	32890	
16155	1	33094	13906	1	33028	
16156	1	32936	13907	1	32800	
16157	1	32824	13908	1	32876	
16158	1	32592	13909	1	32637	
16159	1	32572	13910	1	32596	
16160	1	32664	13911	1	32775	
16161	1	32614	13912	1	32688	
16162	1	32828	13913	1	32614	
16163	1	33132	13914	1	32916	
16164	1	32874	13915	1	32788	
16165	1	32428	13916	1	32348	
16166	1	32500	13917	1	32456	
16167	1	32428	13918	1	32564	
16168	1	32484	13919	1	32617	
16169	1	32712	13920	1	32780	
16170	1	32902	13921	1	32882	
16171	1	32876	13922	1	32712	
16172	1	33217	13923	1	32772	
16173	1	32904	13924	1	32856	
16174	1	32836	13925	1	32688	
16175	1	33052	13926	1	32866	
16176	1	32928	13927	1	32961	
16177	1	32726	13928	1	32620	
16178	1	32684	13929	1	32578	
16179	1	32808	13930	1	32808	
16180	1	32625	13931	1	32822	
16181	1	32832	13932	1	32880	
16182	1	33084	13933	1	33128	
16183	1	32788	13934	1	32810	
16184	1	32784	13935	1	32620	
16185	1	32916	13936	1	32848	
16186	1	32892	13937	1	32668	
16187	1	32796	13938	1	32616	
16188	1	32644	13939	1	32610	
16189	1	32744	13940	1	32664	
16190	1	32784	13941	1	32688	
16191	1	32812	13942	1	32722	
16192	1	32736	13943	1	32680	
16193	1	32796	13944	1	32636	
16194	1	32800	13945	1	32970	
16195	1	32472	13946	1	32744	
16196	1	32716	13947	1	32682	
16197	1	33002	13948	1	33098	
16198	1	32804	13949	1	32850	
16199	1	32728	13950	1	32612	
16200	1	32780	13951	1	32500	
16201	1	32626	13952	1	32536	
16202	1	32577	13953	1	32452	
16203	1	32756	13954	1	32646	
16204	1	32824	13955	1	32748	
16205	1	32778	13956	1	32690	
16206	1	32864	13957	1	32754	
16207	1	32616	13958	1	32672	
16208	1	32646	13959	1	32578	
16209	1	33008	13960	1	32876	
16210	1	32950	13961	1	32874	
16211	1	32694	13962	1	32500	
16212	1	32820	13963	1	32857	
16213	1	32980	13964	1	33177	
16214	1	32932	13965	1	32953	
16215	1	33188	13966	1	32992	
16216	1	33237	13967	1	33200	
16217	1	33000	13968	1	32954	
16218	1	32988	13969	1	32746	
16219	1	32957	13970	1	32784	
16220	1	32697	13971	1	32724	
16221	1	32906	13972	1	32940	
16222	1	32916	13973	1	32900	
16223	1	32724	13974	1	32760	
16224	1	32944	13975	1	32730	
16225	1	32888	13976	1	32904	
16226	1	32596	13977	1	32404	
16227	1	32712	13978	1	32342	
16228	1	32700	13979	1	32506	
16229	1	32502	13980	1	32400	
16230	1	32504	13981	1	32346	
16231	1	32768	13982	1	32692	
16232	1	32700	13983	1	32665	
16233	1	32882	13984	1	32768	
16234	1	32980	13985	1	32932	
16235	1	32721	13986	1	32768	
16236	1	32644	13987	1	32720	
16237	1	32852	13988	1	32888	
16238	1	32544	13989	1	32724	
16239	1	32676	13990	1	32476	
16240	1	32772	13991	1	32694	
16241	1	32667	13992	1	32728	
16242	1	32744	13993	1	32780	
16243	1	33036	13994	1	33216	
16244	1	33000	13995	1	33116	
16245	1	32876	13996	1	32932	
16246	1	32985	13997	1	32775	
16247	1	32860	13998	1	32708	
16248	1	32772	13999	1	32688	
16249	1	33112	14000	1	32770	
16250	1	32945	14001	1	32864	
16251	1	32928	14002	1	32782	
16252	1	33025	14003	1	32872	
16253	1	32740	14004	1	32742	
16254	1	32557	14005	1	32592	
16255	1	32621	14006	1	32538	
16256	1	32332	14007	1	32492	
16257	1	32360	14008	1	32400	
16258	1	32510	14009	1	32481	
16259	1	32514	14010	1	32532	
16260	1	32684	14011	1	32584	
16261	1	32663	14012	1	32632	
16262	1	32736	14013	1	32750	
16263	1	33023	14014	1	32837	
16264	1	33028	14015	1	33018	
16265	1	32826	14016	1	32940	
16266	1	32790	14017	1	32644	
16267	1	32961	14018	1	32818	
16268	1	33020	14019	1	32936	
16269	1	32768	14020	1	32788	
16270	1	32900	14021	1	32896	
16271	1	33121	14022	1	33010	
16272	1	32953	14023	1	32760	
16273	1	32965	14024	1	32744	
16274	1	33118	14025	1	33088	
16275	1	32960	14026	1	32944	
16276	1	33016	14027	1	32768	
16277	1	32916	14028	1	32984	
16278	1	32736	14029	1	32840	
16279	1	32780	14030	1	32636	
16280	1	32824	14031	1	32620	
16281	1	32543	14032	1	32560	
16282	1	32520	14033	1	32496	
16283	1	32732	14034	1	32580	
16284	1	32629	14035	1	32488	
16285	1	32504	14036	1	32508	
16286	1	32692	14037	1	32618	
16287	1	32568	14038	1	32696	
16288	1	32388	14039	1	32452	
16289	1	32484	14040	1	32486	
16290	1	32693	14041	1	32692	
16291	1	32913	14042	1	32860	
16292	1	33150	14043	1	33230	
16293	1	32868	14044	1	33004	
16294	1	32720	14045	1	32812	
16295	1	32712	14046	1	32744	
16296	1	32816	14047	1	32762	
16297	1	32980	14048	1	32928	
16298	1	33036	14049	1	33020	
16299	1	32872	14050	1	32868	
16300	1	32516	14051	1	32465	
16301	1	32776	14052	1	32564	
16302	1	32944	14053	1	32768	
16303	1	32761	14054	1	32610	
16304	1	32724	14055	1	32670	
16305	1	32960	14056	1	32780	
16306	1	32716	14057	1	32770	
16307	1	32720	14058	1	32656	
16308	1	32680	14059	1	32712	
16309	1	32592	14060	1	32668	
16310	1	32538	14061	1	32610	
16311	1	32824	14062	1	32706	
16312	1	32736	14063	1	32740	
16313	1	32816	14064	1	32699	
16314	1	33046	14065	1	32964	
16315	1	32992	14066	1	32804	
16316	1	32808	14067	1	32736	
16317	1	32722	14068	1	32660	
16318	1	32604	14069	1	32552	
16319	1	32748	14070	1	32632	
16320	1	32724	14071	1	32792	
16321	1	32504	14072	1	32450	
16322	1	32560	14073	1	32331	
16323	1	32960	14074	1	32744	
16324	1	32865	14075	1	32916	
16325	1	32740	14076	1	32910	
16326	1	32896	14077	1	32948	
16327	1	33018	14078	1	32904	
16328	1	32905	14079	1	32808	
16329	1	32892	14080	1	32868	
16330	1	32636	14081	1	32714	
16331	1	32892	14082	1	32612	
16332	1	33104	14083	1	32988	
16333	1	33032	14084	1	33010	
16334	1	32852	14085	1	32636	
16335	1	32901	14086	1	32760	
16336	1	32977	14087	1	32973	
16337	1	32840	14088	1	32932	
16338	1	32777	14089	1	32804	
16339	1	32777	14090	1	32616	
16340	1	32661	14091	1	32424	
16341	1	32860	14092	1	32620	
16342	1	32729	14093	1	32760	
16343	1	32696	14094	1	32754	
16344	1	33164	14095	1	32976	
16345	1	32813	14096	1	32922	
16346	1	32396	14097	1	32560	
16347	1	32485	14098	1	32456	
16348	1	32501	14099	1	32392	
16349	1	32348	14100	1	32294	
16350	1	32716	14101	1	32572	
16351	1	32824	14102	1	32764	
16352	1	32544	14103	1	32672	
16353	1	32910	14104	1	32796	
16354	1	33096	14105	1	33036	
16355	1	33010	14106	1	33019	
16356	1	32977	14107	1	33010	
16357	1	32932	14108	1	32978	
16358	1	33012	14109	1	32810	
16359	1	33072	14110	1	32964	
16360	1	33009	14111	1	33154	
16361	1	32768	14112	1	32752	
16362	1	32832	14113	1	32608	
16363	1	32908	14114	1	32858	
16364	1	32496	14115	1	32620	
16365	1	32748	14116	1	32504	
16366	1	32644	14117	1	32584	
16367	1	32640	14118	1	32738	
16368	1	32417	14119	1	32400	
16369	1	32593	14120	1	32544	
16370	1	32608	14121	1	32524	
16371	1	32856	14122	1	32576	
16372	1	32996	14123	1	32911	
16373	1	32926	14124	1	32952	
16374	1	32673	14125	1	32828	
16375	1	32765	14126	1	32812	
16376	1	32640	14127	1	32632	
16377	1	32602	14128	1	32312	
16378	1	32928	14129	1	32668	
16379	1	32861	14130	1	32814	
16380	1	32743	14131	1	32724	
16381	1	32885	14132	1	32748	
16382	1	32935	14133	1	32796	
16383	1	32908	14134	1	32758	
16384	1	32836	14135	1	32820	
16385	1	32888	14136	1	32908	
16386	1	32856	14137	1	32852	
16387	1	32864	14138	1	32872	
16388	1	32776	14139	1	32616	
16389	1	32838	14140	1	32793	
16390	1	33048	14141	1	32899	
16391	1	32920	14142	1	32808	
16392	1	32888	14143	1	32706	
16393	1	33100	14144	1	32852	
16394	1	33128	14145	1	33100	
16395	1	32718	14146	1	32770	
16396	1	32669	14147	1	32724	
16397	1	32644	14148	1	32912	
16398	1	32526	14149	1	32504	
16399	1	32716	14150	1	32514	
16400	1	32656	14151	1	32680	
16401	1	32527	14152	1	32568	
16402	1	32768	14153	1	32576	
16403	1	32824	14154	1	32859	
16404	1	32657	14155	1	32602	
16405	1	33000	14156	1	32782	
16406	1	32912	14157	1	32886	
16407	1	32684	14158	1	32816	
16408	1	32772	14159	1	32742	
16409	1	32804	14160	1	32720	
16410	1	32384	14161	1	32480	
16411	1	32628	14162	1	32288	
16412	1	32916	14163	1	32668	
16413	1	32964	14164	1	32844	
16414	1	32961	14165	1	32764	
16415	1	33072	14166	1	32836	
16416	1	32892	14167	1	32928	
16417	1	32880	14168	1	32760	
16418	1	33044	14169	1	32861	
16419	1	32896	14170	1	33006	
16420	1	32810	14171	1	32738	
16421	1	32776	14172	1	32822	
16422	1	32688	14173	1	32770	
16423	1	32780	14174	1	32664	
16424	1	33032	14175	1	32960	
16425	1	32952	14176	1	33065	
16426	1	32824	14177	1	32868	
16427	1	32856	14178	1	32685	
16428	1	32764	14179	1	32662	
16429	1	32369	14180	1	32256	
16430	1	32584	14181	1	32452	
16431	1	32668	14182	1	32556	
16432	1	32502	14183	1	32442	
16433	1	32900	14184	1	32730	
16434	1	33066	14185	1	33040	
16435	1	32768	14186	1	32706	
16436	1	32868	14187	1	32709	
16437	1	32862	14188	1	32906	
16438	1	32440	14189	1	32576	
16439	1	32677	14190	1	32650	
16440	1	32728	14191	1	32824	
16441	1	32648	14192	1	32724	
16442	1	32772	14193	1	32715	
16443	1	32972	14194	1	32974	
16444	1	32620	14195	1	32674	
16445	1	32508	14196	1	32488	
16446	1	32880	14197	1	32891	
16447	1	32749	14198	1	32794	
16448	1	32716	14199	1	32822	
16449	1	32925	14200	1	32708	
16450	1	32641	14201	1	32536	
16451	1	32965	14202	1	32676	
16452	1	33132	14203	1	33049	
16453	1	32976	14204	1	32916	
16454	1	33148	14205	1	32900	
16455	1	33220	14206	1	33065	
16456	1	32642	14207	1	32708	
16457	1	32482	14208	1	32516	
16458	1	32718	14209	1	32648	
16459	1	32776	14210	1	32624	
16460	1	32856	14211	1	32576	
16461	1	32966	14212	1	32764	
16462	1	32880	14213	1	32952	
16463	1	32604	14214	1	32829	
16464	1	32672	14215	1	32774	
16465	1	32760	14216	1	32746	
16466	1	32696	14217	1	32706	
16467	1	32644	14218	1	32556	
16468	1	32428	14219	1	32516	
16469	1	32408	14220	1	32408	
16470	1	32656	14221	1	32540	
16471	1	32628	14222	1	32603	
16472	1	32636	14223	1	32696	
16473	1	32852	14224	1	32640	
16474	1	32892	14225	1	32836	
16475	1	32876	14226	1	32836	
16476	1	32976	14227	1	33016	
16477	1	33212	14228	1	33144	
16478	1	32702	14229	1	32868	
16479	1	32874	14230	1	32820	
16480	1	33054	14231	1	32898	
16481	1	33104	14232	1	33021	
16482	1	33088	14233	1	32921	
16483	1	32972	14234	1	33028	
16484	1	32960	14235	1	32748	
16485	1	32904	14236	1	32736	
16486	1	32738	14237	1	32812	
16487	1	32577	14238	1	32469	
16488	1	32609	14239	1	32478	
16489	1	32806	14240	1	32816	
16490	1	32384	14241	1	32598	
16491	1	32618	14242	1	32464	
16492	1	32932	14243	1	32817	
16493	1	32796	14244	1	32608	
16494	1	32884	14245	1	32801	
16495	1	32984	14246	1	32880	
16496	1	32706	14247	1	32667	
16497	1	32616	14248	1	32476	
16498	1	32652	14249	1	32624	
16499	1	32654	14250	1	32388	
16500	1	32868	14251	1	32701	
16501	1	33152	14252	1	33102	
16502	1	32776	14253	1	32836	
16503	1	32756	14254	1	32668	
16504	1	32976	14255	1	33198	
16505	1	32812	14256	1	32890	
16506	1	33006	14257	1	32737	
16507	1	32996	14258	1	32850	
16508	1	32812	14259	1	32824	
16509	1	32660	14260	1	32660	
16510	1	32740	14261	1	32756	
16511	1	32916	14262	1	32928	
16512	1	33016	14263	1	32932	
16513	1	33088	14264	1	32902	
16514	1	33060	14265	1	33044	
16515	1	32854	14266	1	32908	
16516	1	32788	14267	1	33004	
16517	1	32748	14268	1	32728	
16518	1	32764	14269	1	32576	
16519	1	32728	14270	1	32549	
16520	1	32780	14271	1	32584	
16521	1	32604	14272	1	32493	
16522	1	32812	14273	1	32492	
16523	1	32780	14274	1	32744	
16524	1	32700	14275	1	32698	
16525	1	32528	14276	1	32644	
16526	1	32577	14277	1	32588	
16527	1	32500	14278	1	32516	
16528	1	32766	14279	1	32698	
16529	1	32784	14280	1	32892	
16530	1	32988	14281	1	32809	
16531	1	32848	14282	1	32838	
16532	1	32768	14283	1	32632	
16533	1	32724	14284	1	32665	
16534	1	32748	14285	1	32680	
16535	1	32864	14286	1	32705	
16536	1	32576	14287	1	32766	
16537	1	32746	14288	1	32774	
16538	1	32532	14289	1	32742	
16539	1	32864	14290	1	32780	
16540	1	32526	14291	1	32784	
16541	1	32660	14292	1	32762	
16542	1	32924	14293	1	32660	
16543	1	32784	14294	1	32901	
16544	1	32760	14295	1	32796	
16545	1	32844	14296	1	32796	
16546	1	33116	14297	1	32792	
16547	1	33025	14298	1	32748	
16548	1	32888	14299	1	32730	
16549	1	32584	14300	1	32544	
16550	1	32862	14301	1	32608	
16551	1	32936	14302	1	32846	
16552	1	32536	14303	1	32620	
16553	1	33012	14304	1	32730	
16554	1	32980	14305	1	32984	
16555	1	32428	14306	1	32540	
16556	1	32928	14307	1	32644	
16557	1	32693	14308	1	32796	
16558	1	32280	14309	1	32415	
16559	1	32406	14310	1	32448	
16560	1	32058	14311	1	32332	
16561	1	32432	14312	1	32520	
16562	1	32868	14313	1	32728	
16563	1	33096	14314	1	32970	
16564	1	33004	14315	1	32914	
16565	1	33192	14316	1	33259	
16566	1	32814	14317	1	32816	
16567	1	32676	14318	1	32784	
16568	1	32688	14319	1	32554	
16569	1	33016	14320	1	32846	
16570	1	32952	14321	1	32870	
16571	1	33068	14322	1	32960	
16572	1	32920	14323	1	32836	
16573	1	32842	14324	1	32646	
16574	1	32988	14325	1	32845	
16575	1	33088	14326	1	32944	
16576	1	32820	14327	1	32817	
16577	1	32804	14328	1	32770	
16578	1	32700	14329	1	32859	
16579	1	32538	14330	1	32420	
16580	1	32463	14331	1	32404	
16581	1	32940	14332	1	32432	
16582	1	32473	14333	1	32704	
16583	1	32694	14334	1	32456	
16584	1	32780	14335	1	32768	
16585	1	32764	14336	1	32916	
16586	1	32442	14337	1	32418	
16587	1	32685	14338	1	32516	
16588	1	32776	14339	1	32707	
16589	1	32668	14340	1	32512	
16590	1	32960	14341	1	32701	
16591	1	33112	14342	1	32952	
16592	1	32948	14343	1	32944	
16593	1	33012	14344	1	32866	
16594	1	33104	14345	1	32990	
16595	1	32844	14346	1	32730	
16596	1	33064	14347	1	32936	
16597	1	33145	14348	1	33078	
16598	1	32888	14349	1	32876	
16599	1	32960	14350	1	32784	
16600	1	32996	14351	1	32770	
16601	1	32754	14352	1	32740	
16602	1	32860	14353	1	32856	
16603	1	32968	14354	1	32836	
16604	1	32730	14355	1	32632	
16605	1	32634	14356	1	32646	
16606	1	32820	14357	1	32770	
16607	1	32597	14358	1	32568	
16608	1	33096	14359	1	32564	
16609	1	32752	14360	1	32697	
16610	1	32508	14361	1	32626	
16611	1	32644	14362	1	32572	
16612	1	32592	14363	1	32664	
16613	1	32476	14364	1	32496	
16614	1	32542	14365	1	32472	
16615	1	32552	14366	1	32824	
16616	1	32568	14367	1	32716	
16617	1	33152	14368	1	33018	
16618	1	32948	14369	1	33004	
16619	1	32752	14370	1	32746	
16620	1	33022	14371	1	32739	
16621	1	33188	14372	1	33024	
16622	1	32864	14373	1	32692	
16623	1	33200	14374	1	32872	
16624	1	32932	14375	1	33052	
16625	1	32400	14376	1	32544	
16626	1	32740	14377	1	32600	
16627	1	32892	14378	1	33004	
16628	1	32744	14379	1	32378	
16629	1	33020	14380	1	32850	
16630	1	32837	14381	1	32680	
16631	1	32632	14382	1	32708	
16632	1	32968	14383	1	32980	
16633	1	32992	14384	1	33112	
16634	1	32612	14385	1	32785	
16635	1	32368	14386	1	32456	
16636	1	32829	14387	1	32773	
16637	1	32924	14388	1	32880	
16638	1	32774	14389	1	32672	
16639	1	33128	14390	1	32613	
16640	1	32644	14391	1	32784	
16641	1	32576	14392	1	32220	
16642	1	33281	14393	1	32808	
16643	1	32600	14394	1	32824	
16644	1	32492	14395	1	32512	
16645	1	32756	14396	1	32552	
16646	1	32768	14397	1	32396	
16647	1	32472	14398	1	32492	
16648	1	32369	14399	1	32664	
16649	1	32479	14400	1	32512	
16650	1	32938	14401	1	32870	
16651	1	32932	14402	1	32985	
16652	1	32892	14403	1	32732	
16653	1	32743	14404	1	32614	
16654	1	33268	14405	1	32946	
16655	1	32596	14406	1	32886	
16656	1	32820	14407	1	32734	
16657	1	32892	14408	1	32992	
16658	1	32648	14409	1	32752	
16659	1	32684	14410	1	32552	
16660	1	33028	14411	1	32882	
16661	1	33645	14412	1	32722	
16662	1	32121	14413	1	32068	
16663	1	33248	14414	1	32520	
16664	1	33478	14415	1	33285	
16665	1	33952	14416	1	33264	
16666	1	33008	14417	1	32232	
16667	1	32736	14418	1	33794	
16668	1	33304	14419	1	33209	
16669	1	32484	14420	1	32856	
16670	1	32596	14421	1	32292	
16671	1	32744	14422	1	33044	
16672	1	31856	14423	1	31396	
16673	1	32868	14424	1	33288	
16674	1	32274	14425	1	32562	
16675	1	32732	14426	1	32612	
16676	1	33088	14427	1	33124	
16677	1	32908	14428	1	33220	
16678	1	32860	14429	1	32652	
16679	1	32997	14430	1	33024	
16680	1	32480	14431	1	32480	
16681	1	32776	14432	1	32607	
16682	1	32184	14433	1	32040	
16683	1	32720	14434	1	32372	
16684	1	33058	14435	1	32856	
16685	1	32884	14436	1	32876	
16686	1	32832	14437	1	32660	
16687	1	32450	14438	1	32480	
16688	1	32812	14439	1	32774	
16689	1	32748	14440	1	32784	
16690	1	32632	14441	1	32760	
16691	1	33120	14442	1	32970	
16692	1	32713	14443	1	32952	
16693	1	33280	14444	1	33144	
16694	1	33230	14445	1	33322	
16695	1	32704	14446	1	32857	
16696	1	32788	14447	1	32548	
16697	1	33006	14448	1	32954	
16698	1	32808	14449	1	32572	
16699	1	32948	14450	1	32857	
16700	1	32740	14451	1	32628	
16701	1	32680	14452	1	32354	
16702	1	32348	14453	1	32620	
16703	1	32356	14454	1	32162	
16704	1	32758	14455	1	32502	
16705	1	32344	14456	1	32722	
16706	1	32232	14457	1	32348	
16707	1	33088	14458	1	33060	
16708	1	32786	14459	1	32644	
16709	1	33005	14460	1	32648	
16710	1	32998	14461	1	32930	
16711	1	33097	14462	1	32932	
16712	1	32356	14463	1	32706	
16713	1	32829	14464	1	32432	
16714	1	32864	14465	1	32612	
16715	1	32720	14466	1	32595	
16716	1	32800	14467	1	32688	
16717	1	33324	14468	1	33159	
16718	1	32549	14469	1	32868	
16719	1	33228	14470	1	32904	
16720	1	32984	14471	1	32912	
16721	1	32932	14472	1	32739	
16722	1	32740	14473	1	32796	
16723	1	32936	14474	1	32792	
16724	1	33044	14475	1	32812	
16725	1	33116	14476	1	32929	
16726	1	32861	14477	1	32966	
16727	1	32520	14478	1	32624	
16728	1	32546	14479	1	32552	
16729	1	32636	14480	1	32722	
16730	1	32448	14481	1	32288	
16731	1	32896	14482	1	32663	
16732	1	32580	14483	1	32900	
16733	1	32720	14484	1	32796	
16734	1	32800	14485	1	32924	
16735	1	32751	14486	1	32739	
16736	1	32678	14487	1	32388	
16737	1	32998	14488	1	32656	
16738	1	32596	14489	1	32570	
16739	1	32708	14490	1	32560	
16740	1	32869	14491	1	32822	
16741	1	32628	14492	1	32716	
16742	1	32797	14493	1	32565	
16743	1	32840	14494	1	32980	
16744	1	33260	14495	1	32764	
16745	1	32938	14496	1	32848	
16746	1	32973	14497	1	33017	
16747	1	33100	14498	1	32930	
16748	1	32649	14499	1	32712	
16749	1	32766	14500	1	32552	
16750	1	32910	14501	1	32866	
16751	1	32440	14502	1	32493	
16752	1	32853	14503	1	32756	
16753	1	32936	14504	1	32928	
16754	1	32742	14505	1	32737	
16755	1	32608	14506	1	32536	
16756	1	32768	14507	1	32692	
16757	1	32904	14508	1	32914	
16758	1	32636	14509	1	32780	
16759	1	32588	14510	1	32592	
16760	1	32676	14511	1	32716	
16761	1	32616	14512	1	32656	
16762	1	32850	14513	1	32696	
16763	1	32444	14514	1	32668	
16764	1	32842	14515	1	32676	
16765	1	32926	14516	1	32858	
16766	1	32710	14517	1	32808	
16767	1	32588	14518	1	32545	
16768	1	32718	14519	1	32720	
16769	1	32912	14520	1	32864	
16770	1	32860	14521	1	32830	
16771	1	32908	14522	1	32834	
16772	1	32876	14523	1	32780	
16773	1	32912	14524	1	32808	
16774	1	33092	14525	1	32880	
16775	1	32924	14526	1	32966	
16776	1	32724	14527	1	32801	
16777	1	32712	14528	1	32608	
16778	1	32818	14529	1	32738	
16779	1	32668	14530	1	32620	
16780	1	32920	14531	1	32714	
16781	1	32892	14532	1	32762	
16782	1	32670	14533	1	32552	
16783	1	32952	14534	1	32871	
16784	1	32992	14535	1	32929	
16785	1	32852	14536	1	32738	
16786	1	33008	14537	1	32804	
16787	1	32976	14538	1	33170	
16788	1	32758	14539	1	32708	
16789	1	32736	14540	1	32500	
16790	1	32909	14541	1	32716	
16791	1	33108	14542	1	32816	
16792	1	33028	14543	1	32938	
16793	1	32828	14544	1	32876	
16794	1	32584	14545	1	32560	
16795	1	32442	14546	1	32450	
16796	1	32904	14547	1	32584	
16797	1	32324	14548	1	32580	
16798	1	32417	14549	1	32397	
16799	1	32780	14550	1	32648	
16800	1	32572	14551	1	32720	
16801	1	32440	14552	1	32384	
16802	1	32594	14553	1	32556	
16803	1	32608	14554	1	32664	
16804	1	32712	14555	1	32692	
16805	1	32900	14556	1	32878	
16806	1	32825	14557	1	33024	
16807	1	32728	14558	1	32864	
16808	1	33116	14559	1	32820	
16809	1	33030	14560	1	32828	
16810	1	32801	14561	1	32592	
16811	1	32880	14562	1	32690	
16812	1	32900	14563	1	32744	
16813	1	32908	14564	1	32872	
16814	1	33020	14565	1	32914	
16815	1	32992	14566	1	32948	
16816	1	32892	14567	1	32704	
16817	1	32888	14568	1	32637	
16818	1	32752	14569	1	32826	
16819	1	32512	14570	1	32712	
16820	1	32668	14571	1	32770	
16821	1	32914	14572	1	32870	
16822	1	32708	14573	1	32676	
16823	1	32788	14574	1	32592	
16824	1	32902	14575	1	32814	
16825	1	32748	14576	1	32784	
16826	1	32816	14577	1	32921	
16827	1	32598	14578	1	32770	
16828	1	32492	14579	1	32420	
16829	1	32592	14580	1	32173	
16830	1	32696	14581	1	32558	
16831	1	32736	14582	1	32612	
16832	1	33128	14583	1	32936	
16833	1	33304	14584	1	33168	
16834	1	32854	14585	1	32848	
16835	1	32936	14586	1	32876	
16836	1	32760	14587	1	32910	
16837	1	32402	14588	1	32540	
16838	1	32648	14589	1	32655	
16839	1	32668	14590	1	32788	
16840	1	32800	14591	1	32836	
16841	1	33084	14592	1	32968	
16842	1	33192	14593	1	32980	
16843	1	32929	14594	1	32818	
16844	1	32694	14595	1	32592	
16845	1	32932	14596	1	32620	
16846	1	32720	14597	1	32520	
16847	1	32648	14598	1	32452	
16848	1	32936	14599	1	32832	
16849	1	32712	14600	1	32800	
16850	1	32656	14601	1	32574	
16851	1	32890	14602	1	32795	
16852	1	32685	14603	1	32744	
16853	1	32660	14604	1	32770	
16854	1	32804	14605	1	32682	
16855	1	32562	14606	1	32634	
16856	1	32752	14607	1	32440	
16857	1	32932	14608	1	32768	
16858	1	32601	14609	1	32748	
16859	1	32553	14610	1	32312	
16860	1	32864	14611	1	32552	
16861	1	32922	14612	1	32808	
16862	1	32848	14613	1	32880	
16863	1	32924	14614	1	32704	
16864	1	32700	14615	1	32756	
16865	1	32750	14616	1	32786	
16866	1	32888	14617	1	32780	
16867	1	33009	14618	1	32952	
16868	1	32932	14619	1	32862	
16869	1	32741	14620	1	32820	
16870	1	32636	14621	1	32726	
16871	1	32708	14622	1	32732	
16872	1	32804	14623	1	32844	
16873	1	32996	14624	1	32897	
16874	1	32880	14625	1	32784	
16875	1	32972	14626	1	32760	
16876	1	32884	14627	1	32845	
16877	1	32752	14628	1	32720	
16878	1	32760	14629	1	32614	
16879	1	32724	14630	1	32684	
16880	1	32544	14631	1	32736	
16881	1	32690	14632	1	32692	
16882	1	32836	14633	1	32782	
16883	1	32672	14634	1	32728	
16884	1	32752	14635	1	32670	
16885	1	32864	14636	1	32808	
16886	1	32752	14637	1	32872	
16887	1	32936	14638	1	32868	
16888	1	32910	14639	1	32984	
16889	1	32832	14640	1	32784	
16890	1	32942	14641	1	32740	
16891	1	32996	14642	1	32932	
16892	1	32644	14643	1	32768	
16893	1	32784	14644	1	32688	
16894	1	32834	14645	1	32808	
16895	1	32820	14646	1	32748	
16896	1	32740	14647	1	32673	
16897	1	32960	14648	1	32776	
16898	1	32760	14649	1	32816	
16899	1	32501	14650	1	32528	
16900	1	32557	14651	1	32598	
16901	1	32582	14652	1	32528	
16902	1	32824	14653	1	32568	
16903	1	32868	14654	1	32841	
16904	1	32588	14655	1	32730	
16905	1	32593	14656	1	32684	
16906	1	32932	14657	1	32825	
16907	1	32814	14658	1	32834	
16908	1	32780	14659	1	32584	
16909	1	32896	14660	1	32748	
16910	1	32722	14661	1	32833	
16911	1	32690	14662	1	32638	
16912	1	32876	14663	1	32704	
16913	1	33176	14664	1	32952	
16914	1	33054	14665	1	32930	
16915	1	32904	14666	1	32896	
16916	1	32640	14667	1	32568	
16917	1	32665	14668	1	32582	
16918	1	32608	14669	1	32512	
16919	1	32545	14670	1	32520	
16920	1	32520	14671	1	32528	
16921	1	32748	14672	1	32664	
16922	1	32764	14673	1	32880	
16923	1	32532	14674	1	32656	
16924	1	32676	14675	1	32620	
16925	1	32760	14676	1	32736	
16926	1	32860	14677	1	32802	
16927	1	32868	14678	1	32792	
16928	1	33008	14679	1	32912	
16929	1	32920	14680	1	32856	
16930	1	32896	14681	1	32626	
16931	1	32992	14682	1	32763	
16932	1	32984	14683	1	32752	
16933	1	32992	14684	1	32825	
16934	1	32973	14685	1	33032	
16935	1	32868	14686	1	32908	
16936	1	32856	14687	1	32824	
16937	1	32944	14688	1	33092	
16938	1	32821	14689	1	32888	
16939	1	32548	14690	1	32328	
16940	1	32888	14691	1	32654	
16941	1	32640	14692	1	32824	
16942	1	32792	14693	1	32627	
16943	1	33076	14694	1	32962	
16944	1	32748	14695	1	32832	
16945	1	32516	14696	1	32652	
16946	1	32684	14697	1	32569	
16947	1	32528	14698	1	32576	
16948	1	32596	14699	1	32516	
16949	1	33036	14700	1	32744	
16950	1	32842	14701	1	32645	
16951	1	32752	14702	1	32600	
16952	1	32700	14703	1	32744	
16953	1	32838	14704	1	32784	
16954	1	32753	14705	1	32768	
16955	1	32932	14706	1	32817	
16956	1	32816	14707	1	32872	
16957	1	32506	14708	1	32488	
16958	1	32660	14709	1	32552	
16959	1	32768	14710	1	32768	
16960	1	32712	14711	1	33010	
16961	1	32836	14712	1	32892	
16962	1	33056	14713	1	33030	
16963	1	32885	14714	1	32846	
16964	1	32944	14715	1	32896	
16965	1	32952	14716	1	32900	
16966	1	32780	14717	1	32696	
16967	1	32922	14718	1	32642	
16968	1	32845	14719	1	32784	
16969	1	32730	14720	1	32793	
16970	1	32852	14721	1	32554	
16971	1	32836	14722	1	32616	
16972	1	32764	14723	1	32658	
16973	1	32728	14724	1	32706	
16974	1	32744	14725	1	32748	
16975	1	32760	14726	1	32774	
16976	1	32748	14727	1	32728	
16977	1	32664	14728	1	32736	
16978	1	32740	14729	1	32556	
16979	1	32788	14730	1	32500	
16980	1	32740	14731	1	32716	
16981	1	32609	14732	1	32506	
16982	1	32834	14733	1	32529	
16983	1	32980	14734	1	32748	
16984	1	32761	14735	1	32902	
16985	1	32774	14736	1	32712	
16986	1	32870	14737	1	32796	
16987	1	32684	14738	1	32801	
16988	1	32776	14739	1	32760	
16989	1	33024	14740	1	32768	
16990	1	32976	14741	1	33010	
16991	1	32736	14742	1	32781	
16992	1	32796	14743	1	32844	
16993	1	32904	14744	1	33045	
16994	1	32882	14745	1	32912	
16995	1	33144	14746	1	33090	
16996	1	32892	14747	1	32944	
16997	1	32696	14748	1	32656	
16998	1	32816	14749	1	32810	
16999	1	32668	14750	1	32696	
17000	1	32628	14751	1	32492	
17001	1	32896	14752	1	32616	
17002	1	32797	14753	1	32744	
17003	1	32604	14754	1	32494	
17004	1	32996	14755	1	32504	
17005	1	32872	14756	1	32814	
17006	1	32616	14757	1	32624	
17007	1	32712	14758	1	32660	
17008	1	32608	14759	1	32657	
17009	1	32532	14760	1	32516	
17010	1	32660	14761	1	32570	
17011	1	32654	14762	1	32684	
17012	1	32641	14763	1	32699	
17013	1	32952	14764	1	32797	
17014	1	33248	14765	1	33044	
17015	1	32892	14766	1	32834	
17016	1	32936	14767	1	32684	
17017	1	32952	14768	1	32920	
17018	1	32720	14769	1	32733	
17019	1	32770	14770	1	32588	
17020	1	32848	14771	1	32812	
17021	1	32700	14772	1	32772	
17022	1	32724	14773	1	32660	
17023	1	33024	14774	1	32932	
17024	1	32940	14775	1	33046	
17025	1	32785	14776	1	32872	
17026	1	32558	14777	1	32748	
17027	1	32436	14778	1	32579	
17028	1	32558	14779	1	32456	
17029	1	32620	14780	1	32636	
17030	1	32552	14781	1	32692	
17031	1	32756	14782	1	32614	
17032	1	32856	14783	1	32795	
17033	1	32788	14784	1	32856	
17034	1	32748	14785	1	32674	
17035	1	33080	14786	1	32844	
17036	1	32820	14787	1	33032	
17037	1	32672	14788	1	32724	
17038	1	32756	14789	1	32658	
17039	1	32776	14790	1	32626	
17040	1	32668	14791	1	32534	
17041	1	32820	14792	1	32628	
17042	1	32872	14793	1	32708	
17043	1	32956	14794	1	32760	
17044	1	33052	14795	1	32712	
17045	1	32992	14796	1	32897	
17046	1	32725	14797	1	32760	
17047	1	32912	14798	1	32786	
17048	1	32848	14799	1	33024	
17049	1	32533	14800	1	32776	
17050	1	32792	14801	1	32666	
17051	1	32942	14802	1	32794	
17052	1	32780	14803	1	32716	
17053	1	32796	14804	1	32770	
17054	1	33040	14805	1	32740	
17055	1	32814	14806	1	32832	
17056	1	32712	14807	1	32564	
17057	1	32805	14808	1	32512	
17058	1	32544	14809	1	32517	
17059	1	32640	14810	1	32690	
17060	1	32524	14811	1	32684	
17061	1	32544	14812	1	32404	
17062	1	32772	14813	1	32652	
17063	1	32972	14814	1	32952	
17064	1	32832	14815	1	32920	
17065	1	32820	14816	1	32828	
17066	1	32874	14817	1	32944	
17067	1	32648	14818	1	32752	
17068	1	32576	14819	1	32568	
17069	1	32801	14820	1	32626	
17070	1	33060	14821	1	32944	
17071	1	33024	14822	1	32938	
17072	1	33028	14823	1	32948	
17073	1	32752	14824	1	32832	
17074	1	32796	14825	1	32780	
17075	1	32964	14826	1	32744	
17076	1	32780	14827	1	32544	
17077	1	32860	14828	1	32572	
17078	1	33032	14829	1	32770	
17079	1	32568	14830	1	32658	
17080	1	32568	14831	1	32352	
17081	1	32824	14832	1	32616	
17082	1	32814	14833	1	32856	
17083	1	32780	14834	1	32768	
17084	1	32993	14835	1	32812	
17085	1	32920	14836	1	32912	
17086	1	32804	14837	1	32596	
17087	1	32958	14838	1	32656	
17088	1	32752	14839	1	32716	
17089	1	32762	14840	1	32640	
17090	1	33052	14841	1	32848	
17091	1	32986	14842	1	32845	
17092	1	32900	14843	1	32753	
17093	1	32984	14844	1	32842	
17094	1	32856	14845	1	32946	
17095	1	32456	14846	1	32680	
17096	1	32584	14847	1	32628	
17097	1	32792	14848	1	33088	
17098	1	32576	14849	1	32850	
17099	1	32645	14850	1	32768	
17100	1	32788	14851	1	32746	
17101	1	32805	14852	1	32633	
17102	1	32788	14853	1	32644	
17103	1	32576	14854	1	32528	
17104	1	32452	14855	1	32316	
17105	1	32804	14856	1	32690	
17106	1	32940	14857	1	32984	
17107	1	32610	14858	1	32662	
17108	1	32600	14859	1	32488	
17109	1	32827	14860	1	32684	
17110	1	32784	14861	1	32778	
17111	1	32928	14862	1	32762	
17112	1	33172	14863	1	33040	
17113	1	32986	14864	1	32986	
17114	1	32972	14865	1	32870	
17115	1	32866	14866	1	32964	
17116	1	32708	14867	1	32856	
17117	1	32844	14868	1	32720	
17118	1	32932	14869	1	32952	
17119	1	32824	14870	1	32800	
17120	1	32766	14871	1	32770	
17121	1	32805	14872	1	32834	
17122	1	32808	14873	1	32788	
17123	1	32837	14874	1	32681	
17124	1	32848	14875	1	32612	
17125	1	32668	14876	1	32553	
17126	1	30669	14877	1	33186	
17127	1	31669	14878	1	30388	
17128	1	34496	14879	1	34272	
17129	1	31668	14880	1	33906	
17130	1	32840	14881	1	31094	
17131	1	35512	14882	1	35122	
17132	1	32880	14883	1	33380	
17133	1	32694	14884	1	32456	
17134	1	32214	14885	1	31942	
17135	1	30812	14886	1	30860	
17136	1	31204	14887	1	31264	
17137	1	32450	14888	1	31776	
17138	1	33066	14889	1	33014	
17139	1	34772	14890	1	34088	
17140	1	34024	14891	1	34827	
17141	1	34148	14892	1	33662	
17142	1	32140	14893	1	33348	
17143	1	31892	14894	1	31460	
17144	1	32988	14895	1	32648	
17145	1	32952	14896	1	32709	
17146	1	34468	14897	1	33799	
17147	1	33038	14898	1	33380	
17148	1	33006	14899	1	32474	
17149	1	32318	14900	1	32665	
17150	1	32280	14901	1	31970	
17151	1	32508	14902	1	32690	
17152	1	31865	14903	1	31692	
17153	1	32905	14904	1	32488	
17154	1	32116	14905	1	32576	
17155	1	32464	14906	1	32416	
17156	1	32904	14907	1	32740	
17157	1	32948	14908	1	32944	
17158	1	33176	14909	1	33309	
17159	1	32916	14910	1	33296	
17160	1	32592	14911	1	33012	
17161	1	31866	14912	1	32047	
17162	1	32095	14913	1	31864	
17163	1	33356	14914	1	32568	
17164	1	33854	14915	1	33612	
17165	1	33344	14916	1	33266	
17166	1	33521	14917	1	33159	
17167	1	32542	14918	1	32816	
17168	1	32072	14919	1	31864	
17169	1	32044	14920	1	32164	
17170	1	32248	14921	1	32166	
17171	1	33356	14922	1	32958	
17172	1	32984	14923	1	33060	
17173	1	33320	14924	1	33094	
17174	1	33369	14925	1	33543	
17175	1	32977	14926	1	33138	
17176	1	32788	14927	1	33010	
17177	1	31748	14928	1	32142	
17178	1	32285	14929	1	32048	
17179	1	32618	14930	1	32644	
17180	1	33036	14931	1	32820	
17181	1	33080	14932	1	32804	
17182	1	33001	14933	1	32778	
17183	1	32956	14934	1	32884	
17184	1	32649	14935	1	32384	
17185	1	32984	14936	1	32628	
17186	1	32524	14937	1	32520	
17187	1	32448	14938	1	32320	
17188	1	32996	14939	1	32840	
17189	1	33104	14940	1	33220	
17190	1	32812	14941	1	33016	
17191	1	32791	14942	1	32840	
17192	1	32368	14943	1	32576	
17193	1	32400	14944	1	32098	
17194	1	32952	14945	1	32508	
17195	1	32857	14946	1	32804	
17196	1	32668	14947	1	32674	
17197	1	32752	14948	1	32554	
17198	1	33292	14949	1	33016	
17199	1	32404	14950	1	32772	
17200	1	32589	14951	1	32464	
17201	1	33028	14952	1	33102	
17202	1	32644	14953	1	32903	
17203	1	32960	14954	1	32820	
17204	1	33341	14955	1	33338	
17205	1	33204	14956	1	33164	
17206	1	32560	14957	1	32528	
17207	1	33268	14958	1	32621	
17208	1	32994	14959	1	32972	
17209	1	32716	14960	1	32592	
17210	1	33032	14961	1	33054	
17211	1	32802	14962	1	32868	
17212	1	32710	14963	1	32796	
17213	1	32796	14964	1	32715	
17214	1	32620	14965	1	32513	
17215	1	32676	14966	1	32556	
17216	1	32652	14967	1	32710	
17217	1	32486	14968	1	32620	
17218	1	32636	14969	1	32544	
17219	1	32445	14970	1	32328	
17220	1	32590	14971	1	32460	
17221	1	32969	14972	1	32864	
17222	1	32772	14973	1	32738	
17223	1	33156	14974	1	32960	
17224	1	32616	14975	1	32670	
17225	1	32856	14976	1	32587	
17226	1	32908	14977	1	33056	
17227	1	32488	14978	1	32644	
17228	1	32868	14979	1	32624	
17229	1	32856	14980	1	32968	
17230	1	32578	14981	1	32611	
17231	1	32518	14982	1	32408	
17232	1	33029	14983	1	32830	
17233	1	33357	14984	1	33096	
17234	1	33222	14985	1	33008	
17235	1	33336	14986	1	33120	
17236	1	32728	14987	1	32878	
17237	1	32044	14988	1	32230	
17238	1	32484	14989	1	32113	
17239	1	32924	14990	1	32856	
17240	1	32816	14991	1	32812	
17241	1	33170	14992	1	33083	
17242	1	32749	14993	1	32932	
17243	1	32660	14994	1	32336	
17244	1	32868	14995	1	32776	
17245	1	32636	14996	1	32568	
17246	1	32768	14997	1	32500	
17247	1	32852	14998	1	32674	
17248	1	32617	14999	1	32732	
17249	1	32734	15000	1	32860	
17250	1	32820	15001	1	32864	
17251	1	32708	15002	1	32808	
17252	1	32644	15003	1	32522	
17253	1	32736	15004	1	32764	
17254	1	33108	15005	1	33212	
17255	1	32800	15006	1	32936	
17256	1	32925	15007	1	32780	
17257	1	33148	15008	1	32912	
17258	1	32517	15009	1	32632	
17259	1	32928	15010	1	32581	
17260	1	32868	15011	1	32800	
17261	1	32672	15012	1	32582	
17262	1	33012	15013	1	32716	
17263	1	32640	15014	1	32772	
17264	1	32592	15015	1	32472	
17265	1	32700	15016	1	32660	
17266	1	33060	15017	1	32837	
17267	1	32949	15018	1	33000	
17268	1	33021	15019	1	32980	
17269	1	32848	15020	1	32852	
17270	1	32656	15021	1	32524	
17271	1	32788	15022	1	32700	
17272	1	32844	15023	1	32602	
17273	1	32976	15024	1	32760	
17274	1	33112	15025	1	33114	
17275	1	32872	15026	1	32996	
17276	1	32488	15027	1	32620	
17277	1	32660	15028	1	32608	
17278	1	32400	15029	1	32240	
17279	1	33140	15030	1	32836	
17280	1	32841	15031	1	33060	
17281	1	32860	15032	1	32726	
17282	1	32980	15033	1	33080	
17283	1	32447	15034	1	32568	
17284	1	32644	15035	1	32540	
17285	1	32612	15036	1	32704	
17286	1	32596	15037	1	32512	
17287	1	32913	15038	1	32806	
17288	1	32296	15039	1	32658	
17289	1	32568	15040	1	32490	
17290	1	32781	15041	1	32837	
17291	1	32668	15042	1	32682	
17292	1	33020	15043	1	32705	
17293	1	32752	15044	1	32982	
17294	1	32606	15045	1	32268	
17295	1	32952	15046	1	32797	
17296	1	32632	15047	1	32774	
17297	1	32933	15048	1	32792	
17298	1	32964	15049	1	33060	
17299	1	32708	15050	1	32740	
17300	1	32668	15051	1	32654	
17301	1	32912	15052	1	32868	
17302	1	32854	15053	1	32924	
17303	1	32632	15054	1	32668	
17304	1	32856	15055	1	32796	
17305	1	33116	15056	1	33106	
17306	1	32396	15057	1	32708	
17307	1	32616	15058	1	32450	
17308	1	32935	15059	1	32964	
17309	1	32721	15060	1	32708	
17310	1	32872	15061	1	32508	
17311	1	32990	15062	1	32752	
17312	1	32868	15063	1	32816	
17313	1	32700	15064	1	32672	
17314	1	32644	15065	1	32541	
17315	1	33185	15066	1	32794	
17316	1	32792	15067	1	32813	
17317	1	32733	15068	1	32652	
17318	1	32910	15069	1	32976	
17319	1	32504	15070	1	32637	
17320	1	32568	15071	1	32370	
17321	1	32977	15072	1	32802	
17322	1	32804	15073	1	32697	
17323	1	32852	15074	1	32775	
17324	1	32892	15075	1	33052	
17325	1	32809	15076	1	32909	
17326	1	32548	15077	1	32780	
17327	1	32526	15078	1	32482	
17328	1	32808	15079	1	32569	
17329	1	32724	15080	1	32740	
17330	1	32808	15081	1	32676	
17331	1	33064	15082	1	32864	
17332	1	32908	15083	1	32964	
17333	1	32706	15084	1	32664	
17334	1	33156	15085	1	33072	
17335	1	32900	15086	1	33176	
17336	1	32764	15087	1	32636	
17337	1	33144	15088	1	33012	
17338	1	32700	15089	1	32797	
17339	1	32928	15090	1	32824	
17340	1	32676	15091	1	32617	
17341	1	32428	15092	1	32256	
17342	1	32832	15093	1	32704	
17343	1	32954	15094	1	33024	
17344	1	32724	15095	1	32640	
17345	1	32816	15096	1	32602	
17346	1	32912	15097	1	32755	
17347	1	32644	15098	1	32641	
17348	1	32524	15099	1	32488	
17349	1	32604	15100	1	32644	
17350	1	32900	15101	1	32708	
17351	1	32862	15102	1	32804	
17352	1	32833	15103	1	32770	
17353	1	32924	15104	1	32742	
17354	1	32768	15105	1	32741	
17355	1	32961	15106	1	32566	
17356	1	33508	15107	1	33000	
17357	1	30260	15108	1	31731	
17358	1	30064	15109	1	34648	
17359	1	31976	15110	1	41460	
17360	1	24873	15111	1	14629	
17361	1	45384	15112	1	59200	
17362	1	23924	15113	1	41728	
17363	1	15914	15114	1	26592	
17364	1	34776	15115	1	41076	
17365	1	33484	15116	1	39624	
17366	1	34320	15117	1	31764	
17367	1	35832	15118	1	35084	
17368	1	34556	15119	1	35428	
17369	1	31516	15120	1	30907	
17370	1	30728	15121	1	32113	
17371	1	25020	15122	1	21208	
17372	1	28316	15123	1	28490	
17373	1	22964	15124	1	23253	
17374	1	30788	15125	1	27744	
17375	1	34800	15126	1	31144	
17376	1	37914	15127	1	39140	
17377	1	41800	15128	1	42772	
17378	1	46668	15129	1	44240	
17379	1	46008	15130	1	44896	
17380	1	38832	15131	1	38248	
17381	1	36013	15132	1	33764	
17382	1	27586	15133	1	27220	
17383	1	28038	15134	1	26616	
17384	1	27568	15135	1	26738	
17385	1	24256	15136	1	24974	
17386	1	28736	15137	1	26788	
17387	1	31896	15138	1	29232	
17388	1	32372	15139	1	31360	
17389	1	29336	15140	1	28528	
17390	1	34324	15141	1	33092	
17391	1	32546	15142	1	34112	
17392	1	36928	15143	1	37976	
17393	1	37367	15144	1	39260	
17394	1	36268	15145	1	37043	
17395	1	33828	15146	1	35236	
17396	1	31516	15147	1	30876	
17397	1	32262	15148	1	33367	
17398	1	28708	15149	1	27463	
17399	1	32880	15150	1	28400	
17400	1	31332	15151	1	29162	
17401	1	31116	15152	1	28976	
17402	1	30584	15153	1	30644	
17403	1	30304	15154	1	29600	
17404	1	32653	15155	1	31152	
17405	1	33268	15156	1	33240	
17406	1	35546	15157	1	35792	
17407	1	33172	15158	1	34824	
17408	1	34356	15159	1	34192	
17409	1	33320	15160	1	35424	
17410	1	36224	15161	1	34560	
17411	1	36372	15162	1	37596	
17412	1	34404	15163	1	34936	
17413	1	34488	15164	1	34652	
17414	1	31088	15165	1	32330	
17415	1	31870	15166	1	31020	
17416	1	30416	15167	1	29936	
17417	1	30872	15168	1	29396	
17418	1	31976	15169	1	30236	
17419	1	32873	15170	1	31476	
17420	1	31988	15171	1	32357	
17421	1	31768	15172	1	31800	
17422	1	32112	15173	1	33344	
17423	1	31852	15174	1	32008	
17424	1	32428	15175	1	33090	
17425	1	31608	15176	1	32187	
17426	1	32450	15177	1	33143	
17427	1	31020	15178	1	32438	
17428	1	32138	15179	1	31404	
17429	1	32432	15180	1	32580	
17430	1	32672	15181	1	32374	
17431	1	32647	15182	1	32948	
17432	1	33352	15183	1	32692	
17433	1	34318	15184	1	33712	
17434	1	33752	15185	1	34018	
17435	1	35508	15186	1	34080	
17436	1	35664	15187	1	34976	
17437	1	35052	15188	1	35272	
17438	1	34212	15189	1	33572	
17439	1	33948	15190	1	33108	
17440	1	33092	15191	1	32412	
17441	1	32568	15192	1	31750	
17442	1	33576	15193	1	32708	
17443	1	31920	15194	1	31962	
17444	1	33774	15195	1	32545	
17445	1	31748	15196	1	32744	
17446	1	32054	15197	1	31504	
17447	1	31468	15198	1	32961	
17448	1	31148	15199	1	31616	
17449	1	32252	15200	1	32348	
17450	1	31596	15201	1	32354	
17451	1	32308	15202	1	32298	
17452	1	31932	15203	1	32278	
17453	1	31825	15204	1	31914	
17454	1	31398	15205	1	31585	
17455	1	32613	15206	1	32044	
17456	1	33048	15207	1	33216	
17457	1	32753	15208	1	32524	
17458	1	33180	15209	1	33304	
17459	1	33486	15210	1	33115	
17460	1	33708	15211	1	33257	
17461	1	33072	15212	1	33392	
17462	1	33676	15213	1	33448	
17463	1	33077	15214	1	33216	
17464	1	33360	15215	1	32728	
17465	1	33189	15216	1	33200	
17466	1	32696	15217	1	32658	
17467	1	33368	15218	1	32924	
17468	1	33812	15219	1	33288	
17469	1	33688	15220	1	33380	
17470	1	33361	15221	1	33210	
17471	1	33377	15222	1	33124	
17472	1	33057	15223	1	33118	
17473	1	33093	15224	1	32536	
17474	1	32204	15225	1	32370	
17475	1	31712	15226	1	31816	
17476	1	31816	15227	1	31806	
17477	1	31536	15228	1	31804	
17478	1	31542	15229	1	31769	
17479	1	31420	15230	1	31584	
17480	1	31994	15231	1	32080	
17481	1	32432	15232	1	32544	
17482	1	32714	15233	1	32832	
17483	1	32768	15234	1	33076	
17484	1	32672	15235	1	32740	
17485	1	33084	15236	1	32845	
17486	1	33200	15237	1	33134	
17487	1	33256	15238	1	33080	
17488	1	33296	15239	1	33072	
17489	1	33500	15240	1	33122	
17490	1	33425	15241	1	33368	
17491	1	33776	15242	1	33288	
17492	1	33452	15243	1	33546	
17493	1	33420	15244	1	33232	
17494	1	33580	15245	1	33348	
17495	1	33428	15246	1	33400	
17496	1	33468	15247	1	33418	
17497	1	32976	15248	1	32964	
17498	1	32793	15249	1	32574	
17499	1	32717	15250	1	32628	
17500	1	32492	15251	1	32341	
17501	1	32649	15252	1	32558	
17502	1	32600	15253	1	32584	
17503	1	32693	15254	1	32442	
17504	1	32552	15255	1	32458	
17505	1	32508	15256	1	32468	
17506	1	31904	15257	1	31888	
17507	1	32336	15258	1	32030	
17508	1	32036	15259	1	32328	
17509	1	31756	15260	1	31840	
17510	1	31772	15261	1	32048	
17511	1	31904	15262	1	31914	
17512	1	32281	15263	1	32304	
17513	1	32741	15264	1	32594	
17514	1	33140	15265	1	33198	
17515	1	32970	15266	1	33154	
17516	1	33488	15267	1	33372	
17517	1	33464	15268	1	33730	
17518	1	33746	15269	1	33480	
17519	1	33590	15270	1	33522	
17520	1	33616	15271	1	33369	
17521	1	33328	15272	1	33136	
17522	1	33134	15273	1	32868	
17523	1	33168	15274	1	33082	
17524	1	32804	15275	1	32568	
17525	1	32775	15276	1	32444	
17526	1	32740	15277	1	32694	
17527	1	32420	15278	1	32408	
17528	1	32256	15279	1	32220	
17529	1	32300	15280	1	32200	
17530	1	31920	15281	1	32144	
17531	1	32100	15282	1	32230	
17532	1	32480	15283	1	32522	
17533	1	32364	15284	1	32410	
17534	1	32676	15285	1	32492	
17535	1	32796	15286	1	32732	
17536	1	32671	15287	1	32886	
17537	1	33025	15288	1	32896	
17538	1	33024	15289	1	32890	
17539	1	32876	15290	1	32882	
17540	1	32649	15291	1	32696	
17541	1	32500	15292	1	32652	
17542	1	32352	15293	1	32584	
17543	1	32708	15294	1	32372	
17544	1	33173	15295	1	32906	
17545	1	33064	15296	1	32884	
17546	1	33112	15297	1	32818	
17547	1	33176	15298	1	33000	
17548	1	33240	15299	1	33112	
17549	1	33096	15300	1	33160	
17550	1	33382	15301	1	33452	
17551	1	33596	15302	1	33416	
17552	1	33445	15303	1	33410	
17553	1	33592	15304	1	33480	
17554	1	33302	15305	1	33313	
17555	1	32858	15306	1	32932	
17556	1	32766	15307	1	32612	
17557	1	32816	15308	1	32616	
17558	1	32452	15309	1	32246	
17559	1	32456	15310	1	32170	
17560	1	32210	15311	1	32420	
17561	1	32196	15312	1	32124	
17562	1	32332	15313	1	32138	
17563	1	32060	15314	1	32228	
17564	1	32232	15315	1	32244	
17565	1	32600	15316	1	32440	
17566	1	32660	15317	1	32712	
17567	1	32492	15318	1	32721	
17568	1	32672	15319	1	32668	
17569	1	32756	15320	1	32792	
17570	1	32620	15321	1	32737	
17571	1	32744	15322	1	32897	
17572	1	33181	15323	1	33068	
17573	1	33236	15324	1	33049	
17574	1	33284	15325	1	33000	
17575	1	33260	15326	1	33158	
17576	1	33128	15327	1	32972	
17577	1	33117	15328	1	32964	
17578	1	33064	15329	1	33056	
17579	1	32892	15330	1	32784	
17580	1	32968	15331	1	32778	
17581	1	32965	15332	1	33046	
17582	1	32554	15333	1	32775	
17583	1	32644	15334	1	32504	
17584	1	32732	15335	1	32516	
17585	1	32308	15336	1	32434	
17586	1	32316	15337	1	32302	
17587	1	32572	15338	1	32578	
17588	1	32216	15339	1	32557	
17589	1	32260	15340	1	32272	
17590	1	32452	15341	1	32400	
17591	1	32484	15342	1	32592	
17592	1	32552	15343	1	32580	
17593	1	32993	15344	1	32626	
17594	1	32974	15345	1	32864	
17595	1	32792	15346	1	32756	
17596	1	32844	15347	1	32740	
17597	1	32760	15348	1	32696	
17598	1	32720	15349	1	32706	
17599	1	32936	15350	1	32792	
17600	1	33100	15351	1	33040	
17601	1	32949	15352	1	32796	
17602	1	33032	15353	1	32953	
17603	1	32852	15354	1	33067	
17604	1	32656	15355	1	32809	
17605	1	32829	15356	1	32616	
17606	1	32976	15357	1	32812	
17607	1	32960	15358	1	32888	
17608	1	32945	15359	1	32723	
17609	1	32808	15360	1	32836	
17610	1	32365	15361	1	32658	
17611	1	32653	15362	1	32592	
17612	1	33006	15363	1	32962	
17613	1	33024	15364	1	32844	
17614	1	33112	15365	1	32992	
17615	1	33038	15366	1	33126	
17616	1	32940	15367	1	32822	
17617	1	32876	15368	1	32720	
17618	1	32912	15369	1	32728	
17619	1	32669	15370	1	32602	
17620	1	32636	15371	1	32532	
17621	1	32714	15372	1	32676	
17622	1	32581	15373	1	32550	
17623	1	32576	15374	1	32491	
17624	1	32670	15375	1	32647	
17625	1	32621	15376	1	32690	
17626	1	32542	15377	1	32612	
17627	1	32772	15378	1	32800	
17628	1	32724	15379	1	32812	
17629	1	32607	15380	1	32540	
17630	1	32756	15381	1	32664	
17631	1	32916	15382	1	32856	
17632	1	33057	15383	1	32858	
17633	1	33436	15384	1	33080	
17634	1	33232	15385	1	33232	
17635	1	33236	15386	1	33122	
17636	1	33196	15387	1	33208	
17637	1	32904	15388	1	33032	
17638	1	32892	15389	1	32674	
17639	1	32812	15390	1	32705	
17640	1	32744	15391	1	32746	
17641	1	32650	15392	1	32565	
17642	1	32696	15393	1	32558	
17643	1	32584	15394	1	32532	
17644	1	32490	15395	1	32343	
17645	1	32464	15396	1	32280	
17646	1	32236	15397	1	32300	
17647	1	32316	15398	1	32336	
17648	1	32512	15399	1	32572	
17649	1	32374	15400	1	32683	
17650	1	32298	15401	1	32505	
17651	1	32684	15402	1	32704	
17652	1	32736	15403	1	32857	
17653	1	32840	15404	1	32738	
17654	1	33120	15405	1	32914	
17655	1	33148	15406	1	33088	
17656	1	33020	15407	1	33028	
17657	1	32804	15408	1	32848	
17658	1	32830	15409	1	32872	
17659	1	32984	15410	1	32864	
17660	1	33305	15411	1	32984	
17661	1	33156	15412	1	33002	
17662	1	33004	15413	1	32904	
17663	1	32933	15414	1	32864	
17664	1	32900	15415	1	32904	
17665	1	32872	15416	1	32800	
17666	1	32740	15417	1	32640	
17667	1	32872	15418	1	32760	
17668	1	32812	15419	1	32768	
17669	1	32764	15420	1	32676	
17670	1	32976	15421	1	32948	
17671	1	32680	15422	1	32852	
17672	1	32652	15423	1	32616	
17673	1	32764	15424	1	32640	
17674	1	32768	15425	1	32656	
17675	1	32382	15426	1	32508	
17676	1	32430	15427	1	32314	
17677	1	32414	15428	1	32368	
17678	1	32512	15429	1	32412	
17679	1	32586	15430	1	32420	
17680	1	32548	15431	1	32584	
17681	1	32616	15432	1	32604	
17682	1	33024	15433	1	32786	
17683	1	32988	15434	1	32840	
17684	1	32788	15435	1	32712	
17685	1	33068	15436	1	32950	
17686	1	33228	15437	1	33384	
17687	1	32869	15438	1	33204	
17688	1	32976	15439	1	33058	
17689	1	33188	15440	1	33160	
17690	1	32957	15441	1	32889	
17691	1	32928	15442	1	32760	
17692	1	32960	15443	1	32792	
17693	1	32822	15444	1	32714	
17694	1	33104	15445	1	32844	
17695	1	32884	15446	1	32967	
17696	1	32484	15447	1	32448	
17697	1	32538	15448	1	32226	
17698	1	32582	15449	1	32406	
17699	1	32376	15450	1	32209	
17700	1	32392	15451	1	32348	
17701	1	32564	15452	1	32552	
17702	1	32440	15453	1	32468	
17703	1	32576	15454	1	32548	
17704	1	32609	15455	1	32696	
17705	1	32728	15456	1	32973	
17706	1	32793	15457	1	32872	
17707	1	32812	15458	1	32808	
17708	1	32844	15459	1	32816	
17709	1	33156	15460	1	32794	
17710	1	33092	15461	1	32754	
17711	1	32872	15462	1	32729	
17712	1	33064	15463	1	32840	
17713	1	33286	15464	1	33104	
17714	1	33100	15465	1	33092	
17715	1	33156	15466	1	33210	
17716	1	33392	15467	1	33514	
17717	1	33144	15468	1	33232	
17718	1	33046	15469	1	32952	
17719	1	32960	15470	1	32904	
17720	1	32692	15471	1	32848	
17721	1	32562	15472	1	32649	
17722	1	32624	15473	1	32592	
17723	1	32774	15474	1	32636	
17724	1	32620	15475	1	32480	
17725	1	32680	15476	1	32557	
17726	1	32542	15477	1	32584	
17727	1	32472	15478	1	32342	
17728	1	32501	15479	1	32356	
17729	1	32320	15480	1	32297	
17730	1	32060	15481	1	32100	
17731	1	32240	15482	1	32252	
17732	1	32500	15483	1	32548	
17733	1	32484	15484	1	32556	
17734	1	32852	15485	1	32714	
17735	1	33018	15486	1	33088	
17736	1	32826	15487	1	32929	
17737	1	32709	15488	1	32804	
17738	1	32708	15489	1	32820	
17739	1	32764	15490	1	32694	
17740	1	32912	15491	1	32804	
17741	1	33198	15492	1	32948	
17742	1	33084	15493	1	32928	
17743	1	33436	15494	1	32996	
17744	1	33384	15495	1	33272	
17745	1	32908	15496	1	32992	
17746	1	32908	15497	1	33060	
17747	1	32992	15498	1	33065	
17748	1	32556	15499	1	32660	
17749	1	32553	15500	1	32448	
17750	1	32736	15501	1	32660	
17751	1	32664	15502	1	32476	
17752	1	32648	15503	1	32626	
17753	1	32844	15504	1	32912	
17754	1	32530	15505	1	32726	
17755	1	32592	15506	1	32554	
17756	1	32672	15507	1	32580	
17757	1	32352	15508	1	32336	
17758	1	32470	15509	1	32282	
17759	1	32580	15510	1	32446	
17760	1	32456	15511	1	32314	
17761	1	32504	15512	1	32444	
17762	1	32981	15513	1	32884	
17763	1	33014	15514	1	33050	
17764	1	32916	15515	1	32813	
17765	1	32980	15516	1	32796	
17766	1	33038	15517	1	33004	
17767	1	32940	15518	1	32960	
17768	1	33004	15519	1	33092	
17769	1	33096	15520	1	33176	
17770	1	33208	15521	1	33084	
17771	1	33142	15522	1	33072	
17772	1	32969	15523	1	32930	
17773	1	32929	15524	1	32804	
17774	1	33046	15525	1	32840	
17775	1	32860	15526	1	32752	
17776	1	32807	15527	1	32562	
17777	1	32688	15528	1	32524	
17778	1	32544	15529	1	32636	
17779	1	32205	15530	1	32312	
17780	1	32468	15531	1	32440	
17781	1	32653	15532	1	32522	
17782	1	32636	15533	1	32482	
17783	1	32756	15534	1	32627	
17784	1	32978	15535	1	32833	
17785	1	32856	15536	1	32792	
17786	1	32804	15537	1	32716	
17787	1	32852	15538	1	32852	
17788	1	32796	15539	1	32784	
17789	1	32740	15540	1	32628	
17790	1	32988	15541	1	32864	
17791	1	32728	15542	1	32696	
17792	1	32738	15543	1	32712	
17793	1	33012	15544	1	33104	
17794	1	32660	15545	1	32908	
17795	1	32854	15546	1	32937	
17796	1	33060	15547	1	33012	
17797	1	32916	15548	1	32828	
17798	1	32832	15549	1	32800	
17799	1	32748	15550	1	32796	
17800	1	32608	15551	1	32672	
17801	1	32537	15552	1	32573	
17802	1	32717	15553	1	32766	
17803	1	32764	15554	1	32684	
17804	1	32774	15555	1	32800	
17805	1	32964	15556	1	32908	
17806	1	32678	15557	1	32680	
17807	1	32568	15558	1	32620	
17808	1	32745	15559	1	32580	
17809	1	32577	15560	1	32448	
17810	1	32710	15561	1	32424	
17811	1	32932	15562	1	32844	
17812	1	32874	15563	1	32841	
17813	1	32582	15564	1	32524	
17814	1	32796	15565	1	32616	
17815	1	32921	15566	1	32879	
17816	1	32788	15567	1	32764	
17817	1	32924	15568	1	32878	
17818	1	32919	15569	1	32930	
17819	1	32696	15570	1	32696	
17820	1	32861	15571	1	32788	
17821	1	32846	15572	1	32788	
17822	1	32756	15573	1	32672	
17823	1	32900	15574	1	32906	
17824	1	32900	15575	1	33000	
17825	1	32696	15576	1	32772	
17826	1	32862	15577	1	32700	
17827	1	32852	15578	1	32740	
17828	1	32426	15579	1	32492	
17829	1	32612	15580	1	32386	
17830	1	32728	15581	1	32596	
17831	1	32740	15582	1	32600	
17832	1	32852	15583	1	32746	
17833	1	32996	15584	1	33016	
17834	1	33124	15585	1	32956	
17835	1	33006	15586	1	32872	
17836	1	32860	15587	1	32944	
17837	1	32790	15588	1	32820	
17838	1	32862	15589	1	32712	
17839	1	32965	15590	1	32884	
17840	1	32748	15591	1	32848	
17841	1	32688	15592	1	32737	
17842	1	32748	15593	1	32952	
17843	1	32696	15594	1	32683	
17844	1	32836	15595	1	32720	
17845	1	33152	15596	1	33136	
17846	1	32784	15597	1	32828	
17847	1	32524	15598	1	32349	
17848	1	32680	15599	1	32482	
17849	1	32704	15600	1	32448	
17850	1	32746	15601	1	32532	
17851	1	32940	15602	1	32872	
17852	1	32799	15603	1	32816	
17853	1	32736	15604	1	32632	
17854	1	32685	15605	1	32634	
17855	1	32236	15606	1	32412	
17856	1	32389	15607	1	32144	
17857	1	32613	15608	1	32488	
17858	1	32670	15609	1	32530	
17859	1	32504	15610	1	32458	
17860	1	32740	15611	1	32760	
17861	1	32832	15612	1	33032	
17862	1	32960	15613	1	33027	
17863	1	33136	15614	1	33090	
17864	1	33268	15615	1	33280	
17865	1	33050	15616	1	33162	
17866	1	33173	15617	1	33150	
17867	1	33258	15618	1	33042	
17868	1	33056	15619	1	32836	
17869	1	33196	15620	1	33012	
17870	1	32988	15621	1	33002	
17871	1	32696	15622	1	32826	
17872	1	32784	15623	1	32924	
17873	1	32856	15624	1	32872	
17874	1	32508	15625	1	32612	
17875	1	32592	15626	1	32424	
17876	1	32556	15627	1	32392	
17877	1	32168	15628	1	32241	
17878	1	32400	15629	1	32340	
17879	1	32636	15630	1	32552	
17880	1	32316	15631	1	32556	
17881	1	32316	15632	1	32326	
17882	1	32433	15633	1	32476	
17883	1	32422	15634	1	32288	
17884	1	32608	15635	1	32556	
17885	1	32854	15636	1	32872	
17886	1	32836	15637	1	32928	
17887	1	32935	15638	1	32936	
17888	1	33072	15639	1	33132	
17889	1	32824	15640	1	32816	
17890	1	32848	15641	1	32649	
17891	1	33524	15642	1	32900	
17892	1	33262	15643	1	33044	
17893	1	33126	15644	1	32926	
17894	1	33244	15645	1	33008	
17895	1	33144	15646	1	33096	
17896	1	32836	15647	1	32877	
17897	1	33044	15648	1	32968	
17898	1	33016	15649	1	33002	
17899	1	32780	15650	1	32888	
17900	1	32776	15651	1	32874	
17901	1	32572	15652	1	32722	
17902	1	32564	15653	1	32632	
17903	1	32984	15654	1	32824	
17904	1	32824	15655	1	32720	
17905	1	32268	15656	1	32240	
17906	1	32456	15657	1	32520	
17907	1	32676	15658	1	32712	
17908	1	32312	15659	1	32386	
17909	1	32264	15660	1	32284	
17910	1	32469	15661	1	32456	
17911	1	32364	15662	1	32356	
17912	1	32490	15663	1	32386	
17913	1	32565	15664	1	32492	
17914	1	32600	15665	1	32512	
17915	1	32820	15666	1	32829	
17916	1	32969	15667	1	33016	
17917	1	32724	15668	1	32764	
17918	1	32892	15669	1	32864	
17919	1	33152	15670	1	33150	
17920	1	32916	15671	1	32932	
17921	1	33004	15672	1	32900	
17922	1	32960	15673	1	33005	
17923	1	32884	15674	1	32729	
17924	1	33024	15675	1	32696	
17925	1	33204	15676	1	33064	
17926	1	33352	15677	1	33000	
17927	1	33260	15678	1	32962	
17928	1	33008	15679	1	32864	
17929	1	32596	15680	1	32516	
17930	1	32756	15681	1	32672	
17931	1	32884	15682	1	33018	
17932	1	32796	15683	1	32804	
17933	1	32660	15684	1	32828	
17934	1	32944	15685	1	33065	
17935	1	32664	15686	1	32672	
17936	1	32520	15687	1	32428	
17937	1	32764	15688	1	32652	
17938	1	32656	15689	1	32666	
17939	1	32656	15690	1	32506	
17940	1	32704	15691	1	32581	
17941	1	32528	15692	1	32568	
17942	1	32756	15693	1	32668	
17943	1	33028	15694	1	32840	
17944	1	33060	15695	1	32900	
17945	1	32860	15696	1	32708	
17946	1	32916	15697	1	32892	
17947	1	32788	15698	1	32832	
17948	1	32612	15699	1	32629	
17949	1	32912	15700	1	32844	
17950	1	33032	15701	1	32840	
17951	1	32773	15702	1	32634	
17952	1	33023	15703	1	32816	
17953	1	32924	15704	1	32986	
17954	1	32805	15705	1	32814	
17955	1	32840	15706	1	32706	
17956	1	32876	15707	1	32774	
17957	1	32568	15708	1	32514	
17958	1	32660	15709	1	32516	
17959	1	32693	15710	1	32644	
17960	1	32658	15711	1	32688	
17961	1	32833	15712	1	32798	
17962	1	32776	15713	1	32804	
17963	1	32634	15714	1	32556	
17964	1	32704	15715	1	32541	
17965	1	32777	15716	1	32716	
17966	1	32589	15717	1	32636	
17967	1	32636	15718	1	32736	
17968	1	32784	15719	1	32964	
17969	1	32585	15720	1	32685	
17970	1	32604	15721	1	32468	
17971	1	32972	15722	1	32708	
17972	1	33014	15723	1	32844	
17973	1	33196	15724	1	32896	
17974	1	33108	15725	1	32856	
17975	1	32764	15726	1	32700	
17976	1	32692	15727	1	32650	
17977	1	32692	15728	1	32706	
17978	1	32580	15729	1	32536	
17979	1	32736	15730	1	32585	
17980	1	33060	15731	1	33016	
17981	1	32660	15732	1	32832	
17982	1	32586	15733	1	32672	
17983	1	32974	15734	1	32952	
17984	1	33060	15735	1	32995	
17985	1	32804	15736	1	32900	
17986	1	32814	15737	1	32896	
17987	1	32732	15738	1	32780	
17988	1	32748	15739	1	32700	
17989	1	32936	15740	1	32768	
17990	1	32988	15741	1	32762	
17991	1	32936	15742	1	32800	
17992	1	32942	15743	1	32902	
17993	1	32792	15744	1	32738	
17994	1	32572	15745	1	32586	
17995	1	33120	15746	1	32752	
17996	1	33140	15747	1	32905	
17997	1	32748	15748	1	32676	
17998	1	32749	15749	1	32740	
17999	1	32824	15750	1	32920	
18000	1	32760	15751	1	32720	
18001	1	32770	15752	1	32898	
18002	1	32960	15753	1	33076	
18003	1	32644	15754	1	32784	
18004	1	32802	15755	1	32688	
18005	1	32752	15756	1	32712	
18006	1	32484	15757	1	32458	
18007	1	32788	15758	1	32780	
18008	1	32848	15759	1	32756	
18009	1	32380	15760	1	32364	
18010	1	32488	15761	1	32296	
18011	1	32568	15762	1	32594	
18012	1	32498	15763	1	32340	
18013	1	32645	15764	1	32568	
18014	1	32976	15765	1	32900	
18015	1	32872	15766	1	32752	
