# OpenSignals Text File Format
# {"00:07:80:3B:46:58": {"sensor": ["RAW"], "device name": "00:07:80:3B:46:58", "column": ["nSeq", "DI", "CH1"], "sync interval": 2, "time": "13:33:17.331", "comments": "", "device connection": "BTH00:07:80:3B:46:58", "channels": [1], "keywords": "", "mode": 0, "digital IO": [0, 1], "firmware version": 774, "device": "biosignalsplux", "position": 0, "sampling rate": 1000, "label": ["CH1"], "resolution": [16], "date": "2019-3-12", "special": [{}]}}
# EndOfHeader
0	0	33540	
1	0	33504	
2	0	33200	
3	0	33364	
4	0	33547	
5	0	33500	
6	0	33198	
7	0	33370	
8	0	33546	
9	0	33496	
10	0	33208	
11	0	33372	
12	0	33552	
13	0	33498	
14	0	33192	
15	0	33362	
16	0	33548	
17	0	33480	
18	0	33188	
19	0	33360	
20	0	33534	
21	0	33483	
22	0	33194	
23	0	33352	
24	0	33532	
25	0	33472	
26	0	33184	
27	0	33356	
28	0	33544	
29	0	33485	
30	0	33190	
31	0	33370	
32	0	33544	
33	0	33476	
34	0	33180	
35	0	33360	
36	0	33544	
37	0	33472	
38	0	33188	
39	0	33362	
40	0	33540	
41	0	33476	
42	0	33182	
43	0	33356	
44	0	33540	
45	0	33464	
46	0	33176	
47	0	33354	
48	0	33524	
49	0	33476	
50	0	33174	
51	0	33364	
52	0	33536	
53	0	33474	
54	0	33180	
55	0	33354	
56	0	33530	
57	0	33476	
58	0	33180	
59	0	33368	
60	0	33536	
61	0	33472	
62	0	33177	
63	0	33360	
64	0	33528	
65	0	33466	
66	0	33162	
67	0	33354	
68	0	33522	
69	0	33456	
70	0	33170	
71	0	33360	
72	0	33526	
73	0	33464	
74	0	33164	
75	0	33346	
76	0	33512	
77	0	33460	
78	0	33168	
79	0	33346	
80	0	33522	
81	0	33444	
82	0	33162	
83	0	33336	
84	0	33504	
85	0	33436	
86	0	33146	
87	0	33332	
88	0	33504	
89	0	33424	
90	0	33136	
91	0	33326	
92	0	33496	
93	0	33428	
94	0	33135	
95	0	33322	
96	0	33490	
97	0	33412	
98	0	33116	
99	0	33316	
100	0	33496	
101	0	33420	
102	0	33120	
103	0	33320	
104	0	33476	
105	0	33408	
106	0	33100	
107	0	33300	
108	0	33474	
109	0	33402	
110	0	33100	
111	0	33304	
112	0	33472	
113	0	33396	
114	0	33100	
115	0	33300	
116	0	33472	
117	0	33392	
118	0	33100	
119	0	33304	
120	0	33476	
121	0	33388	
122	0	33098	
123	0	33304	
124	0	33464	
125	0	33386	
126	0	33092	
127	0	33286	
128	0	33468	
129	0	33376	
130	0	33088	
131	0	33292	
132	0	33468	
133	0	33372	
134	0	33096	
135	0	33286	
136	0	33458	
137	0	33368	
138	0	33080	
139	0	33299	
140	0	33464	
141	0	33368	
142	0	33076	
143	0	33298	
144	0	33460	
145	0	33366	
146	0	33076	
147	0	33296	
148	0	33456	
149	0	33360	
150	0	33068	
151	0	33296	
152	0	33460	
153	0	33360	
154	0	33068	
155	0	33296	
156	0	33472	
157	0	33356	
158	0	33068	
159	0	33304	
160	0	33476	
161	0	33365	
162	0	33076	
163	0	33306	
164	0	33476	
165	0	33348	
166	0	33064	
167	0	33296	
168	0	33466	
169	0	33344	
170	0	33062	
171	0	33312	
172	0	33472	
173	0	33344	
174	0	33060	
175	0	33304	
176	0	33464	
177	0	33344	
178	0	33056	
179	0	33304	
180	0	33476	
181	0	33340	
182	0	33068	
183	0	33308	
184	0	33476	
185	0	33344	
186	0	33056	
187	0	33304	
188	0	33472	
189	0	33339	
190	0	33072	
191	0	33309	
192	0	33480	
193	0	33340	
194	0	33064	
195	0	33300	
196	0	33472	
197	0	33338	
198	0	33065	
199	0	33304	
200	0	33488	
201	0	33338	
202	0	33076	
203	0	33316	
204	0	33476	
205	0	33352	
206	0	33076	
207	0	33312	
208	0	33474	
209	0	33336	
210	0	33070	
211	0	33316	
212	0	33476	
213	0	33330	
214	0	33068	
215	0	33304	
216	0	33470	
217	0	33336	
218	0	33064	
219	0	33316	
220	0	33476	
221	0	33344	
222	0	33080	
223	0	33312	
224	0	33476	
225	0	33328	
226	0	33072	
227	0	33304	
228	0	33468	
229	0	33316	
230	0	33072	
231	0	33302	
232	0	33472	
233	0	33312	
234	0	33072	
235	0	33292	
236	0	33464	
237	0	33304	
238	0	33070	
239	0	33296	
240	0	33472	
241	0	33320	
242	0	33072	
243	0	33306	
244	0	33456	
245	0	33306	
246	0	33066	
247	0	33296	
248	0	33464	
249	0	33296	
250	0	33064	
251	0	33296	
252	0	33464	
253	0	33287	
254	0	33064	
255	0	33280	
256	0	33452	
257	0	33287	
258	0	33064	
259	0	33298	
260	0	33458	
261	0	33298	
262	0	33064	
263	0	33296	
264	0	33458	
265	0	33286	
266	0	33068	
267	0	33296	
268	0	33464	
269	0	33282	
270	0	33065	
271	0	33288	
272	0	33452	
273	0	33272	
274	0	33064	
275	0	33286	
276	0	33452	
277	0	33276	
278	0	33068	
279	0	33296	
280	0	33456	
281	0	33272	
282	0	33074	
283	0	33304	
284	0	33452	
285	0	33274	
286	0	33072	
287	0	33296	
288	0	33456	
289	0	33266	
290	0	33076	
291	0	33300	
292	0	33460	
293	0	33252	
294	0	33084	
295	0	33298	
296	0	33459	
297	0	33252	
298	0	33078	
299	0	33308	
300	0	33464	
301	0	33260	
302	0	33092	
303	0	33316	
304	0	33468	
305	0	33248	
306	0	33084	
307	0	33316	
308	0	33468	
309	0	33250	
310	0	33104	
311	0	33313	
312	0	33472	
313	0	33232	
314	0	33090	
315	0	33297	
316	0	33456	
317	0	33240	
318	0	33100	
319	0	33308	
320	0	33484	
321	0	33232	
322	0	33108	
323	0	33312	
324	0	33474	
325	0	33240	
326	0	33106	
327	0	33320	
328	0	33480	
329	0	33237	
330	0	33112	
331	0	33324	
332	0	33478	
333	0	33232	
334	0	33102	
335	0	33308	
336	0	33456	
337	0	33222	
338	0	33098	
339	0	33312	
340	0	33479	
341	0	33225	
342	0	33104	
343	0	33312	
344	0	33472	
345	0	33216	
346	0	33102	
347	0	33312	
348	0	33456	
349	0	33218	
350	0	33098	
351	0	33312	
352	0	33464	
353	0	33210	
354	0	33100	
355	0	33309	
356	0	33458	
357	0	33196	
358	0	33100	
359	0	33312	
360	0	33476	
361	0	33200	
362	0	33116	
363	0	33320	
364	0	33476	
365	0	33200	
366	0	33108	
367	0	33316	
368	0	33476	
369	0	33189	
370	0	33116	
371	0	33322	
372	0	33476	
373	0	33184	
374	0	33116	
375	0	33313	
376	0	33460	
377	0	33174	
378	0	33107	
379	0	33312	
380	0	33464	
381	0	33172	
382	0	33112	
383	0	33312	
384	0	33474	
385	0	33168	
386	0	33112	
387	0	33320	
388	0	33478	
389	0	33168	
390	0	33128	
391	0	33322	
392	0	33474	
393	0	33156	
394	0	33110	
395	0	33309	
396	0	33472	
397	0	33144	
398	0	33122	
399	0	33308	
400	0	33472	
401	0	33138	
402	0	33124	
403	0	33316	
404	0	33472	
405	0	33144	
406	0	33113	
407	0	33308	
408	0	33464	
409	0	33144	
410	0	33112	
411	0	33312	
412	0	33464	
413	0	33124	
414	0	33108	
415	0	33304	
416	0	33444	
417	0	33118	
418	0	33100	
419	0	33292	
420	0	33448	
421	0	33116	
422	0	33104	
423	0	33304	
424	0	33450	
425	0	33116	
426	0	33098	
427	0	33296	
428	0	33444	
429	0	33117	
430	0	33104	
431	0	33298	
432	0	33444	
433	0	33112	
434	0	33110	
435	0	33284	
436	0	33440	
437	0	33104	
438	0	33092	
439	0	33296	
440	0	33440	
441	0	33104	
442	0	33096	
443	0	33292	
444	0	33432	
445	0	33092	
446	0	33104	
447	0	33287	
448	0	33426	
449	0	33092	
450	0	33096	
451	0	33287	
452	0	33432	
453	0	33100	
454	0	33093	
455	0	33286	
456	0	33424	
457	0	33088	
458	0	33084	
459	0	33276	
460	0	33416	
461	0	33084	
462	0	33092	
463	0	33274	
464	0	33410	
465	0	33082	
466	0	33092	
467	0	33280	
468	0	33410	
469	0	33080	
470	0	33084	
471	0	33280	
472	0	33410	
473	0	33088	
474	0	33096	
475	0	33274	
476	0	33400	
477	0	33071	
478	0	33088	
479	0	33276	
480	0	33392	
481	0	33064	
482	0	33082	
483	0	33272	
484	0	33392	
485	0	33056	
486	0	33088	
487	0	33268	
488	0	33374	
489	0	33058	
490	0	33084	
491	0	33274	
492	0	33376	
493	0	33054	
494	0	33085	
495	0	33260	
496	0	33368	
497	0	33055	
498	0	33084	
499	0	33264	
500	0	33368	
501	0	33045	
502	0	33088	
503	0	33264	
504	0	33360	
505	0	33028	
506	0	33078	
507	0	33264	
508	0	33352	
509	0	33029	
510	0	33096	
511	0	33280	
512	0	33338	
513	0	33018	
514	0	33080	
515	0	33264	
516	0	33330	
517	0	33020	
518	0	33085	
519	0	33266	
520	0	33336	
521	0	33014	
522	0	33088	
523	0	33272	
524	0	33320	
525	0	33004	
526	0	33074	
527	0	33265	
528	0	33318	
529	0	33004	
530	0	33092	
531	0	33281	
532	0	33326	
533	0	33008	
534	0	33080	
535	0	33264	
536	0	33317	
537	0	33004	
538	0	33080	
539	0	33264	
540	0	33324	
541	0	33008	
542	0	33080	
543	0	33261	
544	0	33312	
545	0	33000	
546	0	33078	
547	0	33264	
548	0	33316	
549	0	33008	
550	0	33088	
551	0	33264	
552	0	33312	
553	0	32992	
554	0	33074	
555	0	33264	
556	0	33300	
557	0	32984	
558	0	33080	
559	0	33258	
560	0	33304	
561	0	32984	
562	0	33080	
563	0	33256	
564	0	33287	
565	0	32968	
566	0	33066	
567	0	33248	
568	0	33287	
569	0	32978	
570	0	33080	
571	0	33256	
572	0	33287	
573	0	32984	
574	0	33068	
575	0	33248	
576	0	33268	
577	0	32960	
578	0	33074	
579	0	33256	
580	0	33278	
581	0	32962	
582	0	33084	
583	0	33252	
584	0	33252	
585	0	32953	
586	0	33070	
587	0	33252	
588	0	33252	
589	0	32952	
590	0	33080	
591	0	33264	
592	0	33252	
593	0	32952	
594	0	33074	
595	0	33256	
596	0	33249	
597	0	32944	
598	0	33080	
599	0	33256	
600	0	33250	
601	0	32954	
602	0	33076	
603	0	33256	
604	0	33241	
605	0	32952	
606	0	33080	
607	0	33248	
608	0	33245	
609	0	32946	
610	0	33085	
611	0	33266	
612	0	33243	
613	0	32948	
614	0	33084	
615	0	33261	
616	0	33232	
617	0	32950	
618	0	33088	
619	0	33268	
620	0	33242	
621	0	32940	
622	0	33092	
623	0	33268	
624	0	33228	
625	0	32929	
626	0	33089	
627	0	33262	
628	0	33224	
629	0	32928	
630	0	33080	
631	0	33268	
632	0	33232	
633	0	32930	
634	0	33092	
635	0	33260	
636	0	33216	
637	0	32922	
638	0	33092	
639	0	33268	
640	0	33216	
641	0	32924	
642	0	33096	
643	0	33266	
644	0	33212	
645	0	32912	
646	0	33092	
647	0	33260	
648	0	33210	
649	0	32920	
650	0	33092	
651	0	33272	
652	0	33210	
653	0	32916	
654	0	33092	
655	0	33266	
656	0	33211	
657	0	32912	
658	0	33092	
659	0	33274	
660	0	33202	
661	0	32912	
662	0	33092	
663	0	33268	
664	0	33200	
665	0	32901	
666	0	33088	
667	0	33265	
668	0	33192	
669	0	32900	
670	0	33080	
671	0	33264	
672	0	33192	
673	0	32892	
674	0	33080	
675	0	33252	
676	0	33188	
677	0	32888	
678	0	33088	
679	0	33257	
680	0	33184	
681	0	32904	
682	0	33092	
683	0	33264	
684	0	33176	
685	0	32872	
686	0	33080	
687	0	33248	
688	0	33168	
689	0	32872	
690	0	33085	
691	0	33248	
692	0	33158	
693	0	32872	
694	0	33072	
695	0	33250	
696	0	33146	
697	0	32864	
698	0	33072	
699	0	33236	
700	0	33148	
701	0	32866	
702	0	33068	
703	0	33249	
704	0	33146	
705	0	32864	
706	0	33065	
707	0	33241	
708	0	33144	
709	0	32856	
710	0	33072	
711	0	33238	
712	0	33144	
713	0	32863	
714	0	33075	
715	0	33236	
716	0	33128	
717	0	32842	
718	0	33066	
719	0	33237	
720	0	33136	
721	0	32850	
722	0	33071	
723	0	33240	
724	0	33132	
725	0	32840	
726	0	33057	
727	0	33228	
728	0	33125	
729	0	32852	
730	0	33072	
731	0	33240	
732	0	33124	
733	0	32841	
734	0	33056	
735	0	33225	
736	0	33120	
737	0	32840	
738	0	33058	
739	0	33240	
740	0	33122	
741	0	32832	
742	0	33073	
743	0	33236	
744	0	33130	
745	0	32840	
746	0	33062	
747	0	33232	
748	0	33124	
749	0	32836	
750	0	33074	
751	0	33228	
752	0	33114	
753	0	32832	
754	0	33056	
755	0	33224	
756	0	33110	
757	0	32824	
758	0	33056	
759	0	33224	
760	0	33120	
761	0	32832	
762	0	33060	
763	0	33236	
764	0	33112	
765	0	32828	
766	0	33072	
767	0	33242	
768	0	33110	
769	0	32833	
770	0	33065	
771	0	33240	
772	0	33114	
773	0	32824	
774	0	33064	
775	0	33224	
776	0	33098	
777	0	32820	
778	0	33076	
779	0	33234	
780	0	33108	
781	0	32840	
782	0	33072	
783	0	33242	
784	0	33108	
785	0	32836	
786	0	33072	
787	0	33234	
788	0	33110	
789	0	32840	
790	0	33076	
791	0	33248	
792	0	33088	
793	0	32850	
794	0	33084	
795	0	33240	
796	0	33082	
797	0	32844	
798	0	33083	
799	0	33250	
800	0	33096	
801	0	32852	
802	0	33088	
803	0	33240	
804	0	33080	
805	0	32850	
806	0	33076	
807	0	33253	
808	0	33084	
809	0	32858	
810	0	33090	
811	0	33248	
812	0	33084	
813	0	32857	
814	0	33072	
815	0	33244	
816	0	33064	
817	0	32852	
818	0	33078	
819	0	33248	
820	0	33074	
821	0	32868	
822	0	33088	
823	0	33252	
824	0	33080	
825	0	32858	
826	0	33080	
827	0	33240	
828	0	33081	
829	0	32856	
830	0	33088	
831	0	33248	
832	0	33064	
833	0	32856	
834	0	33074	
835	0	33249	
836	0	33056	
837	0	32842	
838	0	33064	
839	0	33236	
840	0	33052	
841	0	32854	
842	0	33076	
843	0	33242	
844	0	33052	
845	0	32856	
846	0	33084	
847	0	33244	
848	0	33056	
849	0	32860	
850	0	33088	
851	0	33250	
852	0	33052	
853	0	32852	
854	0	33068	
855	0	33220	
856	0	33048	
857	0	32848	
858	0	33072	
859	0	33240	
860	0	33038	
861	0	32856	
862	0	33072	
863	0	33236	
864	0	33036	
865	0	32862	
866	0	33073	
867	0	33232	
868	0	33040	
869	0	32864	
870	0	33068	
871	0	33240	
872	0	33036	
873	0	32859	
874	0	33064	
875	0	33237	
876	0	33026	
877	0	32840	
878	0	33072	
879	0	33224	
880	0	33032	
881	0	32854	
882	0	33072	
883	0	33236	
884	0	33024	
885	0	32854	
886	0	33064	
887	0	33232	
888	0	33028	
889	0	32856	
890	0	33082	
891	0	33240	
892	0	33020	
893	0	32860	
894	0	33072	
895	0	33232	
896	0	33018	
897	0	32856	
898	0	33070	
899	0	33236	
900	0	33016	
901	0	32868	
902	0	33082	
903	0	33244	
904	0	33008	
905	0	32864	
906	0	33072	
907	0	33240	
908	0	33016	
909	0	32872	
910	0	33076	
911	0	33245	
912	0	33014	
913	0	32868	
914	0	33086	
915	0	33236	
916	0	33002	
917	0	32860	
918	0	33080	
919	0	33236	
920	0	33002	
921	0	32866	
922	0	33076	
923	0	33232	
924	0	33000	
925	0	32857	
926	0	33076	
927	0	33232	
928	0	32992	
929	0	32856	
930	0	33074	
931	0	33240	
932	0	33001	
933	0	32873	
934	0	33068	
935	0	33240	
936	0	32994	
937	0	32864	
938	0	33072	
939	0	33236	
940	0	32984	
941	0	32876	
942	0	33080	
943	0	33245	
944	0	32976	
945	0	32886	
946	0	33088	
947	0	33244	
948	0	32976	
949	0	32882	
950	0	33090	
951	0	33248	
952	0	32972	
953	0	32880	
954	0	33084	
955	0	33248	
956	0	32970	
957	0	32866	
958	0	33076	
959	0	33240	
960	0	32964	
961	0	32880	
962	0	33084	
963	0	33240	
964	0	32964	
965	0	32872	
966	0	33072	
967	0	33244	
968	0	32972	
969	0	32889	
970	0	33088	
971	0	33240	
972	0	32968	
973	0	32888	
974	0	33088	
975	0	33248	
976	0	32953	
977	0	32880	
978	0	33082	
979	0	33240	
980	0	32954	
981	0	32890	
982	0	33088	
983	0	33244	
984	0	32950	
985	0	32880	
986	0	33094	
987	0	33240	
988	0	32946	
989	0	32890	
990	0	33088	
991	0	33254	
992	0	32960	
993	0	32884	
994	0	33080	
995	0	33233	
996	0	32936	
997	0	32878	
998	0	33080	
999	0	33232	
1000	0	32936	
1001	0	32888	
1002	0	33089	
1003	0	33240	
1004	0	32930	
1005	0	32880	
1006	0	33073	
1007	0	33238	
1008	0	32924	
1009	0	32876	
1010	0	33084	
1011	0	33244	
1012	0	32928	
1013	0	32893	
1014	0	33084	
1015	0	33240	
1016	0	32923	
1017	0	32888	
1018	0	33080	
1019	0	33240	
1020	0	32924	
1021	0	32884	
1022	0	33090	
1023	0	33242	
1024	0	32914	
1025	0	32888	
1026	0	33094	
1027	0	33242	
1028	0	32928	
1029	0	32900	
1030	0	33088	
1031	0	33248	
1032	0	32916	
1033	0	32902	
1034	0	33088	
1035	0	33245	
1036	0	32912	
1037	0	32903	
1038	0	33104	
1039	0	33248	
1040	0	32910	
1041	0	32908	
1042	0	33104	
1043	0	33256	
1044	0	32900	
1045	0	32912	
1046	0	33096	
1047	0	33248	
1048	0	32922	
1049	0	32920	
1050	0	33112	
1051	0	33252	
1052	0	32920	
1053	0	32916	
1054	0	33104	
1055	0	33248	
1056	0	32924	
1057	0	32912	
1058	0	33114	
1059	0	33258	
1060	0	32916	
1061	0	32924	
1062	0	33122	
1063	0	33252	
1064	0	32913	
1065	0	32912	
1066	0	33104	
1067	0	33244	
1068	0	32912	
1069	0	32924	
1070	0	33120	
1071	0	33256	
1072	0	32916	
1073	0	32932	
1074	0	33120	
1075	0	33257	
1076	0	32912	
1077	0	32929	
1078	0	33120	
1079	0	33242	
1080	0	32912	
1081	0	32928	
1082	0	33128	
1083	0	33232	
1084	0	32906	
1085	0	32928	
1086	0	33120	
1087	0	33220	
1088	0	32896	
1089	0	32932	
1090	0	33124	
1091	0	33216	
1092	0	32890	
1093	0	32938	
1094	0	33113	
1095	0	33204	
1096	0	32876	
1097	0	32921	
1098	0	33114	
1099	0	33209	
1100	0	32880	
1101	0	32929	
1102	0	33122	
1103	0	33190	
1104	0	32878	
1105	0	32920	
1106	0	33106	
1107	0	33190	
1108	0	32880	
1109	0	32932	
1110	0	33108	
1111	0	33184	
1112	0	32872	
1113	0	32912	
1114	0	33108	
1115	0	33182	
1116	0	32856	
1117	0	32920	
1118	0	33100	
1119	0	33172	
1120	0	32858	
1121	0	32916	
1122	0	33106	
1123	0	33174	
1124	0	32864	
1125	0	32912	
1126	0	33092	
1127	0	33168	
1128	0	32848	
1129	0	32912	
1130	0	33100	
1131	0	33164	
1132	0	32848	
1133	0	32913	
1134	0	33096	
1135	0	33160	
1136	0	32836	
1137	0	32904	
1138	0	33088	
1139	0	33142	
1140	0	32829	
1141	0	32921	
1142	0	33096	
1143	0	33140	
1144	0	32829	
1145	0	32906	
1146	0	33094	
1147	0	33128	
1148	0	32818	
1149	0	32901	
1150	0	33081	
1151	0	33112	
1152	0	32810	
1153	0	32904	
1154	0	33096	
1155	0	33118	
1156	0	32806	
1157	0	32897	
1158	0	33088	
1159	0	33112	
1160	0	32810	
1161	0	32904	
1162	0	33092	
1163	0	33113	
1164	0	32808	
1165	0	32897	
1166	0	33080	
1167	0	33104	
1168	0	32800	
1169	0	32908	
1170	0	33084	
1171	0	33108	
1172	0	32788	
1173	0	32896	
1174	0	33080	
1175	0	33092	
1176	0	32784	
1177	0	32900	
1178	0	33080	
1179	0	33096	
1180	0	32784	
1181	0	32896	
1182	0	33084	
1183	0	33090	
1184	0	32786	
1185	0	32896	
1186	0	33072	
1187	0	33076	
1188	0	32775	
1189	0	32888	
1190	0	33080	
1191	0	33088	
1192	0	32774	
1193	0	32893	
1194	0	33080	
1195	0	33068	
1196	0	32772	
1197	0	32892	
1198	0	33080	
1199	0	33090	
1200	0	32768	
1201	0	32906	
1202	0	33076	
1203	0	33080	
1204	0	32768	
1205	0	32891	
1206	0	33076	
1207	0	33080	
1208	0	32764	
1209	0	32894	
1210	0	33076	
1211	0	33076	
1212	0	32770	
1213	0	32896	
1214	0	33064	
1215	0	33066	
1216	0	32760	
1217	0	32892	
1218	0	33072	
1219	0	33068	
1220	0	32764	
1221	0	32900	
1222	0	33080	
1223	0	33068	
1224	0	32762	
1225	0	32896	
1226	0	33068	
1227	0	33042	
1228	0	32754	
1229	0	32889	
1230	0	33068	
1231	0	33046	
1232	0	32746	
1233	0	32888	
1234	0	33060	
1235	0	33034	
1236	0	32746	
1237	0	32892	
1238	0	33068	
1239	0	33044	
1240	0	32740	
1241	0	32888	
1242	0	33074	
1243	0	33048	
1244	0	32737	
1245	0	32896	
1246	0	33072	
1247	0	33034	
1248	0	32732	
1249	0	32900	
1250	0	33076	
1251	0	33029	
1252	0	32728	
1253	0	32888	
1254	0	33056	
1255	0	33012	
1256	0	32722	
1257	0	32880	
1258	0	33064	
1259	0	33012	
1260	0	32720	
1261	0	32890	
1262	0	33057	
1263	0	33012	
1264	0	32714	
1265	0	32882	
1266	0	33057	
1267	0	33008	
1268	0	32704	
1269	0	32882	
1270	0	33056	
1271	0	33004	
1272	0	32700	
1273	0	32868	
1274	0	33044	
1275	0	32992	
1276	0	32694	
1277	0	32871	
1278	0	33040	
1279	0	32994	
1280	0	32688	
1281	0	32882	
1282	0	33052	
1283	0	32985	
1284	0	32676	
1285	0	32874	
1286	0	33042	
1287	0	32984	
1288	0	32690	
1289	0	32864	
1290	0	33042	
1291	0	32982	
1292	0	32686	
1293	0	32860	
1294	0	33036	
1295	0	32960	
1296	0	32683	
1297	0	32860	
1298	0	33036	
1299	0	32962	
1300	0	32664	
1301	0	32864	
1302	0	33040	
1303	0	32962	
1304	0	32674	
1305	0	32864	
1306	0	33032	
1307	0	32944	
1308	0	32668	
1309	0	32860	
1310	0	33028	
1311	0	32952	
1312	0	32665	
1313	0	32854	
1314	0	33024	
1315	0	32944	
1316	0	32656	
1317	0	32848	
1318	0	33019	
1319	0	32936	
1320	0	32662	
1321	0	32848	
1322	0	33028	
1323	0	32948	
1324	0	32658	
1325	0	32848	
1326	0	33024	
1327	0	32946	
1328	0	32644	
1329	0	32852	
1330	0	33017	
1331	0	32928	
1332	0	32642	
1333	0	32840	
1334	0	33008	
1335	0	32920	
1336	0	32624	
1337	0	32832	
1338	0	32996	
1339	0	32902	
1340	0	32621	
1341	0	32826	
1342	0	33004	
1343	0	32916	
1344	0	32620	
1345	0	32820	
1346	0	32996	
1347	0	32904	
1348	0	32602	
1349	0	32829	
1350	0	32992	
1351	0	32898	
1352	0	32604	
1353	0	32800	
1354	0	32980	
1355	0	32882	
1356	0	32584	
1357	0	32792	
1358	0	32968	
1359	0	32870	
1360	0	32581	
1361	0	32796	
1362	0	32968	
1363	0	32868	
1364	0	32564	
1365	0	32780	
1366	0	32952	
1367	0	32856	
1368	0	32560	
1369	0	32784	
1370	0	32956	
1371	0	32844	
1372	0	32552	
1373	0	32772	
1374	0	32944	
1375	0	32824	
1376	0	32532	
1377	0	32754	
1378	0	32930	
1379	0	32823	
1380	0	32524	
1381	0	32758	
1382	0	32920	
1383	0	32804	
1384	0	32516	
1385	0	32746	
1386	0	32908	
1387	0	32804	
1388	0	32508	
1389	0	32736	
1390	0	32922	
1391	0	32800	
1392	0	32508	
1393	0	32752	
1394	0	32908	
1395	0	32775	
1396	0	32492	
1397	0	32736	
1398	0	32900	
1399	0	32775	
1400	0	32480	
1401	0	32736	
1402	0	32904	
1403	0	32768	
1404	0	32492	
1405	0	32728	
1406	0	32896	
1407	0	32764	
1408	0	32488	
1409	0	32732	
1410	0	32899	
1411	0	32754	
1412	0	32486	
1413	0	32720	
1414	0	32880	
1415	0	32736	
1416	0	32464	
1417	0	32713	
1418	0	32868	
1419	0	32722	
1420	0	32472	
1421	0	32708	
1422	0	32868	
1423	0	32720	
1424	0	32474	
1425	0	32688	
1426	0	32872	
1427	0	32712	
1428	0	32460	
1429	0	32698	
1430	0	32866	
1431	0	32712	
1432	0	32464	
1433	0	32688	
1434	0	32856	
1435	0	32696	
1436	0	32440	
1437	0	32680	
1438	0	32848	
1439	0	32682	
1440	0	32440	
1441	0	32680	
1442	0	32848	
1443	0	32682	
1444	0	32448	
1445	0	32676	
1446	0	32845	
1447	0	32672	
1448	0	32442	
1449	0	32675	
1450	0	32840	
1451	0	32664	
1452	0	32444	
1453	0	32672	
1454	0	32840	
1455	0	32656	
1456	0	32424	
1457	0	32648	
1458	0	32816	
1459	0	32656	
1460	0	32432	
1461	0	32652	
1462	0	32820	
1463	0	32648	
1464	0	32420	
1465	0	32656	
1466	0	32824	
1467	0	32644	
1468	0	32416	
1469	0	32656	
1470	0	32817	
1471	0	32640	
1472	0	32424	
1473	0	32644	
1474	0	32816	
1475	0	32636	
1476	0	32412	
1477	0	32636	
1478	0	32802	
1479	0	32632	
1480	0	32412	
1481	0	32644	
1482	0	32800	
1483	0	32624	
1484	0	32416	
1485	0	32632	
1486	0	32802	
1487	0	32626	
1488	0	32408	
1489	0	32640	
1490	0	32800	
1491	0	32640	
1492	0	32409	
1493	0	32634	
1494	0	32796	
1495	0	32628	
1496	0	32400	
1497	0	32628	
1498	0	32804	
1499	0	32628	
1500	0	32408	
1501	0	32632	
1502	0	32796	
1503	0	32614	
1504	0	32400	
1505	0	32630	
1506	0	32792	
1507	0	32612	
1508	0	32410	
1509	0	32633	
1510	0	32802	
1511	0	32620	
1512	0	32408	
1513	0	32640	
1514	0	32800	
1515	0	32616	
1516	0	32404	
1517	0	32636	
1518	0	32800	
1519	0	32616	
1520	0	32412	
1521	0	32644	
1522	0	32792	
1523	0	32624	
1524	0	32406	
1525	0	32638	
1526	0	32800	
1527	0	32614	
1528	0	32406	
1529	0	32644	
1530	0	32808	
1531	0	32624	
1532	0	32413	
1533	0	32632	
1534	0	32808	
1535	0	32618	
1536	0	32409	
1537	0	32640	
1538	0	32804	
1539	0	32612	
1540	0	32408	
1541	0	32640	
1542	0	32804	
1543	0	32612	
1544	0	32408	
1545	0	32628	
1546	0	32800	
1547	0	32600	
1548	0	32412	
1549	0	32636	
1550	0	32811	
1551	0	32612	
1552	0	32420	
1553	0	32636	
1554	0	32808	
1555	0	32602	
1556	0	32416	
1557	0	32632	
1558	0	32794	
1559	0	32596	
1560	0	32418	
1561	0	32636	
1562	0	32800	
1563	0	32592	
1564	0	32416	
1565	0	32636	
1566	0	32800	
1567	0	32588	
1568	0	32404	
1569	0	32632	
1570	0	32793	
1571	0	32586	
1572	0	32420	
1573	0	32632	
1574	0	32800	
1575	0	32580	
1576	0	32418	
1577	0	32620	
1578	0	32786	
1579	0	32568	
1580	0	32412	
1581	0	32632	
1582	0	32792	
1583	0	32576	
1584	0	32392	
1585	0	32620	
1586	0	32788	
1587	0	32568	
1588	0	32412	
1589	0	32624	
1590	0	32784	
1591	0	32564	
1592	0	32400	
1593	0	32624	
1594	0	32784	
1595	0	32556	
1596	0	32392	
1597	0	32620	
1598	0	32786	
1599	0	32570	
1600	0	32408	
1601	0	32620	
1602	0	32792	
1603	0	32548	
1604	0	32396	
1605	0	32608	
1606	0	32775	
1607	0	32538	
1608	0	32396	
1609	0	32600	
1610	0	32780	
1611	0	32546	
1612	0	32392	
1613	0	32616	
1614	0	32768	
1615	0	32541	
1616	0	32389	
1617	0	32612	
1618	0	32774	
1619	0	32528	
1620	0	32405	
1621	0	32612	
1622	0	32778	
1623	0	32537	
1624	0	32390	
1625	0	32608	
1626	0	32764	
1627	0	32524	
1628	0	32384	
1629	0	32608	
1630	0	32774	
1631	0	32534	
1632	0	32392	
1633	0	32608	
1634	0	32770	
1635	0	32522	
1636	0	32402	
1637	0	32602	
1638	0	32772	
1639	0	32534	
1640	0	32400	
1641	0	32620	
1642	0	32775	
1643	0	32532	
1644	0	32388	
1645	0	32604	
1646	0	32768	
1647	0	32522	
1648	0	32378	
1649	0	32604	
1650	0	32772	
1651	0	32522	
1652	0	32393	
1653	0	32618	
1654	0	32772	
1655	0	32525	
1656	0	32396	
1657	0	32608	
1658	0	32775	
1659	0	32530	
1660	0	32392	
1661	0	32613	
1662	0	32776	
1663	0	32533	
1664	0	32396	
1665	0	32608	
1666	0	32760	
1667	0	32528	
1668	0	32392	
1669	0	32608	
1670	0	32764	
1671	0	32528	
1672	0	32388	
1673	0	32602	
1674	0	32756	
1675	0	32526	
1676	0	32388	
1677	0	32610	
1678	0	32764	
1679	0	32518	
1680	0	32392	
1681	0	32600	
1682	0	32776	
1683	0	32520	
1684	0	32394	
1685	0	32600	
1686	0	32760	
1687	0	32504	
1688	0	32392	
1689	0	32594	
1690	0	32760	
1691	0	32504	
1692	0	32388	
1693	0	32602	
1694	0	32756	
1695	0	32500	
1696	0	32376	
1697	0	32592	
1698	0	32760	
1699	0	32502	
1700	0	32378	
1701	0	32593	
1702	0	32752	
1703	0	32492	
1704	0	32378	
1705	0	32586	
1706	0	32744	
1707	0	32486	
1708	0	32368	
1709	0	32580	
1710	0	32728	
1711	0	32482	
1712	0	32352	
1713	0	32572	
1714	0	32728	
1715	0	32472	
1716	0	32344	
1717	0	32560	
1718	0	32722	
1719	0	32464	
1720	0	32352	
1721	0	32576	
1722	0	32728	
1723	0	32464	
1724	0	32356	
1725	0	32558	
1726	0	32714	
1727	0	32457	
1728	0	32344	
1729	0	32554	
1730	0	32714	
1731	0	32452	
1732	0	32345	
1733	0	32544	
1734	0	32706	
1735	0	32436	
1736	0	32338	
1737	0	32544	
1738	0	32704	
1739	0	32432	
1740	0	32342	
1741	0	32556	
1742	0	32706	
1743	0	32428	
1744	0	32336	
1745	0	32544	
1746	0	32704	
1747	0	32428	
1748	0	32336	
1749	0	32532	
1750	0	32700	
1751	0	32425	
1752	0	32332	
1753	0	32530	
1754	0	32688	
1755	0	32416	
1756	0	32324	
1757	0	32532	
1758	0	32704	
1759	0	32416	
1760	0	32330	
1761	0	32536	
1762	0	32700	
1763	0	32425	
1764	0	32332	
1765	0	32538	
1766	0	32696	
1767	0	32422	
1768	0	32324	
1769	0	32540	
1770	0	32697	
1771	0	32416	
1772	0	32326	
1773	0	32528	
1774	0	32684	
1775	0	32408	
1776	0	32320	
1777	0	32525	
1778	0	32696	
1779	0	32412	
1780	0	32337	
1781	0	32542	
1782	0	32700	
1783	0	32410	
1784	0	32336	
1785	0	32536	
1786	0	32701	
1787	0	32400	
1788	0	32338	
1789	0	32541	
1790	0	32700	
1791	0	32402	
1792	0	32332	
1793	0	32540	
1794	0	32697	
1795	0	32396	
1796	0	32324	
1797	0	32542	
1798	0	32704	
1799	0	32402	
1800	0	32340	
1801	0	32557	
1802	0	32704	
1803	0	32408	
1804	0	32340	
1805	0	32549	
1806	0	32708	
1807	0	32396	
1808	0	32348	
1809	0	32548	
1810	0	32720	
1811	0	32397	
1812	0	32352	
1813	0	32545	
1814	0	32700	
1815	0	32394	
1816	0	32336	
1817	0	32536	
1818	0	32706	
1819	0	32396	
1820	0	32348	
1821	0	32552	
1822	0	32708	
1823	0	32394	
1824	0	32344	
1825	0	32544	
1826	0	32700	
1827	0	32400	
1828	0	32340	
1829	0	32544	
1830	0	32707	
1831	0	32392	
1832	0	32354	
1833	0	32544	
1834	0	32700	
1835	0	32390	
1836	0	32340	
1837	0	32540	
1838	0	32696	
1839	0	32386	
1840	0	32350	
1841	0	32544	
1842	0	32710	
1843	0	32390	
1844	0	32352	
1845	0	32546	
1846	0	32704	
1847	0	32379	
1848	0	32348	
1849	0	32548	
1850	0	32712	
1851	0	32380	
1852	0	32353	
1853	0	32544	
1854	0	32696	
1855	0	32376	
1856	0	32348	
1857	0	32548	
1858	0	32700	
1859	0	32380	
1860	0	32356	
1861	0	32560	
1862	0	32708	
1863	0	32386	
1864	0	32364	
1865	0	32556	
1866	0	32714	
1867	0	32384	
1868	0	32362	
1869	0	32562	
1870	0	32724	
1871	0	32396	
1872	0	32376	
1873	0	32572	
1874	0	32736	
1875	0	32386	
1876	0	32376	
1877	0	32578	
1878	0	32740	
1879	0	32402	
1880	0	32408	
1881	0	32608	
1882	0	32756	
1883	0	32424	
1884	0	32424	
1885	0	32620	
1886	0	32764	
1887	0	32432	
1888	0	32437	
1889	0	32640	
1890	0	32775	
1891	0	32436	
1892	0	32456	
1893	0	32644	
1894	0	32774	
1895	0	32440	
1896	0	32450	
1897	0	32642	
1898	0	32768	
1899	0	32436	
1900	0	32450	
1901	0	32658	
1902	0	32782	
1903	0	32452	
1904	0	32466	
1905	0	32664	
1906	0	32788	
1907	0	32452	
1908	0	32464	
1909	0	32662	
1910	0	32792	
1911	0	32456	
1912	0	32472	
1913	0	32669	
1914	0	32786	
1915	0	32448	
1916	0	32464	
1917	0	32656	
1918	0	32775	
1919	0	32440	
1920	0	32472	
1921	0	32676	
1922	0	32774	
1923	0	32456	
1924	0	32476	
1925	0	32664	
1926	0	32768	
1927	0	32448	
1928	0	32472	
1929	0	32672	
1930	0	32770	
1931	0	32448	
1932	0	32482	
1933	0	32666	
1934	0	32774	
1935	0	32448	
1936	0	32480	
1937	0	32662	
1938	0	32774	
1939	0	32440	
1940	0	32468	
1941	0	32668	
1942	0	32774	
1943	0	32444	
1944	0	32482	
1945	0	32676	
1946	0	32772	
1947	0	32440	
1948	0	32492	
1949	0	32688	
1950	0	32782	
1951	0	32452	
1952	0	32500	
1953	0	32696	
1954	0	32775	
1955	0	32448	
1956	0	32484	
1957	0	32680	
1958	0	32764	
1959	0	32448	
1960	0	32496	
1961	0	32684	
1962	0	32770	
1963	0	32448	
1964	0	32492	
1965	0	32676	
1966	0	32775	
1967	0	32448	
1968	0	32496	
1969	0	32696	
1970	0	32775	
1971	0	32450	
1972	0	32504	
1973	0	32696	
1974	0	32762	
1975	0	32452	
1976	0	32504	
1977	0	32688	
1978	0	32775	
1979	0	32448	
1980	0	32516	
1981	0	32698	
1982	0	32774	
1983	0	32452	
1984	0	32504	
1985	0	32700	
1986	0	32768	
1987	0	32454	
1988	0	32512	
1989	0	32696	
1990	0	32770	
1991	0	32452	
1992	0	32512	
1993	0	32708	
1994	0	32764	
1995	0	32450	
1996	0	32516	
1997	0	32704	
1998	0	32775	
1999	0	32451	
2000	0	32516	
2001	0	32708	
2002	0	32768	
2003	0	32452	
2004	0	32518	
2005	0	32706	
2006	0	32748	
2007	0	32432	
2008	0	32528	
2009	0	32716	
2010	0	32746	
2011	0	32448	
2012	0	32545	
2013	0	32720	
2014	0	32760	
2015	0	32436	
2016	0	32532	
2017	0	32715	
2018	0	32758	
2019	0	32440	
2020	0	32530	
2021	0	32722	
2022	0	32762	
2023	0	32448	
2024	0	32528	
2025	0	32712	
2026	0	32756	
2027	0	32434	
2028	0	32536	
2029	0	32720	
2030	0	32758	
2031	0	32444	
2032	0	32545	
2033	0	32722	
2034	0	32748	
2035	0	32432	
2036	0	32537	
2037	0	32720	
2038	0	32745	
2039	0	32428	
2040	0	32538	
2041	0	32724	
2042	0	32736	
2043	0	32424	
2044	0	32536	
2045	0	32722	
2046	0	32738	
2047	0	32422	
2048	0	32540	
2049	0	32728	
2050	0	32740	
2051	0	32428	
2052	0	32552	
2053	0	32728	
2054	0	32736	
2055	0	32420	
2056	0	32544	
2057	0	32720	
2058	0	32729	
2059	0	32416	
2060	0	32536	
2061	0	32724	
2062	0	32738	
2063	0	32424	
2064	0	32536	
2065	0	32720	
2066	0	32722	
2067	0	32410	
2068	0	32544	
2069	0	32722	
2070	0	32728	
2071	0	32424	
2072	0	32550	
2073	0	32728	
2074	0	32722	
2075	0	32408	
2076	0	32536	
2077	0	32726	
2078	0	32712	
2079	0	32416	
2080	0	32544	
2081	0	32720	
2082	0	32716	
2083	0	32408	
2084	0	32538	
2085	0	32715	
2086	0	32706	
2087	0	32406	
2088	0	32540	
2089	0	32720	
2090	0	32696	
2091	0	32394	
2092	0	32533	
2093	0	32712	
2094	0	32692	
2095	0	32392	
2096	0	32536	
2097	0	32712	
2098	0	32696	
2099	0	32392	
2100	0	32532	
2101	0	32712	
2102	0	32696	
2103	0	32382	
2104	0	32544	
2105	0	32716	
2106	0	32681	
2107	0	32378	
2108	0	32552	
2109	0	32722	
2110	0	32688	
2111	0	32390	
2112	0	32544	
2113	0	32736	
2114	0	32672	
2115	0	32379	
2116	0	32536	
2117	0	32728	
2118	0	32676	
2119	0	32388	
2120	0	32557	
2121	0	32724	
2122	0	32673	
2123	0	32384	
2124	0	32554	
2125	0	32732	
2126	0	32676	
2127	0	32368	
2128	0	32560	
2129	0	32736	
2130	0	32680	
2131	0	32384	
2132	0	32568	
2133	0	32724	
2134	0	32668	
2135	0	32376	
2136	0	32560	
2137	0	32740	
2138	0	32672	
2139	0	32368	
2140	0	32572	
2141	0	32736	
2142	0	32676	
2143	0	32388	
2144	0	32570	
2145	0	32744	
2146	0	32674	
2147	0	32368	
2148	0	32568	
2149	0	32738	
2150	0	32660	
2151	0	32372	
2152	0	32576	
2153	0	32746	
2154	0	32674	
2155	0	32378	
2156	0	32570	
2157	0	32748	
2158	0	32671	
2159	0	32376	
2160	0	32568	
2161	0	32754	
2162	0	32672	
2163	0	32384	
2164	0	32576	
2165	0	32746	
2166	0	32668	
2167	0	32368	
2168	0	32572	
2169	0	32740	
2170	0	32672	
2171	0	32368	
2172	0	32576	
2173	0	32754	
2174	0	32668	
2175	0	32368	
2176	0	32576	
2177	0	32744	
2178	0	32668	
2179	0	32372	
2180	0	32578	
2181	0	32767	
2182	0	32660	
2183	0	32370	
2184	0	32578	
2185	0	32752	
2186	0	32656	
2187	0	32360	
2188	0	32576	
2189	0	32752	
2190	0	32648	
2191	0	32356	
2192	0	32585	
2193	0	32760	
2194	0	32656	
2195	0	32368	
2196	0	32586	
2197	0	32754	
2198	0	32656	
2199	0	32364	
2200	0	32600	
2201	0	32768	
2202	0	32652	
2203	0	32368	
2204	0	32594	
2205	0	32768	
2206	0	32644	
2207	0	32352	
2208	0	32592	
2209	0	32760	
2210	0	32642	
2211	0	32352	
2212	0	32592	
2213	0	32768	
2214	0	32644	
2215	0	32354	
2216	0	32588	
2217	0	32760	
2218	0	32648	
2219	0	32356	
2220	0	32596	
2221	0	32768	
2222	0	32640	
2223	0	32352	
2224	0	32596	
2225	0	32774	
2226	0	32640	
2227	0	32352	
2228	0	32594	
2229	0	32768	
2230	0	32644	
2231	0	32354	
2232	0	32584	
2233	0	32764	
2234	0	32642	
2235	0	32344	
2236	0	32594	
2237	0	32768	
2238	0	32640	
2239	0	32352	
2240	0	32592	
2241	0	32754	
2242	0	32640	
2243	0	32354	
2244	0	32596	
2245	0	32768	
2246	0	32640	
2247	0	32352	
2248	0	32584	
2249	0	32768	
2250	0	32634	
2251	0	32352	
2252	0	32588	
2253	0	32768	
2254	0	32634	
2255	0	32348	
2256	0	32584	
2257	0	32760	
2258	0	32632	
2259	0	32340	
2260	0	32592	
2261	0	32764	
2262	0	32630	
2263	0	32352	
2264	0	32592	
2265	0	32774	
2266	0	32626	
2267	0	32361	
2268	0	32596	
2269	0	32770	
2270	0	32608	
2271	0	32360	
2272	0	32600	
2273	0	32760	
2274	0	32617	
2275	0	32364	
2276	0	32592	
2277	0	32762	
2278	0	32614	
2279	0	32364	
2280	0	32600	
2281	0	32775	
2282	0	32634	
2283	0	32368	
2284	0	32608	
2285	0	32776	
2286	0	32624	
2287	0	32374	
2288	0	32600	
2289	0	32780	
2290	0	32616	
2291	0	32382	
2292	0	32600	
2293	0	32784	
2294	0	32610	
2295	0	32370	
2296	0	32612	
2297	0	32774	
2298	0	32604	
2299	0	32391	
2300	0	32620	
2301	0	32792	
2302	0	32616	
2303	0	32402	
2304	0	32630	
2305	0	32788	
2306	0	32621	
2307	0	32388	
2308	0	32621	
2309	0	32800	
2310	0	32628	
2311	0	32400	
2312	0	32633	
2313	0	32800	
2314	0	32608	
2315	0	32393	
2316	0	32628	
2317	0	32804	
2318	0	32604	
2319	0	32410	
2320	0	32647	
2321	0	32810	
2322	0	32616	
2323	0	32420	
2324	0	32648	
2325	0	32820	
2326	0	32616	
2327	0	32424	
2328	0	32646	
2329	0	32816	
2330	0	32608	
2331	0	32440	
2332	0	32668	
2333	0	32824	
2334	0	32602	
2335	0	32438	
2336	0	32652	
2337	0	32812	
2338	0	32596	
2339	0	32442	
2340	0	32664	
2341	0	32834	
2342	0	32594	
2343	0	32456	
2344	0	32660	
2345	0	32820	
2346	0	32596	
2347	0	32448	
2348	0	32672	
2349	0	32836	
2350	0	32586	
2351	0	32457	
2352	0	32676	
2353	0	32836	
2354	0	32586	
2355	0	32456	
2356	0	32668	
2357	0	32836	
2358	0	32596	
2359	0	32464	
2360	0	32676	
2361	0	32852	
2362	0	32600	
2363	0	32474	
2364	0	32680	
2365	0	32852	
2366	0	32596	
2367	0	32474	
2368	0	32686	
2369	0	32850	
2370	0	32592	
2371	0	32480	
2372	0	32697	
2373	0	32856	
2374	0	32592	
2375	0	32470	
2376	0	32684	
2377	0	32844	
2378	0	32580	
2379	0	32478	
2380	0	32696	
2381	0	32854	
2382	0	32592	
2383	0	32480	
2384	0	32696	
2385	0	32856	
2386	0	32589	
2387	0	32484	
2388	0	32696	
2389	0	32864	
2390	0	32594	
2391	0	32492	
2392	0	32698	
2393	0	32866	
2394	0	32576	
2395	0	32489	
2396	0	32684	
2397	0	32844	
2398	0	32576	
2399	0	32482	
2400	0	32704	
2401	0	32854	
2402	0	32578	
2403	0	32500	
2404	0	32708	
2405	0	32860	
2406	0	32566	
2407	0	32496	
2408	0	32712	
2409	0	32868	
2410	0	32576	
2411	0	32508	
2412	0	32706	
2413	0	32872	
2414	0	32568	
2415	0	32504	
2416	0	32708	
2417	0	32864	
2418	0	32556	
2419	0	32500	
2420	0	32699	
2421	0	32864	
2422	0	32555	
2423	0	32512	
2424	0	32712	
2425	0	32868	
2426	0	32548	
2427	0	32496	
2428	0	32706	
2429	0	32874	
2430	0	32552	
2431	0	32508	
2432	0	32720	
2433	0	32876	
2434	0	32554	
2435	0	32512	
2436	0	32704	
2437	0	32872	
2438	0	32536	
2439	0	32508	
2440	0	32716	
2441	0	32868	
2442	0	32544	
2443	0	32520	
2444	0	32712	
2445	0	32876	
2446	0	32544	
2447	0	32516	
2448	0	32716	
2449	0	32868	
2450	0	32537	
2451	0	32520	
2452	0	32726	
2453	0	32884	
2454	0	32536	
2455	0	32524	
2456	0	32712	
2457	0	32872	
2458	0	32532	
2459	0	32516	
2460	0	32720	
2461	0	32868	
2462	0	32524	
2463	0	32539	
2464	0	32726	
2465	0	32864	
2466	0	32524	
2467	0	32532	
2468	0	32728	
2469	0	32864	
2470	0	32532	
2471	0	32536	
2472	0	32728	
2473	0	32856	
2474	0	32532	
2475	0	32528	
2476	0	32726	
2477	0	32844	
2478	0	32522	
2479	0	32540	
2480	0	32736	
2481	0	32858	
2482	0	32522	
2483	0	32540	
2484	0	32736	
2485	0	32856	
2486	0	32520	
2487	0	32544	
2488	0	32744	
2489	0	32848	
2490	0	32512	
2491	0	32556	
2492	0	32750	
2493	0	32848	
2494	0	32514	
2495	0	32566	
2496	0	32752	
2497	0	32836	
2498	0	32504	
2499	0	32568	
2500	0	32746	
2501	0	32832	
2502	0	32502	
2503	0	32560	
2504	0	32756	
2505	0	32820	
2506	0	32492	
2507	0	32576	
2508	0	32768	
2509	0	32824	
2510	0	32520	
2511	0	32592	
2512	0	32768	
2513	0	32816	
2514	0	32500	
2515	0	32598	
2516	0	32772	
2517	0	32808	
2518	0	32492	
2519	0	32584	
2520	0	32784	
2521	0	32816	
2522	0	32492	
2523	0	32600	
2524	0	32784	
2525	0	32804	
2526	0	32480	
2527	0	32592	
2528	0	32780	
2529	0	32800	
2530	0	32496	
2531	0	32612	
2532	0	32796	
2533	0	32808	
2534	0	32496	
2535	0	32602	
2536	0	32796	
2537	0	32792	
2538	0	32480	
2539	0	32620	
2540	0	32800	
2541	0	32804	
2542	0	32484	
2543	0	32612	
2544	0	32800	
2545	0	32792	
2546	0	32480	
2547	0	32612	
2548	0	32792	
2549	0	32792	
2550	0	32488	
2551	0	32624	
2552	0	32804	
2553	0	32797	
2554	0	32486	
2555	0	32620	
2556	0	32800	
2557	0	32784	
2558	0	32476	
2559	0	32620	
2560	0	32800	
2561	0	32788	
2562	0	32480	
2563	0	32608	
2564	0	32804	
2565	0	32772	
2566	0	32464	
2567	0	32616	
2568	0	32793	
2569	0	32775	
2570	0	32476	
2571	0	32628	
2572	0	32816	
2573	0	32782	
2574	0	32476	
2575	0	32624	
2576	0	32812	
2577	0	32768	
2578	0	32470	
2579	0	32624	
2580	0	32808	
2581	0	32760	
2582	0	32465	
2583	0	32628	
2584	0	32800	
2585	0	32744	
2586	0	32460	
2587	0	32628	
2588	0	32817	
2589	0	32760	
2590	0	32456	
2591	0	32632	
2592	0	32818	
2593	0	32752	
2594	0	32450	
2595	0	32636	
2596	0	32813	
2597	0	32736	
2598	0	32448	
2599	0	32634	
2600	0	32814	
2601	0	32749	
2602	0	32456	
2603	0	32640	
2604	0	32812	
2605	0	32740	
2606	0	32444	
2607	0	32624	
2608	0	32804	
2609	0	32742	
2610	0	32440	
2611	0	32644	
2612	0	32812	
2613	0	32746	
2614	0	32442	
2615	0	32640	
2616	0	32810	
2617	0	32732	
2618	0	32440	
2619	0	32648	
2620	0	32822	
2621	0	32736	
2622	0	32448	
2623	0	32652	
2624	0	32824	
2625	0	32728	
2626	0	32436	
2627	0	32648	
2628	0	32816	
2629	0	32728	
2630	0	32434	
2631	0	32648	
2632	0	32828	
2633	0	32736	
2634	0	32436	
2635	0	32652	
2636	0	32838	
2637	0	32732	
2638	0	32448	
2639	0	32656	
2640	0	32832	
2641	0	32736	
2642	0	32440	
2643	0	32656	
2644	0	32840	
2645	0	32724	
2646	0	32446	
2647	0	32660	
2648	0	32828	
2649	0	32716	
2650	0	32440	
2651	0	32660	
2652	0	32837	
2653	0	32728	
2654	0	32440	
2655	0	32668	
2656	0	32848	
2657	0	32736	
2658	0	32436	
2659	0	32672	
2660	0	32854	
2661	0	32728	
2662	0	32444	
2663	0	32688	
2664	0	32852	
2665	0	32720	
2666	0	32434	
2667	0	32676	
2668	0	32852	
2669	0	32722	
2670	0	32440	
2671	0	32684	
2672	0	32858	
2673	0	32728	
2674	0	32436	
2675	0	32688	
2676	0	32858	
2677	0	32712	
2678	0	32449	
2679	0	32696	
2680	0	32864	
2681	0	32718	
2682	0	32466	
2683	0	32700	
2684	0	32864	
2685	0	32720	
2686	0	32458	
2687	0	32702	
2688	0	32870	
2689	0	32716	
2690	0	32460	
2691	0	32710	
2692	0	32876	
2693	0	32714	
2694	0	32464	
2695	0	32704	
2696	0	32868	
2697	0	32700	
2698	0	32476	
2699	0	32713	
2700	0	32880	
2701	0	32712	
2702	0	32476	
2703	0	32706	
2704	0	32880	
2705	0	32706	
2706	0	32476	
2707	0	32706	
2708	0	32880	
2709	0	32696	
2710	0	32476	
2711	0	32704	
2712	0	32872	
2713	0	32700	
2714	0	32472	
2715	0	32704	
2716	0	32866	
2717	0	32684	
2718	0	32474	
2719	0	32704	
2720	0	32880	
2721	0	32688	
2722	0	32480	
2723	0	32714	
2724	0	32880	
2725	0	32690	
2726	0	32493	
2727	0	32714	
2728	0	32872	
2729	0	32681	
2730	0	32490	
2731	0	32716	
2732	0	32884	
2733	0	32674	
2734	0	32490	
2735	0	32712	
2736	0	32872	
2737	0	32676	
2738	0	32496	
2739	0	32712	
2740	0	32884	
2741	0	32676	
2742	0	32496	
2743	0	32720	
2744	0	32880	
2745	0	32664	
2746	0	32484	
2747	0	32712	
2748	0	32882	
2749	0	32653	
2750	0	32488	
2751	0	32712	
2752	0	32884	
2753	0	32650	
2754	0	32498	
2755	0	32714	
2756	0	32880	
2757	0	32644	
2758	0	32492	
2759	0	32714	
2760	0	32876	
2761	0	32644	
2762	0	32504	
2763	0	32722	
2764	0	32880	
2765	0	32640	
2766	0	32512	
2767	0	32720	
2768	0	32888	
2769	0	32636	
2770	0	32508	
2771	0	32736	
2772	0	32880	
2773	0	32644	
2774	0	32514	
2775	0	32736	
2776	0	32892	
2777	0	32633	
2778	0	32520	
2779	0	32730	
2780	0	32889	
2781	0	32640	
2782	0	32528	
2783	0	32736	
2784	0	32900	
2785	0	32640	
2786	0	32526	
2787	0	32740	
2788	0	32888	
2789	0	32632	
2790	0	32532	
2791	0	32744	
2792	0	32902	
2793	0	32636	
2794	0	32536	
2795	0	32738	
2796	0	32896	
2797	0	32634	
2798	0	32524	
2799	0	32744	
2800	0	32904	
2801	0	32640	
2802	0	32536	
2803	0	32752	
2804	0	32912	
2805	0	32632	
2806	0	32546	
2807	0	32748	
2808	0	32924	
2809	0	32626	
2810	0	32547	
2811	0	32761	
2812	0	32908	
2813	0	32620	
2814	0	32548	
2815	0	32756	
2816	0	32912	
2817	0	32616	
2818	0	32564	
2819	0	32770	
2820	0	32928	
2821	0	32636	
2822	0	32560	
2823	0	32764	
2824	0	32932	
2825	0	32624	
2826	0	32576	
2827	0	32768	
2828	0	32932	
2829	0	32632	
2830	0	32566	
2831	0	32775	
2832	0	32928	
2833	0	32624	
2834	0	32568	
2835	0	32768	
2836	0	32929	
2837	0	32616	
2838	0	32568	
2839	0	32768	
2840	0	32936	
2841	0	32616	
2842	0	32576	
2843	0	32778	
2844	0	32933	
2845	0	32616	
2846	0	32578	
2847	0	32780	
2848	0	32928	
2849	0	32610	
2850	0	32580	
2851	0	32774	
2852	0	32938	
2853	0	32616	
2854	0	32580	
2855	0	32775	
2856	0	32936	
2857	0	32594	
2858	0	32588	
2859	0	32784	
2860	0	32944	
2861	0	32604	
2862	0	32592	
2863	0	32786	
2864	0	32946	
2865	0	32600	
2866	0	32594	
2867	0	32793	
2868	0	32948	
2869	0	32604	
2870	0	32596	
2871	0	32792	
2872	0	32928	
2873	0	32585	
2874	0	32586	
2875	0	32784	
2876	0	32916	
2877	0	32568	
2878	0	32592	
2879	0	32792	
2880	0	32914	
2881	0	32580	
2882	0	32608	
2883	0	32784	
2884	0	32904	
2885	0	32580	
2886	0	32590	
2887	0	32784	
2888	0	32914	
2889	0	32572	
2890	0	32604	
2891	0	32800	
2892	0	32904	
2893	0	32569	
2894	0	32592	
2895	0	32792	
2896	0	32880	
2897	0	32552	
2898	0	32598	
2899	0	32788	
2900	0	32880	
2901	0	32560	
2902	0	32594	
2903	0	32788	
2904	0	32876	
2905	0	32548	
2906	0	32584	
2907	0	32795	
2908	0	32868	
2909	0	32552	
2910	0	32592	
2911	0	32793	
2912	0	32874	
2913	0	32541	
2914	0	32600	
2915	0	32780	
2916	0	32864	
2917	0	32528	
2918	0	32592	
2919	0	32774	
2920	0	32858	
2921	0	32528	
2922	0	32598	
2923	0	32784	
2924	0	32852	
2925	0	32532	
2926	0	32592	
2927	0	32782	
2928	0	32856	
2929	0	32548	
2930	0	32600	
2931	0	32784	
2932	0	32856	
2933	0	32524	
2934	0	32596	
2935	0	32770	
2936	0	32843	
2937	0	32524	
2938	0	32580	
2939	0	32778	
2940	0	32836	
2941	0	32524	
2942	0	32600	
2943	0	32788	
2944	0	32836	
2945	0	32520	
2946	0	32596	
2947	0	32800	
2948	0	32832	
2949	0	32520	
2950	0	32618	
2951	0	32800	
2952	0	32836	
2953	0	32516	
2954	0	32608	
2955	0	32800	
2956	0	32826	
2957	0	32506	
2958	0	32616	
2959	0	32792	
2960	0	32813	
2961	0	32512	
2962	0	32612	
2963	0	32796	
2964	0	32828	
2965	0	32512	
2966	0	32616	
2967	0	32805	
2968	0	32816	
2969	0	32508	
2970	0	32630	
2971	0	32816	
2972	0	32816	
2973	0	32510	
2974	0	32632	
2975	0	32808	
2976	0	32804	
2977	0	32492	
2978	0	32632	
2979	0	32809	
2980	0	32800	
2981	0	32498	
2982	0	32634	
2983	0	32813	
2984	0	32800	
2985	0	32492	
2986	0	32636	
2987	0	32818	
2988	0	32801	
2989	0	32492	
2990	0	32636	
2991	0	32820	
2992	0	32800	
2993	0	32493	
2994	0	32641	
2995	0	32812	
2996	0	32784	
2997	0	32484	
2998	0	32640	
2999	0	32816	
3000	0	32776	
3001	0	32480	
3002	0	32632	
3003	0	32804	
3004	0	32772	
3005	0	32481	
3006	0	32642	
3007	0	32817	
3008	0	32764	
3009	0	32480	
3010	0	32647	
3011	0	32825	
3012	0	32770	
3013	0	32476	
3014	0	32653	
3015	0	32817	
3016	0	32755	
3017	0	32452	
3018	0	32636	
3019	0	32816	
3020	0	32752	
3021	0	32464	
3022	0	32642	
3023	0	32820	
3024	0	32748	
3025	0	32453	
3026	0	32640	
3027	0	32820	
3028	0	32744	
3029	0	32452	
3030	0	32648	
3031	0	32826	
3032	0	32742	
3033	0	32456	
3034	0	32644	
3035	0	32824	
3036	0	32738	
3037	0	32442	
3038	0	32644	
3039	0	32840	
3040	0	32738	
3041	0	32452	
3042	0	32656	
3043	0	32824	
3044	0	32728	
3045	0	32432	
3046	0	32644	
3047	0	32824	
3048	0	32712	
3049	0	32432	
3050	0	32656	
3051	0	32840	
3052	0	32728	
3053	0	32444	
3054	0	32668	
3055	0	32840	
3056	0	32728	
3057	0	32428	
3058	0	32668	
3059	0	32840	
3060	0	32728	
3061	0	32440	
3062	0	32680	
3063	0	32854	
3064	0	32722	
3065	0	32436	
3066	0	32674	
3067	0	32848	
3068	0	32724	
3069	0	32440	
3070	0	32690	
3071	0	32864	
3072	0	32736	
3073	0	32440	
3074	0	32692	
3075	0	32858	
3076	0	32724	
3077	0	32436	
3078	0	32684	
3079	0	32862	
3080	0	32720	
3081	0	32452	
3082	0	32690	
3083	0	32860	
3084	0	32714	
3085	0	32444	
3086	0	32684	
3087	0	32864	
3088	0	32712	
3089	0	32452	
3090	0	32698	
3091	0	32872	
3092	0	32722	
3093	0	32466	
3094	0	32711	
3095	0	32880	
3096	0	32720	
3097	0	32477	
3098	0	32706	
3099	0	32874	
3100	0	32714	
3101	0	32484	
3102	0	32706	
3103	0	32884	
3104	0	32704	
3105	0	32472	
3106	0	32708	
3107	0	32876	
3108	0	32712	
3109	0	32482	
3110	0	32720	
3111	0	32884	
3112	0	32712	
3113	0	32496	
3114	0	32724	
3115	0	32888	
3116	0	32712	
3117	0	32488	
3118	0	32728	
3119	0	32892	
3120	0	32713	
3121	0	32506	
3122	0	32726	
3123	0	32906	
3124	0	32704	
3125	0	32500	
3126	0	32716	
3127	0	32886	
3128	0	32705	
3129	0	32504	
3130	0	32724	
3131	0	32904	
3132	0	32705	
3133	0	32508	
3134	0	32730	
3135	0	32897	
3136	0	32706	
3137	0	32500	
3138	0	32728	
3139	0	32896	
3140	0	32704	
3141	0	32505	
3142	0	32740	
3143	0	32896	
3144	0	32704	
3145	0	32504	
3146	0	32731	
3147	0	32896	
3148	0	32688	
3149	0	32500	
3150	0	32720	
3151	0	32901	
3152	0	32690	
3153	0	32506	
3154	0	32728	
3155	0	32896	
3156	0	32668	
3157	0	32508	
3158	0	32736	
3159	0	32892	
3160	0	32680	
3161	0	32508	
3162	0	32732	
3163	0	32892	
3164	0	32674	
3165	0	32512	
3166	0	32722	
3167	0	32881	
3168	0	32668	
3169	0	32509	
3170	0	32722	
3171	0	32896	
3172	0	32660	
3173	0	32512	
3174	0	32728	
3175	0	32882	
3176	0	32644	
3177	0	32520	
3178	0	32722	
3179	0	32884	
3180	0	32648	
3181	0	32520	
3182	0	32722	
3183	0	32888	
3184	0	32648	
3185	0	32510	
3186	0	32720	
3187	0	32888	
3188	0	32632	
3189	0	32504	
3190	0	32728	
3191	0	32884	
3192	0	32632	
3193	0	32512	
3194	0	32732	
3195	0	32888	
3196	0	32620	
3197	0	32520	
3198	0	32726	
3199	0	32896	
3200	0	32621	
3201	0	32520	
3202	0	32732	
3203	0	32890	
3204	0	32616	
3205	0	32530	
3206	0	32732	
3207	0	32888	
3208	0	32608	
3209	0	32540	
3210	0	32736	
3211	0	32892	
3212	0	32608	
3213	0	32524	
3214	0	32732	
3215	0	32884	
3216	0	32598	
3217	0	32528	
3218	0	32728	
3219	0	32900	
3220	0	32604	
3221	0	32544	
3222	0	32752	
3223	0	32908	
3224	0	32592	
3225	0	32552	
3226	0	32740	
3227	0	32892	
3228	0	32584	
3229	0	32544	
3230	0	32744	
3231	0	32908	
3232	0	32590	
3233	0	32546	
3234	0	32746	
3235	0	32898	
3236	0	32592	
3237	0	32554	
3238	0	32752	
3239	0	32905	
3240	0	32580	
3241	0	32562	
3242	0	32762	
3243	0	32912	
3244	0	32584	
3245	0	32552	
3246	0	32752	
3247	0	32912	
3248	0	32576	
3249	0	32552	
3250	0	32758	
3251	0	32912	
3252	0	32569	
3253	0	32562	
3254	0	32752	
3255	0	32904	
3256	0	32570	
3257	0	32564	
3258	0	32761	
3259	0	32904	
3260	0	32560	
3261	0	32568	
3262	0	32760	
3263	0	32896	
3264	0	32572	
3265	0	32564	
3266	0	32754	
3267	0	32892	
3268	0	32556	
3269	0	32564	
3270	0	32762	
3271	0	32878	
3272	0	32548	
3273	0	32568	
3274	0	32763	
3275	0	32880	
3276	0	32545	
3277	0	32556	
3278	0	32772	
3279	0	32872	
3280	0	32550	
3281	0	32581	
3282	0	32770	
3283	0	32872	
3284	0	32544	
3285	0	32568	
3286	0	32770	
3287	0	32856	
3288	0	32536	
3289	0	32578	
3290	0	32768	
3291	0	32853	
3292	0	32530	
3293	0	32576	
3294	0	32760	
3295	0	32844	
3296	0	32508	
3297	0	32576	
3298	0	32762	
3299	0	32836	
3300	0	32516	
3301	0	32580	
3302	0	32764	
3303	0	32836	
3304	0	32514	
3305	0	32572	
3306	0	32762	
3307	0	32828	
3308	0	32492	
3309	0	32578	
3310	0	32754	
3311	0	32824	
3312	0	32490	
3313	0	32570	
3314	0	32748	
3315	0	32810	
3316	0	32482	
3317	0	32560	
3318	0	32740	
3319	0	32800	
3320	0	32490	
3321	0	32568	
3322	0	32752	
3323	0	32801	
3324	0	32480	
3325	0	32572	
3326	0	32746	
3327	0	32790	
3328	0	32476	
3329	0	32569	
3330	0	32754	
3331	0	32778	
3332	0	32464	
3333	0	32568	
3334	0	32740	
3335	0	32770	
3336	0	32460	
3337	0	32557	
3338	0	32737	
3339	0	32768	
3340	0	32462	
3341	0	32568	
3342	0	32750	
3343	0	32768	
3344	0	32457	
3345	0	32564	
3346	0	32740	
3347	0	32754	
3348	0	32452	
3349	0	32560	
3350	0	32758	
3351	0	32760	
3352	0	32445	
3353	0	32580	
3354	0	32754	
3355	0	32732	
3356	0	32420	
3357	0	32568	
3358	0	32740	
3359	0	32721	
3360	0	32424	
3361	0	32578	
3362	0	32769	
3363	0	32720	
3364	0	32420	
3365	0	32602	
3366	0	32764	
3367	0	32722	
3368	0	32420	
3369	0	32594	
3370	0	32768	
3371	0	32722	
3372	0	32420	
3373	0	32598	
3374	0	32762	
3375	0	32706	
3376	0	32410	
3377	0	32594	
3378	0	32770	
3379	0	32700	
3380	0	32412	
3381	0	32604	
3382	0	32786	
3383	0	32712	
3384	0	32412	
3385	0	32611	
3386	0	32776	
3387	0	32704	
3388	0	32408	
3389	0	32616	
3390	0	32794	
3391	0	32700	
3392	0	32413	
3393	0	32620	
3394	0	32788	
3395	0	32684	
3396	0	32394	
3397	0	32616	
3398	0	32796	
3399	0	32684	
3400	0	32392	
3401	0	32620	
3402	0	32797	
3403	0	32688	
3404	0	32404	
3405	0	32632	
3406	0	32800	
3407	0	32676	
3408	0	32395	
3409	0	32628	
3410	0	32804	
3411	0	32680	
3412	0	32392	
3413	0	32624	
3414	0	32801	
3415	0	32682	
3416	0	32386	
3417	0	32624	
3418	0	32792	
3419	0	32672	
3420	0	32380	
3421	0	32632	
3422	0	32800	
3423	0	32672	
3424	0	32384	
3425	0	32642	
3426	0	32800	
3427	0	32666	
3428	0	32395	
3429	0	32635	
3430	0	32809	
3431	0	32672	
3432	0	32398	
3433	0	32639	
3434	0	32800	
3435	0	32668	
3436	0	32390	
3437	0	32620	
3438	0	32792	
3439	0	32656	
3440	0	32388	
3441	0	32632	
3442	0	32800	
3443	0	32648	
3444	0	32394	
3445	0	32628	
3446	0	32800	
3447	0	32650	
3448	0	32400	
3449	0	32632	
3450	0	32800	
3451	0	32640	
3452	0	32402	
3453	0	32640	
3454	0	32800	
3455	0	32632	
3456	0	32392	
3457	0	32624	
3458	0	32804	
3459	0	32624	
3460	0	32402	
3461	0	32634	
3462	0	32796	
3463	0	32616	
3464	0	32408	
3465	0	32636	
3466	0	32800	
3467	0	32618	
3468	0	32404	
3469	0	32632	
3470	0	32800	
3471	0	32609	
3472	0	32404	
3473	0	32628	
3474	0	32800	
3475	0	32596	
3476	0	32404	
3477	0	32628	
3478	0	32796	
3479	0	32592	
3480	0	32404	
3481	0	32632	
3482	0	32800	
3483	0	32600	
3484	0	32408	
3485	0	32624	
3486	0	32800	
3487	0	32584	
3488	0	32418	
3489	0	32640	
3490	0	32797	
3491	0	32594	
3492	0	32432	
3493	0	32646	
3494	0	32800	
3495	0	32584	
3496	0	32420	
3497	0	32644	
3498	0	32796	
3499	0	32570	
3500	0	32432	
3501	0	32648	
3502	0	32812	
3503	0	32578	
3504	0	32436	
3505	0	32654	
3506	0	32824	
3507	0	32573	
3508	0	32448	
3509	0	32668	
3510	0	32816	
3511	0	32572	
3512	0	32452	
3513	0	32669	
3514	0	32820	
3515	0	32569	
3516	0	32452	
3517	0	32656	
3518	0	32816	
3519	0	32568	
3520	0	32456	
3521	0	32669	
3522	0	32828	
3523	0	32576	
3524	0	32461	
3525	0	32668	
3526	0	32832	
3527	0	32568	
3528	0	32472	
3529	0	32680	
3530	0	32844	
3531	0	32576	
3532	0	32476	
3533	0	32682	
3534	0	32842	
3535	0	32564	
3536	0	32476	
3537	0	32682	
3538	0	32840	
3539	0	32569	
3540	0	32476	
3541	0	32676	
3542	0	32852	
3543	0	32560	
3544	0	32480	
3545	0	32680	
3546	0	32848	
3547	0	32552	
3548	0	32486	
3549	0	32692	
3550	0	32856	
3551	0	32568	
3552	0	32496	
3553	0	32692	
3554	0	32860	
3555	0	32562	
3556	0	32496	
3557	0	32699	
3558	0	32850	
3559	0	32556	
3560	0	32498	
3561	0	32698	
3562	0	32856	
3563	0	32556	
3564	0	32496	
3565	0	32696	
3566	0	32858	
3567	0	32556	
3568	0	32493	
3569	0	32692	
3570	0	32862	
3571	0	32559	
3572	0	32502	
3573	0	32708	
3574	0	32865	
3575	0	32544	
3576	0	32492	
3577	0	32698	
3578	0	32852	
3579	0	32552	
3580	0	32504	
3581	0	32708	
3582	0	32865	
3583	0	32546	
3584	0	32512	
3585	0	32712	
3586	0	32862	
3587	0	32544	
3588	0	32506	
3589	0	32708	
3590	0	32866	
3591	0	32536	
3592	0	32508	
3593	0	32708	
3594	0	32871	
3595	0	32544	
3596	0	32516	
3597	0	32712	
3598	0	32872	
3599	0	32536	
3600	0	32532	
3601	0	32720	
3602	0	32868	
3603	0	32529	
3604	0	32520	
3605	0	32714	
3606	0	32864	
3607	0	32518	
3608	0	32528	
3609	0	32722	
3610	0	32864	
3611	0	32530	
3612	0	32540	
3613	0	32728	
3614	0	32868	
3615	0	32520	
3616	0	32524	
3617	0	32722	
3618	0	32852	
3619	0	32523	
3620	0	32530	
3621	0	32724	
3622	0	32852	
3623	0	32524	
3624	0	32528	
3625	0	32720	
3626	0	32836	
3627	0	32505	
3628	0	32528	
3629	0	32722	
3630	0	32848	
3631	0	32508	
3632	0	32536	
3633	0	32728	
3634	0	32840	
3635	0	32508	
3636	0	32522	
3637	0	32712	
3638	0	32836	
3639	0	32500	
3640	0	32540	
3641	0	32732	
3642	0	32836	
3643	0	32512	
3644	0	32530	
3645	0	32720	
3646	0	32820	
3647	0	32484	
3648	0	32524	
3649	0	32716	
3650	0	32813	
3651	0	32484	
3652	0	32530	
3653	0	32712	
3654	0	32804	
3655	0	32480	
3656	0	32532	
3657	0	32716	
3658	0	32800	
3659	0	32480	
3660	0	32540	
3661	0	32720	
3662	0	32793	
3663	0	32472	
3664	0	32524	
3665	0	32720	
3666	0	32774	
3667	0	32456	
3668	0	32536	
3669	0	32715	
3670	0	32768	
3671	0	32458	
3672	0	32538	
3673	0	32726	
3674	0	32778	
3675	0	32458	
3676	0	32536	
3677	0	32722	
3678	0	32768	
3679	0	32456	
3680	0	32532	
3681	0	32720	
3682	0	32775	
3683	0	32464	
3684	0	32544	
3685	0	32720	
3686	0	32770	
3687	0	32459	
3688	0	32544	
3689	0	32724	
3690	0	32770	
3691	0	32456	
3692	0	32544	
3693	0	32744	
3694	0	32775	
3695	0	32473	
3696	0	32549	
3697	0	32728	
3698	0	32768	
3699	0	32459	
3700	0	32560	
3701	0	32736	
3702	0	32768	
3703	0	32464	
3704	0	32550	
3705	0	32732	
3706	0	32752	
3707	0	32448	
3708	0	32544	
3709	0	32724	
3710	0	32754	
3711	0	32452	
3712	0	32564	
3713	0	32740	
3714	0	32748	
3715	0	32440	
3716	0	32552	
3717	0	32746	
3718	0	32752	
3719	0	32442	
3720	0	32556	
3721	0	32744	
3722	0	32760	
3723	0	32448	
3724	0	32566	
3725	0	32744	
3726	0	32744	
3727	0	32440	
3728	0	32564	
3729	0	32752	
3730	0	32736	
3731	0	32442	
3732	0	32568	
3733	0	32752	
3734	0	32748	
3735	0	32420	
3736	0	32560	
3737	0	32736	
3738	0	32722	
3739	0	32428	
3740	0	32572	
3741	0	32752	
3742	0	32724	
3743	0	32424	
3744	0	32571	
3745	0	32736	
3746	0	32724	
3747	0	32412	
3748	0	32570	
3749	0	32744	
3750	0	32720	
3751	0	32414	
3752	0	32572	
3753	0	32749	
3754	0	32712	
3755	0	32408	
3756	0	32560	
3757	0	32736	
3758	0	32706	
3759	0	32400	
3760	0	32572	
3761	0	32744	
3762	0	32706	
3763	0	32404	
3764	0	32562	
3765	0	32745	
3766	0	32694	
3767	0	32396	
3768	0	32569	
3769	0	32736	
3770	0	32692	
3771	0	32392	
3772	0	32560	
3773	0	32736	
3774	0	32680	
3775	0	32376	
3776	0	32558	
3777	0	32728	
3778	0	32670	
3779	0	32386	
3780	0	32552	
3781	0	32746	
3782	0	32690	
3783	0	32380	
3784	0	32556	
3785	0	32736	
3786	0	32668	
3787	0	32370	
3788	0	32561	
3789	0	32736	
3790	0	32664	
3791	0	32368	
3792	0	32564	
3793	0	32729	
3794	0	32648	
3795	0	32352	
3796	0	32562	
3797	0	32736	
3798	0	32648	
3799	0	32354	
3800	0	32572	
3801	0	32750	
3802	0	32640	
3803	0	32352	
3804	0	32568	
3805	0	32736	
3806	0	32642	
3807	0	32348	
3808	0	32568	
3809	0	32752	
3810	0	32640	
3811	0	32348	
3812	0	32576	
3813	0	32736	
3814	0	32630	
3815	0	32340	
3816	0	32562	
3817	0	32748	
3818	0	32624	
3819	0	32340	
3820	0	32568	
3821	0	32756	
3822	0	32632	
3823	0	32348	
3824	0	32592	
3825	0	32756	
3826	0	32632	
3827	0	32340	
3828	0	32592	
3829	0	32752	
3830	0	32624	
3831	0	32344	
3832	0	32576	
3833	0	32756	
3834	0	32624	
3835	0	32340	
3836	0	32586	
3837	0	32740	
3838	0	32612	
3839	0	32336	
3840	0	32594	
3841	0	32752	
3842	0	32620	
3843	0	32352	
3844	0	32596	
3845	0	32760	
3846	0	32622	
3847	0	32356	
3848	0	32604	
3849	0	32770	
3850	0	32617	
3851	0	32360	
3852	0	32612	
3853	0	32780	
3854	0	32612	
3855	0	32368	
3856	0	32600	
3857	0	32770	
3858	0	32608	
3859	0	32370	
3860	0	32620	
3861	0	32792	
3862	0	32612	
3863	0	32394	
3864	0	32622	
3865	0	32800	
3866	0	32600	
3867	0	32396	
3868	0	32626	
3869	0	32797	
3870	0	32610	
3871	0	32408	
3872	0	32624	
3873	0	32792	
3874	0	32604	
3875	0	32404	
3876	0	32633	
3877	0	32792	
3878	0	32596	
3879	0	32402	
3880	0	32636	
3881	0	32801	
3882	0	32610	
3883	0	32412	
3884	0	32636	
3885	0	32808	
3886	0	32608	
3887	0	32416	
3888	0	32640	
3889	0	32804	
3890	0	32608	
3891	0	32422	
3892	0	32650	
3893	0	32814	
3894	0	32594	
3895	0	32414	
3896	0	32632	
3897	0	32800	
3898	0	32584	
3899	0	32424	
3900	0	32642	
3901	0	32804	
3902	0	32592	
3903	0	32435	
3904	0	32658	
3905	0	32810	
3906	0	32584	
3907	0	32432	
3908	0	32648	
3909	0	32824	
3910	0	32598	
3911	0	32432	
3912	0	32652	
3913	0	32820	
3914	0	32596	
3915	0	32432	
3916	0	32648	
3917	0	32813	
3918	0	32560	
3919	0	32432	
3920	0	32640	
3921	0	32820	
3922	0	32572	
3923	0	32442	
3924	0	32656	
3925	0	32812	
3926	0	32564	
3927	0	32441	
3928	0	32648	
3929	0	32820	
3930	0	32576	
3931	0	32444	
3932	0	32667	
3933	0	32824	
3934	0	32562	
3935	0	32436	
3936	0	32652	
3937	0	32812	
3938	0	32548	
3939	0	32445	
3940	0	32660	
3941	0	32825	
3942	0	32564	
3943	0	32461	
3944	0	32650	
3945	0	32820	
3946	0	32548	
3947	0	32450	
3948	0	32672	
3949	0	32832	
3950	0	32556	
3951	0	32458	
3952	0	32664	
3953	0	32820	
3954	0	32544	
3955	0	32452	
3956	0	32660	
3957	0	32816	
3958	0	32544	
3959	0	32448	
3960	0	32660	
3961	0	32817	
3962	0	32540	
3963	0	32464	
3964	0	32672	
3965	0	32828	
3966	0	32534	
3967	0	32469	
3968	0	32668	
3969	0	32840	
3970	0	32536	
3971	0	32468	
3972	0	32684	
3973	0	32841	
3974	0	32540	
3975	0	32472	
3976	0	32664	
3977	0	32828	
3978	0	32530	
3979	0	32472	
3980	0	32673	
3981	0	32841	
3982	0	32532	
3983	0	32476	
3984	0	32684	
3985	0	32840	
3986	0	32528	
3987	0	32480	
3988	0	32672	
3989	0	32840	
3990	0	32536	
3991	0	32488	
3992	0	32702	
3993	0	32840	
3994	0	32530	
3995	0	32480	
3996	0	32676	
3997	0	32832	
3998	0	32522	
3999	0	32484	
4000	0	32680	
4001	0	32846	
4002	0	32520	
4003	0	32492	
4004	0	32676	
4005	0	32844	
4006	0	32528	
4007	0	32484	
4008	0	32688	
4009	0	32841	
4010	0	32524	
4011	0	32507	
4012	0	32696	
4013	0	32856	
4014	0	32520	
4015	0	32488	
4016	0	32682	
4017	0	32842	
4018	0	32512	
4019	0	32490	
4020	0	32696	
4021	0	32848	
4022	0	32506	
4023	0	32505	
4024	0	32697	
4025	0	32844	
4026	0	32496	
4027	0	32496	
4028	0	32701	
4029	0	32842	
4030	0	32504	
4031	0	32514	
4032	0	32706	
4033	0	32840	
4034	0	32500	
4035	0	32515	
4036	0	32708	
4037	0	32824	
4038	0	32489	
4039	0	32516	
4040	0	32706	
4041	0	32816	
4042	0	32488	
4043	0	32514	
4044	0	32712	
4045	0	32800	
4046	0	32476	
4047	0	32516	
4048	0	32704	
4049	0	32817	
4050	0	32480	
4051	0	32523	
4052	0	32716	
4053	0	32816	
4054	0	32480	
4055	0	32512	
4056	0	32708	
4057	0	32792	
4058	0	32473	
4059	0	32514	
4060	0	32710	
4061	0	32800	
4062	0	32478	
4063	0	32522	
4064	0	32706	
4065	0	32792	
4066	0	32484	
4067	0	32522	
4068	0	32714	
4069	0	32800	
4070	0	32472	
4071	0	32538	
4072	0	32722	
4073	0	32797	
4074	0	32466	
4075	0	32528	
4076	0	32714	
4077	0	32780	
4078	0	32464	
4079	0	32545	
4080	0	32728	
4081	0	32784	
4082	0	32462	
4083	0	32544	
4084	0	32724	
4085	0	32768	
4086	0	32442	
4087	0	32536	
4088	0	32726	
4089	0	32760	
4090	0	32452	
4091	0	32540	
4092	0	32724	
4093	0	32760	
4094	0	32448	
4095	0	32536	
4096	0	32722	
4097	0	32754	
4098	0	32444	
4099	0	32540	
4100	0	32728	
4101	0	32748	
4102	0	32448	
4103	0	32550	
4104	0	32732	
4105	0	32732	
4106	0	32425	
4107	0	32552	
4108	0	32728	
4109	0	32732	
4110	0	32433	
4111	0	32556	
4112	0	32736	
4113	0	32740	
4114	0	32428	
4115	0	32568	
4116	0	32736	
4117	0	32728	
4118	0	32422	
4119	0	32560	
4120	0	32736	
4121	0	32732	
4122	0	32428	
4123	0	32554	
4124	0	32736	
4125	0	32712	
4126	0	32416	
4127	0	32552	
4128	0	32738	
4129	0	32716	
4130	0	32404	
4131	0	32560	
4132	0	32728	
4133	0	32712	
4134	0	32412	
4135	0	32554	
4136	0	32740	
4137	0	32704	
4138	0	32404	
4139	0	32568	
4140	0	32736	
4141	0	32696	
4142	0	32412	
4143	0	32570	
4144	0	32736	
4145	0	32704	
4146	0	32402	
4147	0	32564	
4148	0	32736	
4149	0	32696	
4150	0	32404	
4151	0	32564	
4152	0	32737	
4153	0	32720	
4154	0	32420	
4155	0	32552	
4156	0	32736	
4157	0	32728	
4158	0	32420	
4159	0	32560	
4160	0	32736	
4161	0	32744	
4162	0	32436	
4163	0	32544	
4164	0	32720	
4165	0	32740	
4166	0	32424	
4167	0	32552	
4168	0	32720	
4169	0	32736	
4170	0	32436	
4171	0	32557	
4172	0	32728	
4173	0	32748	
4174	0	32432	
4175	0	32544	
4176	0	32722	
4177	0	32728	
4178	0	32425	
4179	0	32550	
4180	0	32730	
4181	0	32736	
4182	0	32428	
4183	0	32552	
4184	0	32736	
4185	0	32729	
4186	0	32420	
4187	0	32560	
4188	0	32732	
4189	0	32728	
4190	0	32412	
4191	0	32560	
4192	0	32736	
4193	0	32728	
4194	0	32408	
4195	0	32572	
4196	0	32744	
4197	0	32712	
4198	0	32424	
4199	0	32576	
4200	0	32756	
4201	0	32724	
4202	0	32418	
4203	0	32576	
4204	0	32756	
4205	0	32704	
4206	0	32400	
4207	0	32569	
4208	0	32748	
4209	0	32700	
4210	0	32396	
4211	0	32580	
4212	0	32764	
4213	0	32688	
4214	0	32388	
4215	0	32576	
4216	0	32752	
4217	0	32680	
4218	0	32392	
4219	0	32580	
4220	0	32754	
4221	0	32686	
4222	0	32400	
4223	0	32592	
4224	0	32756	
4225	0	32664	
4226	0	32380	
4227	0	32586	
4228	0	32752	
4229	0	32664	
4230	0	32384	
4231	0	32590	
4232	0	32757	
4233	0	32664	
4234	0	32360	
4235	0	32586	
4236	0	32753	
4237	0	32664	
4238	0	32366	
4239	0	32596	
4240	0	32768	
4241	0	32668	
4242	0	32376	
4243	0	32600	
4244	0	32774	
4245	0	32661	
4246	0	32352	
4247	0	32606	
4248	0	32775	
4249	0	32654	
4250	0	32364	
4251	0	32596	
4252	0	32768	
4253	0	32662	
4254	0	32368	
4255	0	32602	
4256	0	32772	
4257	0	32644	
4258	0	32356	
4259	0	32608	
4260	0	32775	
4261	0	32648	
4262	0	32364	
4263	0	32623	
4264	0	32780	
4265	0	32646	
4266	0	32370	
4267	0	32618	
4268	0	32778	
4269	0	32646	
4270	0	32368	
4271	0	32612	
4272	0	32784	
4273	0	32632	
4274	0	32379	
4275	0	32612	
4276	0	32784	
4277	0	32624	
4278	0	32390	
4279	0	32620	
4280	0	32784	
4281	0	32624	
4282	0	32404	
4283	0	32620	
4284	0	32787	
4285	0	32618	
4286	0	32400	
4287	0	32622	
4288	0	32784	
4289	0	32608	
4290	0	32402	
4291	0	32634	
4292	0	32797	
4293	0	32608	
4294	0	32400	
4295	0	32624	
4296	0	32793	
4297	0	32592	
4298	0	32400	
4299	0	32628	
4300	0	32800	
4301	0	32604	
4302	0	32416	
4303	0	32634	
4304	0	32808	
4305	0	32604	
4306	0	32418	
4307	0	32632	
4308	0	32797	
4309	0	32600	
4310	0	32412	
4311	0	32632	
4312	0	32800	
4313	0	32594	
4314	0	32412	
4315	0	32633	
4316	0	32800	
4317	0	32592	
4318	0	32408	
4319	0	32640	
4320	0	32806	
4321	0	32600	
4322	0	32424	
4323	0	32650	
4324	0	32800	
4325	0	32592	
4326	0	32422	
4327	0	32644	
4328	0	32808	
4329	0	32592	
4330	0	32420	
4331	0	32648	
4332	0	32810	
4333	0	32600	
4334	0	32417	
4335	0	32632	
4336	0	32800	
4337	0	32586	
4338	0	32416	
4339	0	32640	
4340	0	32810	
4341	0	32600	
4342	0	32416	
4343	0	32644	
4344	0	32808	
4345	0	32596	
4346	0	32416	
4347	0	32636	
4348	0	32800	
4349	0	32612	
4350	0	32424	
4351	0	32647	
4352	0	32796	
4353	0	32600	
4354	0	32420	
4355	0	32640	
4356	0	32800	
4357	0	32592	
4358	0	32416	
4359	0	32644	
4360	0	32800	
4361	0	32592	
4362	0	32425	
4363	0	32640	
4364	0	32808	
4365	0	32594	
4366	0	32418	
4367	0	32648	
4368	0	32800	
4369	0	32608	
4370	0	32420	
4371	0	32644	
4372	0	32808	
4373	0	32606	
4374	0	32412	
4375	0	32632	
4376	0	32800	
4377	0	32588	
4378	0	32420	
4379	0	32628	
4380	0	32796	
4381	0	32592	
4382	0	32412	
4383	0	32640	
4384	0	32800	
4385	0	32594	
4386	0	32420	
4387	0	32632	
4388	0	32797	
4389	0	32588	
4390	0	32412	
4391	0	32632	
4392	0	32796	
4393	0	32596	
4394	0	32413	
4395	0	32628	
4396	0	32793	
4397	0	32580	
4398	0	32400	
4399	0	32628	
4400	0	32803	
4401	0	32588	
4402	0	32418	
4403	0	32624	
4404	0	32788	
4405	0	32586	
4406	0	32412	
4407	0	32628	
4408	0	32796	
4409	0	32576	
4410	0	32417	
4411	0	32632	
4412	0	32793	
4413	0	32576	
4414	0	32409	
4415	0	32618	
4416	0	32788	
4417	0	32572	
4418	0	32400	
4419	0	32624	
4420	0	32784	
4421	0	32580	
4422	0	32404	
4423	0	32626	
4424	0	32796	
4425	0	32572	
4426	0	32404	
4427	0	32628	
4428	0	32792	
4429	0	32584	
4430	0	32416	
4431	0	32644	
4432	0	32804	
4433	0	32582	
4434	0	32420	
4435	0	32626	
4436	0	32800	
4437	0	32572	
4438	0	32412	
4439	0	32626	
4440	0	32797	
4441	0	32570	
4442	0	32416	
4443	0	32634	
4444	0	32802	
4445	0	32564	
4446	0	32409	
4447	0	32637	
4448	0	32800	
4449	0	32573	
4450	0	32416	
4451	0	32640	
4452	0	32800	
4453	0	32578	
4454	0	32424	
4455	0	32630	
4456	0	32800	
4457	0	32570	
4458	0	32417	
4459	0	32636	
4460	0	32796	
4461	0	32578	
4462	0	32416	
4463	0	32642	
4464	0	32808	
4465	0	32578	
4466	0	32417	
4467	0	32648	
4468	0	32811	
4469	0	32572	
4470	0	32436	
4471	0	32640	
4472	0	32808	
4473	0	32576	
4474	0	32426	
4475	0	32647	
4476	0	32800	
4477	0	32560	
4478	0	32410	
4479	0	32647	
4480	0	32792	
4481	0	32578	
4482	0	32429	
4483	0	32636	
4484	0	32804	
4485	0	32576	
4486	0	32428	
4487	0	32640	
4488	0	32808	
4489	0	32578	
4490	0	32426	
4491	0	32648	
4492	0	32820	
4493	0	32568	
4494	0	32432	
4495	0	32644	
4496	0	32808	
4497	0	32572	
4498	0	32428	
4499	0	32642	
4500	0	32808	
4501	0	32560	
4502	0	32432	
4503	0	32647	
4504	0	32800	
4505	0	32560	
4506	0	32434	
4507	0	32632	
4508	0	32804	
4509	0	32568	
4510	0	32440	
4511	0	32648	
4512	0	32813	
4513	0	32572	
4514	0	32440	
4515	0	32644	
4516	0	32810	
4517	0	32556	
4518	0	32424	
4519	0	32646	
4520	0	32811	
4521	0	32572	
4522	0	32432	
4523	0	32646	
4524	0	32800	
4525	0	32560	
4526	0	32426	
4527	0	32640	
4528	0	32802	
4529	0	32564	
4530	0	32430	
4531	0	32648	
4532	0	32810	
4533	0	32564	
4534	0	32452	
4535	0	32640	
4536	0	32800	
4537	0	32548	
4538	0	32436	
4539	0	32646	
4540	0	32800	
4541	0	32548	
4542	0	32432	
4543	0	32646	
4544	0	32800	
4545	0	32562	
4546	0	32426	
4547	0	32640	
4548	0	32792	
4549	0	32564	
4550	0	32416	
4551	0	32624	
4552	0	32793	
4553	0	32592	
4554	0	32408	
4555	0	32632	
4556	0	32792	
4557	0	32578	
4558	0	32394	
4559	0	32620	
4560	0	32780	
4561	0	32576	
4562	0	32412	
4563	0	32632	
4564	0	32784	
4565	0	32568	
4566	0	32401	
4567	0	32620	
4568	0	32800	
4569	0	32568	
4570	0	32416	
4571	0	32640	
4572	0	32796	
4573	0	32578	
4574	0	32412	
4575	0	32632	
4576	0	32786	
4577	0	32564	
4578	0	32412	
4579	0	32628	
4580	0	32800	
4581	0	32564	
4582	0	32424	
4583	0	32626	
4584	0	32796	
4585	0	32552	
4586	0	32417	
4587	0	32624	
4588	0	32796	
4589	0	32546	
4590	0	32434	
4591	0	32644	
4592	0	32800	
4593	0	32546	
4594	0	32444	
4595	0	32644	
4596	0	32800	
4597	0	32530	
4598	0	32440	
4599	0	32648	
4600	0	32800	
4601	0	32538	
4602	0	32441	
4603	0	32660	
4604	0	32812	
4605	0	32516	
4606	0	32443	
4607	0	32636	
4608	0	32808	
4609	0	32532	
4610	0	32448	
4611	0	32656	
4612	0	32808	
4613	0	32522	
4614	0	32444	
4615	0	32656	
4616	0	32816	
4617	0	32520	
4618	0	32452	
4619	0	32653	
4620	0	32810	
4621	0	32508	
4622	0	32456	
4623	0	32653	
4624	0	32810	
4625	0	32500	
4626	0	32448	
4627	0	32650	
4628	0	32808	
4629	0	32498	
4630	0	32444	
4631	0	32658	
4632	0	32820	
4633	0	32512	
4634	0	32450	
4635	0	32644	
4636	0	32808	
4637	0	32510	
4638	0	32452	
4639	0	32648	
4640	0	32812	
4641	0	32504	
4642	0	32444	
4643	0	32651	
4644	0	32805	
4645	0	32496	
4646	0	32444	
4647	0	32644	
4648	0	32793	
4649	0	32486	
4650	0	32444	
4651	0	32644	
4652	0	32800	
4653	0	32488	
4654	0	32434	
4655	0	32636	
4656	0	32792	
4657	0	32478	
4658	0	32440	
4659	0	32645	
4660	0	32804	
4661	0	32482	
4662	0	32436	
4663	0	32636	
4664	0	32792	
4665	0	32468	
4666	0	32424	
4667	0	32616	
4668	0	32788	
4669	0	32464	
4670	0	32425	
4671	0	32626	
4672	0	32784	
4673	0	32468	
4674	0	32432	
4675	0	32617	
4676	0	32786	
4677	0	32456	
4678	0	32416	
4679	0	32624	
4680	0	32774	
4681	0	32456	
4682	0	32416	
4683	0	32620	
4684	0	32774	
4685	0	32452	
4686	0	32422	
4687	0	32608	
4688	0	32768	
4689	0	32458	
4690	0	32416	
4691	0	32626	
4692	0	32770	
4693	0	32453	
4694	0	32420	
4695	0	32616	
4696	0	32770	
4697	0	32444	
4698	0	32412	
4699	0	32614	
4700	0	32768	
4701	0	32445	
4702	0	32420	
4703	0	32632	
4704	0	32770	
4705	0	32444	
4706	0	32420	
4707	0	32616	
4708	0	32768	
4709	0	32451	
4710	0	32426	
4711	0	32624	
4712	0	32770	
4713	0	32444	
4714	0	32420	
4715	0	32612	
4716	0	32780	
4717	0	32445	
4718	0	32420	
4719	0	32632	
4720	0	32775	
4721	0	32448	
4722	0	32432	
4723	0	32630	
4724	0	32780	
4725	0	32440	
4726	0	32432	
4727	0	32626	
4728	0	32775	
4729	0	32438	
4730	0	32416	
4731	0	32616	
4732	0	32770	
4733	0	32434	
4734	0	32434	
4735	0	32620	
4736	0	32768	
4737	0	32430	
4738	0	32426	
4739	0	32624	
4740	0	32775	
4741	0	32420	
4742	0	32428	
4743	0	32620	
4744	0	32756	
4745	0	32424	
4746	0	32420	
4747	0	32617	
4748	0	32746	
4749	0	32416	
4750	0	32426	
4751	0	32612	
4752	0	32752	
4753	0	32412	
4754	0	32421	
4755	0	32614	
4756	0	32744	
4757	0	32408	
4758	0	32422	
4759	0	32612	
4760	0	32752	
4761	0	32416	
4762	0	32432	
4763	0	32620	
4764	0	32744	
4765	0	32414	
4766	0	32434	
4767	0	32617	
4768	0	32744	
4769	0	32412	
4770	0	32420	
4771	0	32624	
4772	0	32730	
4773	0	32402	
4774	0	32428	
4775	0	32612	
4776	0	32724	
4777	0	32388	
4778	0	32416	
4779	0	32626	
4780	0	32734	
4781	0	32400	
4782	0	32416	
4783	0	32612	
4784	0	32728	
4785	0	32400	
4786	0	32420	
4787	0	32602	
4788	0	32720	
4789	0	32386	
4790	0	32408	
4791	0	32600	
4792	0	32706	
4793	0	32376	
4794	0	32406	
4795	0	32596	
4796	0	32712	
4797	0	32377	
4798	0	32392	
4799	0	32602	
4800	0	32706	
4801	0	32378	
4802	0	32414	
4803	0	32592	
4804	0	32704	
4805	0	32376	
4806	0	32392	
4807	0	32584	
4808	0	32696	
4809	0	32368	
4810	0	32388	
4811	0	32578	
4812	0	32696	
4813	0	32362	
4814	0	32384	
4815	0	32577	
4816	0	32682	
4817	0	32360	
4818	0	32376	
4819	0	32582	
4820	0	32692	
4821	0	32369	
4822	0	32384	
4823	0	32580	
4824	0	32696	
4825	0	32352	
4826	0	32368	
4827	0	32574	
4828	0	32685	
4829	0	32348	
4830	0	32386	
4831	0	32576	
4832	0	32680	
4833	0	32346	
4834	0	32378	
4835	0	32560	
4836	0	32672	
4837	0	32344	
4838	0	32366	
4839	0	32562	
4840	0	32672	
4841	0	32349	
4842	0	32369	
4843	0	32562	
4844	0	32672	
4845	0	32348	
4846	0	32372	
4847	0	32556	
4848	0	32676	
4849	0	32344	
4850	0	32372	
4851	0	32570	
4852	0	32676	
4853	0	32352	
4854	0	32368	
4855	0	32544	
4856	0	32668	
4857	0	32340	
4858	0	32362	
4859	0	32560	
4860	0	32670	
4861	0	32348	
4862	0	32380	
4863	0	32572	
4864	0	32672	
4865	0	32346	
4866	0	32372	
4867	0	32576	
4868	0	32680	
4869	0	32354	
4870	0	32380	
4871	0	32576	
4872	0	32676	
4873	0	32352	
4874	0	32386	
4875	0	32568	
4876	0	32668	
4877	0	32356	
4878	0	32388	
4879	0	32572	
4880	0	32684	
4881	0	32356	
4882	0	32392	
4883	0	32592	
4884	0	32680	
4885	0	32348	
4886	0	32399	
4887	0	32598	
4888	0	32681	
4889	0	32352	
4890	0	32406	
4891	0	32604	
4892	0	32688	
4893	0	32362	
4894	0	32404	
4895	0	32596	
4896	0	32696	
4897	0	32362	
4898	0	32405	
4899	0	32594	
4900	0	32690	
4901	0	32374	
4902	0	32418	
4903	0	32608	
4904	0	32700	
4905	0	32368	
4906	0	32420	
4907	0	32616	
4908	0	32690	
4909	0	32370	
4910	0	32426	
4911	0	32608	
4912	0	32700	
4913	0	32370	
4914	0	32428	
4915	0	32608	
4916	0	32688	
4917	0	32365	
4918	0	32416	
4919	0	32610	
4920	0	32688	
4921	0	32378	
4922	0	32428	
4923	0	32621	
4924	0	32690	
4925	0	32376	
4926	0	32440	
4927	0	32622	
4928	0	32684	
4929	0	32366	
4930	0	32450	
4931	0	32632	
4932	0	32688	
4933	0	32366	
4934	0	32441	
4935	0	32628	
4936	0	32680	
4937	0	32360	
4938	0	32444	
4939	0	32626	
4940	0	32676	
4941	0	32356	
4942	0	32450	
4943	0	32638	
4944	0	32680	
4945	0	32360	
4946	0	32448	
4947	0	32636	
4948	0	32683	
4949	0	32360	
4950	0	32448	
4951	0	32640	
4952	0	32666	
4953	0	32356	
4954	0	32456	
4955	0	32632	
4956	0	32660	
4957	0	32340	
4958	0	32442	
4959	0	32632	
4960	0	32664	
4961	0	32348	
4962	0	32444	
4963	0	32634	
4964	0	32672	
4965	0	32348	
4966	0	32452	
4967	0	32640	
4968	0	32668	
4969	0	32344	
4970	0	32460	
4971	0	32632	
4972	0	32672	
4973	0	32348	
4974	0	32448	
4975	0	32624	
4976	0	32660	
4977	0	32345	
4978	0	32436	
4979	0	32620	
4980	0	32660	
4981	0	32338	
4982	0	32448	
4983	0	32634	
4984	0	32662	
4985	0	32342	
4986	0	32434	
4987	0	32638	
4988	0	32656	
4989	0	32340	
4990	0	32452	
4991	0	32640	
4992	0	32660	
4993	0	32342	
4994	0	32452	
4995	0	32626	
4996	0	32648	
4997	0	32336	
4998	0	32450	
4999	0	32620	
5000	0	32640	
5001	0	32324	
5002	0	32444	
5003	0	32624	
5004	0	32654	
5005	0	32332	
5006	0	32432	
5007	0	32624	
5008	0	32642	
5009	0	32337	
5010	0	32436	
5011	0	32640	
5012	0	32644	
5013	0	32340	
5014	0	32448	
5015	0	32626	
5016	0	32644	
5017	0	32328	
5018	0	32432	
5019	0	32620	
5020	0	32636	
5021	0	32338	
5022	0	32440	
5023	0	32620	
5024	0	32640	
5025	0	32324	
5026	0	32444	
5027	0	32631	
5028	0	32644	
5029	0	32336	
5030	0	32428	
5031	0	32620	
5032	0	32646	
5033	0	32336	
5034	0	32441	
5035	0	32621	
5036	0	32646	
5037	0	32332	
5038	0	32434	
5039	0	32616	
5040	0	32640	
5041	0	32328	
5042	0	32438	
5043	0	32609	
5044	0	32640	
5045	0	32332	
5046	0	32432	
5047	0	32612	
5048	0	32632	
5049	0	32328	
5050	0	32424	
5051	0	32624	
5052	0	32640	
5053	0	32324	
5054	0	32436	
5055	0	32612	
5056	0	32626	
5057	0	32314	
5058	0	32426	
5059	0	32609	
5060	0	32617	
5061	0	32308	
5062	0	32424	
5063	0	32608	
5064	0	32612	
5065	0	32308	
5066	0	32420	
5067	0	32606	
5068	0	32612	
5069	0	32308	
5070	0	32428	
5071	0	32610	
5072	0	32630	
5073	0	32320	
5074	0	32432	
5075	0	32610	
5076	0	32620	
5077	0	32306	
5078	0	32424	
5079	0	32613	
5080	0	32616	
5081	0	32314	
5082	0	32417	
5083	0	32600	
5084	0	32620	
5085	0	32309	
5086	0	32414	
5087	0	32592	
5088	0	32617	
5089	0	32320	
5090	0	32416	
5091	0	32608	
5092	0	32626	
5093	0	32320	
5094	0	32416	
5095	0	32600	
5096	0	32620	
5097	0	32298	
5098	0	32412	
5099	0	32604	
5100	0	32620	
5101	0	32304	
5102	0	32424	
5103	0	32602	
5104	0	32619	
5105	0	32304	
5106	0	32412	
5107	0	32596	
5108	0	32612	
5109	0	32304	
5110	0	32416	
5111	0	32616	
5112	0	32620	
5113	0	32312	
5114	0	32424	
5115	0	32604	
5116	0	32612	
5117	0	32306	
5118	0	32420	
5119	0	32604	
5120	0	32620	
5121	0	32308	
5122	0	32416	
5123	0	32608	
5124	0	32608	
5125	0	32306	
5126	0	32413	
5127	0	32594	
5128	0	32609	
5129	0	32300	
5130	0	32416	
5131	0	32608	
5132	0	32602	
5133	0	32302	
5134	0	32416	
5135	0	32604	
5136	0	32596	
5137	0	32292	
5138	0	32416	
5139	0	32606	
5140	0	32604	
5141	0	32293	
5142	0	32428	
5143	0	32604	
5144	0	32596	
5145	0	32292	
5146	0	32420	
5147	0	32588	
5148	0	32588	
5149	0	32288	
5150	0	32416	
5151	0	32606	
5152	0	32596	
5153	0	32292	
5154	0	32420	
5155	0	32592	
5156	0	32596	
5157	0	32284	
5158	0	32412	
5159	0	32602	
5160	0	32600	
5161	0	32285	
5162	0	32424	
5163	0	32596	
5164	0	32586	
5165	0	32280	
5166	0	32406	
5167	0	32584	
5168	0	32594	
5169	0	32276	
5170	0	32418	
5171	0	32597	
5172	0	32596	
5173	0	32288	
5174	0	32416	
5175	0	32600	
5176	0	32604	
5177	0	32289	
5178	0	32408	
5179	0	32600	
5180	0	32588	
5181	0	32292	
5182	0	32418	
5183	0	32592	
5184	0	32600	
5185	0	32292	
5186	0	32416	
5187	0	32604	
5188	0	32600	
5189	0	32292	
5190	0	32416	
5191	0	32602	
5192	0	32618	
5193	0	32298	
5194	0	32425	
5195	0	32600	
5196	0	32608	
5197	0	32304	
5198	0	32432	
5199	0	32612	
5200	0	32600	
5201	0	32312	
5202	0	32448	
5203	0	32612	
5204	0	32608	
5205	0	32296	
5206	0	32432	
5207	0	32612	
5208	0	32598	
5209	0	32292	
5210	0	32420	
5211	0	32608	
5212	0	32610	
5213	0	32302	
5214	0	32438	
5215	0	32612	
5216	0	32614	
5217	0	32300	
5218	0	32432	
5219	0	32628	
5220	0	32618	
5221	0	32304	
5222	0	32432	
5223	0	32620	
5224	0	32616	
5225	0	32306	
5226	0	32434	
5227	0	32621	
5228	0	32604	
5229	0	32298	
5230	0	32440	
5231	0	32622	
5232	0	32602	
5233	0	32302	
5234	0	32450	
5235	0	32624	
5236	0	32602	
5237	0	32296	
5238	0	32444	
5239	0	32628	
5240	0	32600	
5241	0	32300	
5242	0	32450	
5243	0	32628	
5244	0	32596	
5245	0	32304	
5246	0	32448	
5247	0	32620	
5248	0	32587	
5249	0	32293	
5250	0	32444	
5251	0	32632	
5252	0	32580	
5253	0	32284	
5254	0	32448	
5255	0	32624	
5256	0	32584	
5257	0	32284	
5258	0	32462	
5259	0	32628	
5260	0	32576	
5261	0	32288	
5262	0	32468	
5263	0	32642	
5264	0	32578	
5265	0	32284	
5266	0	32456	
5267	0	32639	
5268	0	32578	
5269	0	32280	
5270	0	32458	
5271	0	32646	
5272	0	32576	
5273	0	32288	
5274	0	32458	
5275	0	32636	
5276	0	32572	
5277	0	32284	
5278	0	32452	
5279	0	32640	
5280	0	32584	
5281	0	32289	
5282	0	32464	
5283	0	32642	
5284	0	32580	
5285	0	32285	
5286	0	32460	
5287	0	32636	
5288	0	32572	
5289	0	32288	
5290	0	32468	
5291	0	32638	
5292	0	32584	
5293	0	32289	
5294	0	32460	
5295	0	32640	
5296	0	32576	
5297	0	32284	
5298	0	32456	
5299	0	32648	
5300	0	32580	
5301	0	32282	
5302	0	32468	
5303	0	32642	
5304	0	32584	
5305	0	32288	
5306	0	32464	
5307	0	32642	
5308	0	32586	
5309	0	32288	
5310	0	32465	
5311	0	32644	
5312	0	32592	
5313	0	32296	
5314	0	32476	
5315	0	32648	
5316	0	32596	
5317	0	32290	
5318	0	32476	
5319	0	32648	
5320	0	32600	
5321	0	32298	
5322	0	32476	
5323	0	32648	
5324	0	32594	
5325	0	32310	
5326	0	32480	
5327	0	32660	
5328	0	32602	
5329	0	32300	
5330	0	32480	
5331	0	32660	
5332	0	32600	
5333	0	32312	
5334	0	32480	
5335	0	32664	
5336	0	32610	
5337	0	32312	
5338	0	32492	
5339	0	32669	
5340	0	32612	
5341	0	32313	
5342	0	32490	
5343	0	32676	
5344	0	32612	
5345	0	32316	
5346	0	32496	
5347	0	32668	
5348	0	32616	
5349	0	32324	
5350	0	32496	
5351	0	32674	
5352	0	32620	
5353	0	32316	
5354	0	32498	
5355	0	32680	
5356	0	32608	
5357	0	32315	
5358	0	32492	
5359	0	32684	
5360	0	32608	
5361	0	32320	
5362	0	32520	
5363	0	32688	
5364	0	32610	
5365	0	32320	
5366	0	32522	
5367	0	32696	
5368	0	32617	
5369	0	32330	
5370	0	32526	
5371	0	32696	
5372	0	32640	
5373	0	32330	
5374	0	32516	
5375	0	32680	
5376	0	32608	
5377	0	32320	
5378	0	32512	
5379	0	32690	
5380	0	32617	
5381	0	32334	
5382	0	32520	
5383	0	32694	
5384	0	32628	
5385	0	32324	
5386	0	32514	
5387	0	32688	
5388	0	32624	
5389	0	32332	
5390	0	32520	
5391	0	32688	
5392	0	32632	
5393	0	32324	
5394	0	32512	
5395	0	32682	
5396	0	32613	
5397	0	32314	
5398	0	32506	
5399	0	32680	
5400	0	32620	
5401	0	32316	
5402	0	32510	
5403	0	32688	
5404	0	32612	
5405	0	32314	
5406	0	32508	
5407	0	32688	
5408	0	32608	
5409	0	32312	
5410	0	32504	
5411	0	32688	
5412	0	32612	
5413	0	32316	
5414	0	32508	
5415	0	32676	
5416	0	32608	
5417	0	32312	
5418	0	32500	
5419	0	32680	
5420	0	32600	
5421	0	32312	
5422	0	32498	
5423	0	32672	
5424	0	32608	
5425	0	32314	
5426	0	32504	
5427	0	32674	
5428	0	32600	
5429	0	32304	
5430	0	32504	
5431	0	32680	
5432	0	32598	
5433	0	32306	
5434	0	32504	
5435	0	32672	
5436	0	32600	
5437	0	32298	
5438	0	32492	
5439	0	32664	
5440	0	32596	
5441	0	32304	
5442	0	32496	
5443	0	32676	
5444	0	32608	
5445	0	32314	
5446	0	32505	
5447	0	32688	
5448	0	32592	
5449	0	32304	
5450	0	32508	
5451	0	32680	
5452	0	32608	
5453	0	32312	
5454	0	32506	
5455	0	32688	
5456	0	32592	
5457	0	32306	
5458	0	32504	
5459	0	32686	
5460	0	32602	
5461	0	32304	
5462	0	32521	
5463	0	32696	
5464	0	32610	
5465	0	32320	
5466	0	32514	
5467	0	32700	
5468	0	32612	
5469	0	32320	
5470	0	32532	
5471	0	32706	
5472	0	32616	
5473	0	32322	
5474	0	32544	
5475	0	32704	
5476	0	32608	
5477	0	32322	
5478	0	32537	
5479	0	32698	
5480	0	32608	
5481	0	32329	
5482	0	32530	
5483	0	32710	
5484	0	32621	
5485	0	32324	
5486	0	32548	
5487	0	32714	
5488	0	32624	
5489	0	32340	
5490	0	32546	
5491	0	32720	
5492	0	32636	
5493	0	32345	
5494	0	32544	
5495	0	32724	
5496	0	32620	
5497	0	32329	
5498	0	32540	
5499	0	32722	
5500	0	32612	
5501	0	32330	
5502	0	32544	
5503	0	32724	
5504	0	32632	
5505	0	32348	
5506	0	32544	
5507	0	32720	
5508	0	32633	
5509	0	32348	
5510	0	32556	
5511	0	32736	
5512	0	32638	
5513	0	32348	
5514	0	32557	
5515	0	32728	
5516	0	32636	
5517	0	32344	
5518	0	32552	
5519	0	32724	
5520	0	32636	
5521	0	32342	
5522	0	32568	
5523	0	32724	
5524	0	32632	
5525	0	32342	
5526	0	32570	
5527	0	32740	
5528	0	32640	
5529	0	32350	
5530	0	32576	
5531	0	32736	
5532	0	32640	
5533	0	32354	
5534	0	32564	
5535	0	32740	
5536	0	32644	
5537	0	32349	
5538	0	32556	
5539	0	32736	
5540	0	32636	
5541	0	32340	
5542	0	32552	
5543	0	32736	
5544	0	32644	
5545	0	32348	
5546	0	32562	
5547	0	32740	
5548	0	32640	
5549	0	32345	
5550	0	32560	
5551	0	32740	
5552	0	32648	
5553	0	32352	
5554	0	32572	
5555	0	32740	
5556	0	32640	
5557	0	32354	
5558	0	32560	
5559	0	32724	
5560	0	32652	
5561	0	32356	
5562	0	32552	
5563	0	32740	
5564	0	32644	
5565	0	32364	
5566	0	32560	
5567	0	32740	
5568	0	32648	
5569	0	32358	
5570	0	32568	
5571	0	32746	
5572	0	32661	
5573	0	32370	
5574	0	32572	
5575	0	32736	
5576	0	32654	
5577	0	32360	
5578	0	32568	
5579	0	32748	
5580	0	32658	
5581	0	32356	
5582	0	32576	
5583	0	32746	
5584	0	32666	
5585	0	32366	
5586	0	32576	
5587	0	32740	
5588	0	32652	
5589	0	32368	
5590	0	32580	
5591	0	32760	
5592	0	32656	
5593	0	32374	
5594	0	32584	
5595	0	32752	
5596	0	32658	
5597	0	32366	
5598	0	32576	
5599	0	32754	
5600	0	32664	
5601	0	32377	
5602	0	32584	
5603	0	32756	
5604	0	32672	
5605	0	32372	
5606	0	32584	
5607	0	32740	
5608	0	32680	
5609	0	32380	
5610	0	32584	
5611	0	32769	
5612	0	32692	
5613	0	32392	
5614	0	32592	
5615	0	32762	
5616	0	32688	
5617	0	32390	
5618	0	32584	
5619	0	32760	
5620	0	32696	
5621	0	32394	
5622	0	32588	
5623	0	32770	
5624	0	32704	
5625	0	32396	
5626	0	32584	
5627	0	32756	
5628	0	32698	
5629	0	32400	
5630	0	32586	
5631	0	32772	
5632	0	32706	
5633	0	32416	
5634	0	32592	
5635	0	32774	
5636	0	32708	
5637	0	32412	
5638	0	32592	
5639	0	32768	
5640	0	32712	
5641	0	32416	
5642	0	32604	
5643	0	32774	
5644	0	32704	
5645	0	32404	
5646	0	32600	
5647	0	32772	
5648	0	32704	
5649	0	32412	
5650	0	32592	
5651	0	32780	
5652	0	32708	
5653	0	32420	
5654	0	32612	
5655	0	32788	
5656	0	32714	
5657	0	32425	
5658	0	32608	
5659	0	32786	
5660	0	32716	
5661	0	32422	
5662	0	32614	
5663	0	32792	
5664	0	32718	
5665	0	32424	
5666	0	32612	
5667	0	32784	
5668	0	32713	
5669	0	32432	
5670	0	32620	
5671	0	32802	
5672	0	32728	
5673	0	32432	
5674	0	32620	
5675	0	32788	
5676	0	32730	
5677	0	32440	
5678	0	32626	
5679	0	32784	
5680	0	32736	
5681	0	32448	
5682	0	32624	
5683	0	32810	
5684	0	32736	
5685	0	32436	
5686	0	32620	
5687	0	32792	
5688	0	32736	
5689	0	32432	
5690	0	32622	
5691	0	32800	
5692	0	32738	
5693	0	32440	
5694	0	32626	
5695	0	32797	
5696	0	32738	
5697	0	32448	
5698	0	32624	
5699	0	32800	
5700	0	32724	
5701	0	32440	
5702	0	32624	
5703	0	32801	
5704	0	32741	
5705	0	32436	
5706	0	32620	
5707	0	32796	
5708	0	32722	
5709	0	32432	
5710	0	32628	
5711	0	32796	
5712	0	32732	
5713	0	32434	
5714	0	32628	
5715	0	32808	
5716	0	32720	
5717	0	32428	
5718	0	32632	
5719	0	32800	
5720	0	32728	
5721	0	32432	
5722	0	32636	
5723	0	32800	
5724	0	32722	
5725	0	32432	
5726	0	32632	
5727	0	32806	
5728	0	32726	
5729	0	32436	
5730	0	32640	
5731	0	32804	
5732	0	32720	
5733	0	32444	
5734	0	32636	
5735	0	32808	
5736	0	32728	
5737	0	32436	
5738	0	32633	
5739	0	32812	
5740	0	32738	
5741	0	32436	
5742	0	32650	
5743	0	32816	
5744	0	32736	
5745	0	32448	
5746	0	32640	
5747	0	32824	
5748	0	32740	
5749	0	32448	
5750	0	32648	
5751	0	32812	
5752	0	32736	
5753	0	32440	
5754	0	32648	
5755	0	32824	
5756	0	32726	
5757	0	32436	
5758	0	32652	
5759	0	32828	
5760	0	32728	
5761	0	32440	
5762	0	32668	
5763	0	32846	
5764	0	32736	
5765	0	32448	
5766	0	32672	
5767	0	32844	
5768	0	32744	
5769	0	32444	
5770	0	32668	
5771	0	32848	
5772	0	32738	
5773	0	32452	
5774	0	32672	
5775	0	32842	
5776	0	32738	
5777	0	32444	
5778	0	32676	
5779	0	32845	
5780	0	32736	
5781	0	32448	
5782	0	32680	
5783	0	32858	
5784	0	32732	
5785	0	32452	
5786	0	32681	
5787	0	32852	
5788	0	32736	
5789	0	32444	
5790	0	32672	
5791	0	32848	
5792	0	32736	
5793	0	32440	
5794	0	32684	
5795	0	32848	
5796	0	32720	
5797	0	32438	
5798	0	32680	
5799	0	32848	
5800	0	32724	
5801	0	32442	
5802	0	32680	
5803	0	32864	
5804	0	32732	
5805	0	32440	
5806	0	32681	
5807	0	32852	
5808	0	32728	
5809	0	32440	
5810	0	32682	
5811	0	32840	
5812	0	32722	
5813	0	32433	
5814	0	32670	
5815	0	32836	
5816	0	32714	
5817	0	32424	
5818	0	32672	
5819	0	32848	
5820	0	32714	
5821	0	32432	
5822	0	32676	
5823	0	32840	
5824	0	32714	
5825	0	32424	
5826	0	32668	
5827	0	32836	
5828	0	32714	
5829	0	32416	
5830	0	32668	
5831	0	32834	
5832	0	32712	
5833	0	32421	
5834	0	32652	
5835	0	32824	
5836	0	32696	
5837	0	32416	
5838	0	32650	
5839	0	32826	
5840	0	32692	
5841	0	32412	
5842	0	32664	
5843	0	32832	
5844	0	32706	
5845	0	32418	
5846	0	32662	
5847	0	32824	
5848	0	32706	
5849	0	32412	
5850	0	32652	
5851	0	32816	
5852	0	32700	
5853	0	32412	
5854	0	32648	
5855	0	32816	
5856	0	32684	
5857	0	32400	
5858	0	32644	
5859	0	32816	
5860	0	32680	
5861	0	32404	
5862	0	32652	
5863	0	32819	
5864	0	32681	
5865	0	32406	
5866	0	32645	
5867	0	32812	
5868	0	32692	
5869	0	32400	
5870	0	32648	
5871	0	32816	
5872	0	32696	
5873	0	32400	
5874	0	32646	
5875	0	32820	
5876	0	32694	
5877	0	32392	
5878	0	32647	
5879	0	32810	
5880	0	32684	
5881	0	32404	
5882	0	32640	
5883	0	32820	
5884	0	32701	
5885	0	32406	
5886	0	32642	
5887	0	32808	
5888	0	32692	
5889	0	32404	
5890	0	32651	
5891	0	32816	
5892	0	32682	
5893	0	32400	
5894	0	32648	
5895	0	32816	
5896	0	32684	
5897	0	32398	
5898	0	32634	
5899	0	32804	
5900	0	32681	
5901	0	32400	
5902	0	32632	
5903	0	32804	
5904	0	32690	
5905	0	32396	
5906	0	32640	
5907	0	32820	
5908	0	32690	
5909	0	32410	
5910	0	32644	
5911	0	32808	
5912	0	32696	
5913	0	32400	
5914	0	32640	
5915	0	32805	
5916	0	32676	
5917	0	32398	
5918	0	32640	
5919	0	32805	
5920	0	32673	
5921	0	32388	
5922	0	32640	
5923	0	32817	
5924	0	32688	
5925	0	32388	
5926	0	32641	
5927	0	32808	
5928	0	32688	
5929	0	32396	
5930	0	32642	
5931	0	32813	
5932	0	32680	
5933	0	32398	
5934	0	32640	
5935	0	32812	
5936	0	32672	
5937	0	32400	
5938	0	32640	
5939	0	32800	
5940	0	32664	
5941	0	32400	
5942	0	32644	
5943	0	32810	
5944	0	32680	
5945	0	32392	
5946	0	32636	
5947	0	32804	
5948	0	32674	
5949	0	32393	
5950	0	32636	
5951	0	32792	
5952	0	32666	
5953	0	32394	
5954	0	32636	
5955	0	32800	
5956	0	32652	
5957	0	32384	
5958	0	32621	
5959	0	32800	
5960	0	32656	
5961	0	32386	
5962	0	32624	
5963	0	32802	
5964	0	32652	
5965	0	32386	
5966	0	32624	
5967	0	32792	
5968	0	32640	
5969	0	32392	
5970	0	32624	
5971	0	32800	
5972	0	32652	
5973	0	32388	
5974	0	32616	
5975	0	32792	
5976	0	32636	
5977	0	32376	
5978	0	32624	
5979	0	32776	
5980	0	32636	
5981	0	32386	
5982	0	32612	
5983	0	32784	
5984	0	32640	
5985	0	32380	
5986	0	32608	
5987	0	32778	
5988	0	32635	
5989	0	32379	
5990	0	32616	
5991	0	32788	
5992	0	32633	
5993	0	32377	
5994	0	32612	
5995	0	32774	
5996	0	32627	
5997	0	32360	
5998	0	32594	
5999	0	32770	
6000	0	32620	
6001	0	32362	
6002	0	32604	
6003	0	32770	
6004	0	32617	
6005	0	32370	
6006	0	32602	
6007	0	32764	
6008	0	32608	
6009	0	32376	
6010	0	32600	
6011	0	32768	
6012	0	32616	
6013	0	32372	
6014	0	32610	
6015	0	32774	
6016	0	32621	
6017	0	32360	
6018	0	32592	
6019	0	32760	
6020	0	32608	
6021	0	32360	
6022	0	32588	
6023	0	32760	
6024	0	32608	
6025	0	32370	
6026	0	32604	
6027	0	32768	
6028	0	32608	
6029	0	32368	
6030	0	32604	
6031	0	32774	
6032	0	32617	
6033	0	32379	
6034	0	32608	
6035	0	32774	
6036	0	32610	
6037	0	32368	
6038	0	32592	
6039	0	32760	
6040	0	32604	
6041	0	32360	
6042	0	32601	
6043	0	32768	
6044	0	32612	
6045	0	32368	
6046	0	32608	
6047	0	32775	
6048	0	32604	
6049	0	32376	
6050	0	32612	
6051	0	32768	
6052	0	32616	
6053	0	32378	
6054	0	32604	
6055	0	32784	
6056	0	32614	
6057	0	32388	
6058	0	32608	
6059	0	32768	
6060	0	32620	
6061	0	32374	
6062	0	32610	
6063	0	32786	
6064	0	32617	
6065	0	32376	
6066	0	32612	
6067	0	32778	
6068	0	32617	
6069	0	32386	
6070	0	32622	
6071	0	32789	
6072	0	32621	
6073	0	32394	
6074	0	32624	
6075	0	32787	
6076	0	32612	
6077	0	32384	
6078	0	32618	
6079	0	32784	
6080	0	32612	
6081	0	32386	
6082	0	32620	
6083	0	32788	
6084	0	32616	
6085	0	32384	
6086	0	32626	
6087	0	32782	
6088	0	32620	
6089	0	32392	
6090	0	32628	
6091	0	32784	
6092	0	32626	
6093	0	32399	
6094	0	32634	
6095	0	32796	
6096	0	32620	
6097	0	32402	
6098	0	32634	
6099	0	32808	
6100	0	32625	
6101	0	32394	
6102	0	32632	
6103	0	32800	
6104	0	32624	
6105	0	32412	
6106	0	32628	
6107	0	32792	
6108	0	32617	
6109	0	32408	
6110	0	32628	
6111	0	32804	
6112	0	32620	
6113	0	32408	
6114	0	32636	
6115	0	32802	
6116	0	32612	
6117	0	32416	
6118	0	32640	
6119	0	32802	
6120	0	32620	
6121	0	32416	
6122	0	32644	
6123	0	32808	
6124	0	32612	
6125	0	32420	
6126	0	32634	
6127	0	32804	
6128	0	32608	
6129	0	32422	
6130	0	32648	
6131	0	32816	
6132	0	32612	
6133	0	32417	
6134	0	32644	
6135	0	32808	
6136	0	32616	
6137	0	32416	
6138	0	32650	
6139	0	32810	
6140	0	32612	
6141	0	32420	
6142	0	32652	
6143	0	32820	
6144	0	32624	
6145	0	32420	
6146	0	32640	
6147	0	32812	
6148	0	32612	
6149	0	32420	
6150	0	32652	
6151	0	32816	
6152	0	32628	
6153	0	32428	
6154	0	32648	
6155	0	32816	
6156	0	32620	
6157	0	32424	
6158	0	32652	
6159	0	32816	
6160	0	32628	
6161	0	32428	
6162	0	32656	
6163	0	32821	
6164	0	32624	
6165	0	32440	
6166	0	32660	
6167	0	32828	
6168	0	32620	
6169	0	32432	
6170	0	32660	
6171	0	32816	
6172	0	32632	
6173	0	32453	
6174	0	32664	
6175	0	32824	
6176	0	32624	
6177	0	32440	
6178	0	32668	
6179	0	32816	
6180	0	32628	
6181	0	32442	
6182	0	32668	
6183	0	32836	
6184	0	32632	
6185	0	32436	
6186	0	32664	
6187	0	32837	
6188	0	32628	
6189	0	32448	
6190	0	32664	
6191	0	32832	
6192	0	32632	
6193	0	32460	
6194	0	32682	
6195	0	32844	
6196	0	32640	
6197	0	32452	
6198	0	32680	
6199	0	32836	
6200	0	32632	
6201	0	32472	
6202	0	32692	
6203	0	32840	
6204	0	32648	
6205	0	32464	
6206	0	32684	
6207	0	32840	
6208	0	32642	
6209	0	32452	
6210	0	32688	
6211	0	32848	
6212	0	32642	
6213	0	32464	
6214	0	32697	
6215	0	32868	
6216	0	32640	
6217	0	32464	
6218	0	32692	
6219	0	32858	
6220	0	32640	
6221	0	32484	
6222	0	32707	
6223	0	32866	
6224	0	32652	
6225	0	32488	
6226	0	32696	
6227	0	32860	
6228	0	32640	
6229	0	32486	
6230	0	32704	
6231	0	32876	
6232	0	32654	
6233	0	32492	
6234	0	32712	
6235	0	32874	
6236	0	32642	
6237	0	32484	
6238	0	32704	
6239	0	32864	
6240	0	32652	
6241	0	32488	
6242	0	32716	
6243	0	32872	
6244	0	32652	
6245	0	32484	
6246	0	32704	
6247	0	32880	
6248	0	32650	
6249	0	32490	
6250	0	32708	
6251	0	32874	
6252	0	32652	
6253	0	32498	
6254	0	32714	
6255	0	32872	
6256	0	32636	
6257	0	32494	
6258	0	32712	
6259	0	32878	
6260	0	32644	
6261	0	32500	
6262	0	32714	
6263	0	32888	
6264	0	32652	
6265	0	32496	
6266	0	32720	
6267	0	32880	
6268	0	32658	
6269	0	32492	
6270	0	32706	
6271	0	32868	
6272	0	32660	
6273	0	32488	
6274	0	32708	
6275	0	32872	
6276	0	32652	
6277	0	32492	
6278	0	32712	
6279	0	32878	
6280	0	32656	
6281	0	32500	
6282	0	32720	
6283	0	32880	
6284	0	32672	
6285	0	32496	
6286	0	32720	
6287	0	32880	
6288	0	32654	
6289	0	32500	
6290	0	32708	
6291	0	32876	
6292	0	32658	
6293	0	32502	
6294	0	32724	
6295	0	32884	
6296	0	32648	
6297	0	32492	
6298	0	32720	
6299	0	32880	
6300	0	32656	
6301	0	32502	
6302	0	32728	
6303	0	32880	
6304	0	32656	
6305	0	32496	
6306	0	32720	
6307	0	32886	
6308	0	32656	
6309	0	32504	
6310	0	32720	
6311	0	32888	
6312	0	32660	
6313	0	32512	
6314	0	32722	
6315	0	32888	
6316	0	32652	
6317	0	32512	
6318	0	32722	
6319	0	32888	
6320	0	32660	
6321	0	32520	
6322	0	32732	
6323	0	32888	
6324	0	32668	
6325	0	32512	
6326	0	32728	
6327	0	32890	
6328	0	32660	
6329	0	32508	
6330	0	32724	
6331	0	32901	
6332	0	32660	
6333	0	32520	
6334	0	32722	
6335	0	32890	
6336	0	32664	
6337	0	32505	
6338	0	32728	
6339	0	32896	
6340	0	32660	
6341	0	32526	
6342	0	32736	
6343	0	32904	
6344	0	32670	
6345	0	32522	
6346	0	32748	
6347	0	32900	
6348	0	32660	
6349	0	32516	
6350	0	32740	
6351	0	32903	
6352	0	32664	
6353	0	32522	
6354	0	32728	
6355	0	32896	
6356	0	32656	
6357	0	32520	
6358	0	32734	
6359	0	32896	
6360	0	32658	
6361	0	32513	
6362	0	32736	
6363	0	32900	
6364	0	32658	
6365	0	32532	
6366	0	32736	
6367	0	32900	
6368	0	32664	
6369	0	32520	
6370	0	32744	
6371	0	32900	
6372	0	32660	
6373	0	32527	
6374	0	32730	
6375	0	32890	
6376	0	32648	
6377	0	32504	
6378	0	32720	
6379	0	32894	
6380	0	32650	
6381	0	32516	
6382	0	32724	
6383	0	32892	
6384	0	32652	
6385	0	32520	
6386	0	32733	
6387	0	32888	
6388	0	32648	
6389	0	32508	
6390	0	32724	
6391	0	32876	
6392	0	32648	
6393	0	32512	
6394	0	32720	
6395	0	32886	
6396	0	32644	
6397	0	32496	
6398	0	32720	
6399	0	32882	
6400	0	32646	
6401	0	32509	
6402	0	32730	
6403	0	32896	
6404	0	32652	
6405	0	32520	
6406	0	32737	
6407	0	32888	
6408	0	32658	
6409	0	32540	
6410	0	32740	
6411	0	32916	
6412	0	32672	
6413	0	32554	
6414	0	32760	
6415	0	32914	
6416	0	32668	
6417	0	32550	
6418	0	32760	
6419	0	32916	
6420	0	32676	
6421	0	32560	
6422	0	32775	
6423	0	32936	
6424	0	32676	
6425	0	32572	
6426	0	32780	
6427	0	32929	
6428	0	32672	
6429	0	32580	
6430	0	32788	
6431	0	32940	
6432	0	32688	
6433	0	32592	
6434	0	32788	
6435	0	32944	
6436	0	32680	
6437	0	32580	
6438	0	32789	
6439	0	32948	
6440	0	32684	
6441	0	32600	
6442	0	32800	
6443	0	32952	
6444	0	32676	
6445	0	32597	
6446	0	32802	
6447	0	32952	
6448	0	32684	
6449	0	32592	
6450	0	32800	
6451	0	32966	
6452	0	32688	
6453	0	32602	
6454	0	32800	
6455	0	32960	
6456	0	32680	
6457	0	32596	
6458	0	32800	
6459	0	32952	
6460	0	32674	
6461	0	32604	
6462	0	32809	
6463	0	32969	
6464	0	32672	
6465	0	32600	
6466	0	32808	
6467	0	32968	
6468	0	32670	
6469	0	32611	
6470	0	32812	
6471	0	32964	
6472	0	32680	
6473	0	32612	
6474	0	32812	
6475	0	32974	
6476	0	32680	
6477	0	32608	
6478	0	32816	
6479	0	32964	
6480	0	32676	
6481	0	32616	
6482	0	32812	
6483	0	32984	
6484	0	32688	
6485	0	32620	
6486	0	32816	
6487	0	32976	
6488	0	32680	
6489	0	32628	
6490	0	32822	
6491	0	32984	
6492	0	32692	
6493	0	32628	
6494	0	32830	
6495	0	32978	
6496	0	32688	
6497	0	32632	
6498	0	32824	
6499	0	32976	
6500	0	32688	
6501	0	32628	
6502	0	32824	
6503	0	32985	
6504	0	32681	
6505	0	32634	
6506	0	32836	
6507	0	32992	
6508	0	32688	
6509	0	32646	
6510	0	32840	
6511	0	32998	
6512	0	32704	
6513	0	32652	
6514	0	32850	
6515	0	33002	
6516	0	32700	
6517	0	32652	
6518	0	32852	
6519	0	33010	
6520	0	32708	
6521	0	32652	
6522	0	32852	
6523	0	33016	
6524	0	32712	
6525	0	32660	
6526	0	32857	
6527	0	33004	
6528	0	32714	
6529	0	32658	
6530	0	32862	
6531	0	33017	
6532	0	32722	
6533	0	32669	
6534	0	32864	
6535	0	33024	
6536	0	32732	
6537	0	32672	
6538	0	32864	
6539	0	33018	
6540	0	32736	
6541	0	32672	
6542	0	32872	
6543	0	33028	
6544	0	32728	
6545	0	32677	
6546	0	32872	
6547	0	33032	
6548	0	32728	
6549	0	32680	
6550	0	32880	
6551	0	33042	
6552	0	32736	
6553	0	32688	
6554	0	32890	
6555	0	33040	
6556	0	32738	
6557	0	32692	
6558	0	32882	
6559	0	33040	
6560	0	32736	
6561	0	32696	
6562	0	32900	
6563	0	33052	
6564	0	32746	
6565	0	32704	
6566	0	32888	
6567	0	33048	
6568	0	32740	
6569	0	32704	
6570	0	32900	
6571	0	33060	
6572	0	32754	
6573	0	32716	
6574	0	32908	
6575	0	33064	
6576	0	32744	
6577	0	32720	
6578	0	32892	
6579	0	33056	
6580	0	32746	
6581	0	32708	
6582	0	32902	
6583	0	33060	
6584	0	32744	
6585	0	32698	
6586	0	32902	
6587	0	33056	
6588	0	32736	
6589	0	32704	
6590	0	32910	
6591	0	33064	
6592	0	32748	
6593	0	32720	
6594	0	32908	
6595	0	33075	
6596	0	32756	
6597	0	32712	
6598	0	32912	
6599	0	33066	
6600	0	32750	
6601	0	32732	
6602	0	32924	
6603	0	33082	
6604	0	32752	
6605	0	32736	
6606	0	32922	
6607	0	33080	
6608	0	32749	
6609	0	32732	
6610	0	32932	
6611	0	33088	
6612	0	32752	
6613	0	32740	
6614	0	32938	
6615	0	33080	
6616	0	32754	
6617	0	32736	
6618	0	32928	
6619	0	33081	
6620	0	32752	
6621	0	32740	
6622	0	32936	
6623	0	33088	
6624	0	32756	
6625	0	32752	
6626	0	32932	
6627	0	33080	
6628	0	32744	
6629	0	32736	
6630	0	32940	
6631	0	33082	
6632	0	32752	
6633	0	32748	
6634	0	32936	
6635	0	33088	
6636	0	32746	
6637	0	32754	
6638	0	32936	
6639	0	33080	
6640	0	32746	
6641	0	32756	
6642	0	32946	
6643	0	33076	
6644	0	32746	
6645	0	32752	
6646	0	32944	
6647	0	33068	
6648	0	32748	
6649	0	32756	
6650	0	32946	
6651	0	33076	
6652	0	32752	
6653	0	32760	
6654	0	32944	
6655	0	33072	
6656	0	32754	
6657	0	32760	
6658	0	32940	
6659	0	33072	
6660	0	32740	
6661	0	32768	
6662	0	32952	
6663	0	33072	
6664	0	32737	
6665	0	32760	
6666	0	32937	
6667	0	33068	
6668	0	32731	
6669	0	32760	
6670	0	32944	
6671	0	33067	
6672	0	32740	
6673	0	32768	
6674	0	32940	
6675	0	33068	
6676	0	32728	
6677	0	32760	
6678	0	32950	
6679	0	33048	
6680	0	32728	
6681	0	32756	
6682	0	32938	
6683	0	33052	
6684	0	32736	
6685	0	32752	
6686	0	32932	
6687	0	33052	
6688	0	32736	
6689	0	32752	
6690	0	32952	
6691	0	33052	
6692	0	32740	
6693	0	32768	
6694	0	32950	
6695	0	33060	
6696	0	32730	
6697	0	32756	
6698	0	32944	
6699	0	33048	
6700	0	32736	
6701	0	32760	
6702	0	32952	
6703	0	33057	
6704	0	32732	
6705	0	32774	
6706	0	32952	
6707	0	33041	
6708	0	32730	
6709	0	32760	
6710	0	32952	
6711	0	33044	
6712	0	32733	
6713	0	32762	
6714	0	32952	
6715	0	33056	
6716	0	32724	
6717	0	32760	
6718	0	32952	
6719	0	33048	
6720	0	32736	
6721	0	32774	
6722	0	32960	
6723	0	33060	
6724	0	32736	
6725	0	32784	
6726	0	32952	
6727	0	33057	
6728	0	32732	
6729	0	32754	
6730	0	32946	
6731	0	33048	
6732	0	32729	
6733	0	32765	
6734	0	32953	
6735	0	33052	
6736	0	32737	
6737	0	32772	
6738	0	32960	
6739	0	33056	
6740	0	32732	
6741	0	32768	
6742	0	32956	
6743	0	33069	
6744	0	32732	
6745	0	32760	
6746	0	32954	
6747	0	33053	
6748	0	32732	
6749	0	32760	
6750	0	32938	
6751	0	33064	
6752	0	32744	
6753	0	32760	
6754	0	32946	
6755	0	33060	
6756	0	32736	
6757	0	32760	
6758	0	32944	
6759	0	33062	
6760	0	32732	
6761	0	32760	
6762	0	32956	
6763	0	33064	
6764	0	32750	
6765	0	32760	
6766	0	32952	
6767	0	33064	
6768	0	32730	
6769	0	32760	
6770	0	32944	
6771	0	33064	
6772	0	32744	
6773	0	32756	
6774	0	32949	
6775	0	33068	
6776	0	32744	
6777	0	32752	
6778	0	32946	
6779	0	33068	
6780	0	32737	
6781	0	32756	
6782	0	32946	
6783	0	33074	
6784	0	32754	
6785	0	32754	
6786	0	32946	
6787	0	33072	
6788	0	32740	
6789	0	32760	
6790	0	32944	
6791	0	33074	
6792	0	32748	
6793	0	32762	
6794	0	32952	
6795	0	33068	
6796	0	32744	
6797	0	32760	
6798	0	32940	
6799	0	33066	
6800	0	32744	
6801	0	32770	
6802	0	32948	
6803	0	33064	
6804	0	32740	
6805	0	32762	
6806	0	32944	
6807	0	33060	
6808	0	32740	
6809	0	32756	
6810	0	32944	
6811	0	33048	
6812	0	32736	
6813	0	32760	
6814	0	32962	
6815	0	33043	
6816	0	32722	
6817	0	32762	
6818	0	32948	
6819	0	33040	
6820	0	32720	
6821	0	32768	
6822	0	32956	
6823	0	33056	
6824	0	32744	
6825	0	32768	
6826	0	32952	
6827	0	33056	
6828	0	32732	
6829	0	32768	
6830	0	32952	
6831	0	33048	
6832	0	32736	
6833	0	32762	
6834	0	32944	
6835	0	33052	
6836	0	32724	
6837	0	32768	
6838	0	32952	
6839	0	33045	
6840	0	32744	
6841	0	32768	
6842	0	32967	
6843	0	33060	
6844	0	32744	
6845	0	32775	
6846	0	32960	
6847	0	33048	
6848	0	32728	
6849	0	32768	
6850	0	32952	
6851	0	33060	
6852	0	32724	
6853	0	32764	
6854	0	32956	
6855	0	33057	
6856	0	32736	
6857	0	32768	
6858	0	32948	
6859	0	33048	
6860	0	32736	
6861	0	32772	
6862	0	32968	
6863	0	33052	
6864	0	32730	
6865	0	32792	
6866	0	32974	
6867	0	33052	
6868	0	32736	
6869	0	32782	
6870	0	32976	
6871	0	33062	
6872	0	32744	
6873	0	32792	
6874	0	32978	
6875	0	33044	
6876	0	32740	
6877	0	32784	
6878	0	32968	
6879	0	33054	
6880	0	32736	
6881	0	32800	
6882	0	32980	
6883	0	33060	
6884	0	32744	
6885	0	32800	
6886	0	32984	
6887	0	33060	
6888	0	32752	
6889	0	32800	
6890	0	32984	
6891	0	33064	
6892	0	32749	
6893	0	32804	
6894	0	32982	
6895	0	33060	
6896	0	32740	
6897	0	32800	
6898	0	32976	
6899	0	33056	
6900	0	32744	
6901	0	32796	
6902	0	33004	
6903	0	33060	
6904	0	32756	
6905	0	32808	
6906	0	33000	
6907	0	33074	
6908	0	32752	
6909	0	32814	
6910	0	32998	
6911	0	33074	
6912	0	32756	
6913	0	32818	
6914	0	32996	
6915	0	33064	
6916	0	32756	
6917	0	32812	
6918	0	32996	
6919	0	33062	
6920	0	32758	
6921	0	32826	
6922	0	33008	
6923	0	33068	
6924	0	32760	
6925	0	32828	
6926	0	33010	
6927	0	33072	
6928	0	32768	
6929	0	32834	
6930	0	33020	
6931	0	33074	
6932	0	32762	
6933	0	32842	
6934	0	33024	
6935	0	33068	
6936	0	32772	
6937	0	32836	
6938	0	33008	
6939	0	33060	
6940	0	32752	
6941	0	32832	
6942	0	33026	
6943	0	33068	
6944	0	32760	
6945	0	32858	
6946	0	33032	
6947	0	33056	
6948	0	32760	
6949	0	32856	
6950	0	33044	
6951	0	33064	
6952	0	32762	
6953	0	32865	
6954	0	33045	
6955	0	33066	
6956	0	32766	
6957	0	32872	
6958	0	33044	
6959	0	33064	
6960	0	32760	
6961	0	32868	
6962	0	33060	
6963	0	33064	
6964	0	32775	
6965	0	32892	
6966	0	33056	
6967	0	33076	
6968	0	32756	
6969	0	32892	
6970	0	33065	
6971	0	33078	
6972	0	32775	
6973	0	32897	
6974	0	33064	
6975	0	33072	
6976	0	32768	
6977	0	32888	
6978	0	33060	
6979	0	33068	
6980	0	32774	
6981	0	32890	
6982	0	33082	
6983	0	33086	
6984	0	32776	
6985	0	32908	
6986	0	33076	
6987	0	33068	
6988	0	32774	
6989	0	32906	
6990	0	33068	
6991	0	33074	
6992	0	32776	
6993	0	32904	
6994	0	33092	
6995	0	33076	
6996	0	32770	
6997	0	32896	
6998	0	33064	
6999	0	33062	
7000	0	32774	
7001	0	32892	
7002	0	33072	
7003	0	33068	
7004	0	32774	
7005	0	32888	
7006	0	33068	
7007	0	33060	
7008	0	32770	
7009	0	32900	
7010	0	33088	
7011	0	33072	
7012	0	32784	
7013	0	32904	
7014	0	33080	
7015	0	33069	
7016	0	32772	
7017	0	32900	
7018	0	33072	
7019	0	33068	
7020	0	32770	
7021	0	32900	
7022	0	33072	
7023	0	33072	
7024	0	32775	
7025	0	32904	
7026	0	33080	
7027	0	33076	
7028	0	32774	
7029	0	32908	
7030	0	33080	
7031	0	33066	
7032	0	32774	
7033	0	32920	
7034	0	33088	
7035	0	33056	
7036	0	32768	
7037	0	32906	
7038	0	33081	
7039	0	33050	
7040	0	32754	
7041	0	32904	
7042	0	33088	
7043	0	33048	
7044	0	32760	
7045	0	32912	
7046	0	33090	
7047	0	33056	
7048	0	32760	
7049	0	32921	
7050	0	33092	
7051	0	33064	
7052	0	32768	
7053	0	32920	
7054	0	33092	
7055	0	33060	
7056	0	32768	
7057	0	32912	
7058	0	33096	
7059	0	33060	
7060	0	32768	
7061	0	32922	
7062	0	33088	
7063	0	33052	
7064	0	32764	
7065	0	32916	
7066	0	33092	
7067	0	33064	
7068	0	32768	
7069	0	32928	
7070	0	33100	
7071	0	33060	
7072	0	32775	
7073	0	32936	
7074	0	33108	
7075	0	33060	
7076	0	32784	
7077	0	32928	
7078	0	33112	
7079	0	33064	
7080	0	32774	
7081	0	32936	
7082	0	33120	
7083	0	33064	
7084	0	32789	
7085	0	32938	
7086	0	33112	
7087	0	33070	
7088	0	32768	
7089	0	32946	
7090	0	33118	
7091	0	33072	
7092	0	32788	
7093	0	32964	
7094	0	33129	
7095	0	33072	
7096	0	32780	
7097	0	32956	
7098	0	33124	
7099	0	33072	
7100	0	32780	
7101	0	32962	
7102	0	33126	
7103	0	33070	
7104	0	32784	
7105	0	32968	
7106	0	33136	
7107	0	33068	
7108	0	32796	
7109	0	32970	
7110	0	33144	
7111	0	33092	
7112	0	32806	
7113	0	32972	
7114	0	33148	
7115	0	33088	
7116	0	32793	
7117	0	32968	
7118	0	33152	
7119	0	33088	
7120	0	32808	
7121	0	32988	
7122	0	33152	
7123	0	33092	
7124	0	32812	
7125	0	32986	
7126	0	33144	
7127	0	33092	
7128	0	32800	
7129	0	32984	
7130	0	33156	
7131	0	33098	
7132	0	32812	
7133	0	32988	
7134	0	33160	
7135	0	33092	
7136	0	32804	
7137	0	32992	
7138	0	33154	
7139	0	33092	
7140	0	32812	
7141	0	32994	
7142	0	33164	
7143	0	33092	
7144	0	32817	
7145	0	32988	
7146	0	33156	
7147	0	33080	
7148	0	32792	
7149	0	32988	
7150	0	33164	
7151	0	33090	
7152	0	32800	
7153	0	33002	
7154	0	33176	
7155	0	33086	
7156	0	32808	
7157	0	33003	
7158	0	33164	
7159	0	33091	
7160	0	32796	
7161	0	33004	
7162	0	33176	
7163	0	33090	
7164	0	32804	
7165	0	32992	
7166	0	33164	
7167	0	33084	
7168	0	32792	
7169	0	32996	
7170	0	33164	
7171	0	33080	
7172	0	32804	
7173	0	32992	
7174	0	33164	
7175	0	33074	
7176	0	32794	
7177	0	33000	
7178	0	33164	
7179	0	33085	
7180	0	32792	
7181	0	33000	
7182	0	33180	
7183	0	33072	
7184	0	32793	
7185	0	32996	
7186	0	33160	
7187	0	33064	
7188	0	32782	
7189	0	32996	
7190	0	33166	
7191	0	33060	
7192	0	32788	
7193	0	33000	
7194	0	33176	
7195	0	33064	
7196	0	32784	
7197	0	33000	
7198	0	33174	
7199	0	33057	
7200	0	32784	
7201	0	33000	
7202	0	33174	
7203	0	33048	
7204	0	32780	
7205	0	32999	
7206	0	33156	
7207	0	33056	
7208	0	32772	
7209	0	32992	
7210	0	33168	
7211	0	33052	
7212	0	32774	
7213	0	33012	
7214	0	33172	
7215	0	33056	
7216	0	32775	
7217	0	33004	
7218	0	33172	
7219	0	33048	
7220	0	32772	
7221	0	33019	
7222	0	33182	
7223	0	33048	
7224	0	32774	
7225	0	32998	
7226	0	33168	
7227	0	33044	
7228	0	32754	
7229	0	32996	
7230	0	33168	
7231	0	33040	
7232	0	32760	
7233	0	33002	
7234	0	33162	
7235	0	33042	
7236	0	32764	
7237	0	33000	
7238	0	33168	
7239	0	33028	
7240	0	32770	
7241	0	33002	
7242	0	33168	
7243	0	33044	
7244	0	32774	
7245	0	33004	
7246	0	33168	
7247	0	33032	
7248	0	32774	
7249	0	33004	
7250	0	33161	
7251	0	33024	
7252	0	32772	
7253	0	33000	
7254	0	33170	
7255	0	33028	
7256	0	32775	
7257	0	33005	
7258	0	33156	
7259	0	33028	
7260	0	32760	
7261	0	33000	
7262	0	33176	
7263	0	33028	
7264	0	32775	
7265	0	33010	
7266	0	33166	
7267	0	33034	
7268	0	32762	
7269	0	32996	
7270	0	33164	
7271	0	33028	
7272	0	32764	
7273	0	33004	
7274	0	33170	
7275	0	33040	
7276	0	32768	
7277	0	33000	
7278	0	33162	
7279	0	33030	
7280	0	32772	
7281	0	33005	
7282	0	33172	
7283	0	33048	
7284	0	32792	
7285	0	33014	
7286	0	33176	
7287	0	33044	
7288	0	32775	
7289	0	33000	
7290	0	33176	
7291	0	33034	
7292	0	32783	
7293	0	33010	
7294	0	33168	
7295	0	33032	
7296	0	32775	
7297	0	33008	
7298	0	33176	
7299	0	33028	
7300	0	32780	
7301	0	33008	
7302	0	33186	
7303	0	33038	
7304	0	32780	
7305	0	33016	
7306	0	33184	
7307	0	33040	
7308	0	32775	
7309	0	33008	
7310	0	33180	
7311	0	33042	
7312	0	32780	
7313	0	33012	
7314	0	33180	
7315	0	33034	
7316	0	32782	
7317	0	33021	
7318	0	33168	
7319	0	33036	
7320	0	32784	
7321	0	33016	
7322	0	33187	
7323	0	33044	
7324	0	32802	
7325	0	33017	
7326	0	33176	
7327	0	33030	
7328	0	32784	
7329	0	33016	
7330	0	33180	
7331	0	33040	
7332	0	32788	
7333	0	33016	
7334	0	33180	
7335	0	33028	
7336	0	32792	
7337	0	33014	
7338	0	33170	
7339	0	33024	
7340	0	32780	
7341	0	33012	
7342	0	33180	
7343	0	33032	
7344	0	32797	
7345	0	33016	
7346	0	33172	
7347	0	33012	
7348	0	32792	
7349	0	33016	
7350	0	33172	
7351	0	33008	
7352	0	32793	
7353	0	33004	
7354	0	33180	
7355	0	33002	
7356	0	32780	
7357	0	33000	
7358	0	33164	
7359	0	33000	
7360	0	32786	
7361	0	33018	
7362	0	33177	
7363	0	33016	
7364	0	32792	
7365	0	33012	
7366	0	33166	
7367	0	33012	
7368	0	32786	
7369	0	33008	
7370	0	33164	
7371	0	33002	
7372	0	32784	
7373	0	33004	
7374	0	33168	
7375	0	32992	
7376	0	32775	
7377	0	33004	
7378	0	33162	
7379	0	32996	
7380	0	32780	
7381	0	32998	
7382	0	33168	
7383	0	32998	
7384	0	32792	
7385	0	33008	
7386	0	33168	
7387	0	32992	
7388	0	32790	
7389	0	33008	
7390	0	33172	
7391	0	32992	
7392	0	32804	
7393	0	33010	
7394	0	33160	
7395	0	32992	
7396	0	32788	
7397	0	33001	
7398	0	33160	
7399	0	32986	
7400	0	32792	
7401	0	33016	
7402	0	33172	
7403	0	32996	
7404	0	32808	
7405	0	33017	
7406	0	33188	
7407	0	32992	
7408	0	32802	
7409	0	33016	
7410	0	33176	
7411	0	32996	
7412	0	32802	
7413	0	33020	
7414	0	33180	
7415	0	32992	
7416	0	32800	
7417	0	33012	
7418	0	33172	
7419	0	32992	
7420	0	32801	
7421	0	33026	
7422	0	33180	
7423	0	32992	
7424	0	32808	
7425	0	33024	
7426	0	33194	
7427	0	32992	
7428	0	32808	
7429	0	33024	
7430	0	33192	
7431	0	32988	
7432	0	32820	
7433	0	33024	
7434	0	33188	
7435	0	32978	
7436	0	32812	
7437	0	33034	
7438	0	33184	
7439	0	32978	
7440	0	32812	
7441	0	33028	
7442	0	33188	
7443	0	32992	
7444	0	32824	
7445	0	33040	
7446	0	33194	
7447	0	32986	
7448	0	32828	
7449	0	33042	
7450	0	33200	
7451	0	32992	
7452	0	32828	
7453	0	33040	
7454	0	33192	
7455	0	32984	
7456	0	32832	
7457	0	33036	
7458	0	33185	
7459	0	32969	
7460	0	32832	
7461	0	33036	
7462	0	33188	
7463	0	32988	
7464	0	32828	
7465	0	33048	
7466	0	33204	
7467	0	32984	
7468	0	32832	
7469	0	33044	
7470	0	33202	
7471	0	32978	
7472	0	32836	
7473	0	33044	
7474	0	33200	
7475	0	32984	
7476	0	32820	
7477	0	33032	
7478	0	33184	
7479	0	32964	
7480	0	32824	
7481	0	33032	
7482	0	33196	
7483	0	32982	
7484	0	32834	
7485	0	33048	
7486	0	33196	
7487	0	32984	
7488	0	32830	
7489	0	33034	
7490	0	33196	
7491	0	32984	
7492	0	32820	
7493	0	33048	
7494	0	33184	
7495	0	32972	
7496	0	32832	
7497	0	33032	
7498	0	33192	
7499	0	32976	
7500	0	32828	
7501	0	33032	
7502	0	33196	
7503	0	32978	
7504	0	32836	
7505	0	33040	
7506	0	33202	
7507	0	32984	
7508	0	32814	
7509	0	33028	
7510	0	33200	
7511	0	32976	
7512	0	32836	
7513	0	33044	
7514	0	33196	
7515	0	32972	
7516	0	32820	
7517	0	33032	
7518	0	33184	
7519	0	32962	
7520	0	32824	
7521	0	33037	
7522	0	33200	
7523	0	32968	
7524	0	32832	
7525	0	33044	
7526	0	33184	
7527	0	32976	
7528	0	32832	
7529	0	33054	
7530	0	33202	
7531	0	32972	
7532	0	32842	
7533	0	33054	
7534	0	33218	
7535	0	32980	
7536	0	32848	
7537	0	33044	
7538	0	33200	
7539	0	32960	
7540	0	32848	
7541	0	33052	
7542	0	33210	
7543	0	32969	
7544	0	32848	
7545	0	33050	
7546	0	33216	
7547	0	32972	
7548	0	32844	
7549	0	33054	
7550	0	33202	
7551	0	32972	
7552	0	32848	
7553	0	33058	
7554	0	33218	
7555	0	32964	
7556	0	32860	
7557	0	33056	
7558	0	33208	
7559	0	32965	
7560	0	32856	
7561	0	33061	
7562	0	33220	
7563	0	32964	
7564	0	32858	
7565	0	33064	
7566	0	33220	
7567	0	32968	
7568	0	32864	
7569	0	33064	
7570	0	33216	
7571	0	32968	
7572	0	32864	
7573	0	33068	
7574	0	33232	
7575	0	32980	
7576	0	32868	
7577	0	33064	
7578	0	33228	
7579	0	32976	
7580	0	32868	
7581	0	33072	
7582	0	33226	
7583	0	32980	
7584	0	32868	
7585	0	33076	
7586	0	33220	
7587	0	32976	
7588	0	32864	
7589	0	33060	
7590	0	33224	
7591	0	32976	
7592	0	32872	
7593	0	33082	
7594	0	33224	
7595	0	32984	
7596	0	32876	
7597	0	33076	
7598	0	33224	
7599	0	32980	
7600	0	32864	
7601	0	33064	
7602	0	33226	
7603	0	32994	
7604	0	32865	
7605	0	33072	
7606	0	33224	
7607	0	32986	
7608	0	32868	
7609	0	33074	
7610	0	33236	
7611	0	32992	
7612	0	32876	
7613	0	33084	
7614	0	33234	
7615	0	32988	
7616	0	32874	
7617	0	33080	
7618	0	33228	
7619	0	32968	
7620	0	32872	
7621	0	33076	
7622	0	33238	
7623	0	32980	
7624	0	32884	
7625	0	33081	
7626	0	33228	
7627	0	32978	
7628	0	32878	
7629	0	33084	
7630	0	33236	
7631	0	32969	
7632	0	32890	
7633	0	33092	
7634	0	33244	
7635	0	32980	
7636	0	32886	
7637	0	33080	
7638	0	33228	
7639	0	32976	
7640	0	32868	
7641	0	33072	
7642	0	33232	
7643	0	32978	
7644	0	32888	
7645	0	33084	
7646	0	33236	
7647	0	32976	
7648	0	32872	
7649	0	33080	
7650	0	33232	
7651	0	32968	
7652	0	32890	
7653	0	33092	
7654	0	33248	
7655	0	32984	
7656	0	32888	
7657	0	33096	
7658	0	33252	
7659	0	32970	
7660	0	32896	
7661	0	33088	
7662	0	33250	
7663	0	32976	
7664	0	32888	
7665	0	33096	
7666	0	33244	
7667	0	32976	
7668	0	32882	
7669	0	33094	
7670	0	33241	
7671	0	32969	
7672	0	32897	
7673	0	33090	
7674	0	33248	
7675	0	32984	
7676	0	32896	
7677	0	33104	
7678	0	33253	
7679	0	32960	
7680	0	32896	
7681	0	33098	
7682	0	33258	
7683	0	32981	
7684	0	32908	
7685	0	33108	
7686	0	33248	
7687	0	32972	
7688	0	32897	
7689	0	33096	
7690	0	33248	
7691	0	32972	
7692	0	32914	
7693	0	33116	
7694	0	33272	
7695	0	32984	
7696	0	32920	
7697	0	33112	
7698	0	33262	
7699	0	32976	
7700	0	32918	
7701	0	33130	
7702	0	33276	
7703	0	32976	
7704	0	32924	
7705	0	33120	
7706	0	33266	
7707	0	32972	
7708	0	32926	
7709	0	33116	
7710	0	33264	
7711	0	32968	
7712	0	32922	
7713	0	33120	
7714	0	33274	
7715	0	32960	
7716	0	32930	
7717	0	33121	
7718	0	33266	
7719	0	32962	
7720	0	32930	
7721	0	33112	
7722	0	33272	
7723	0	32973	
7724	0	32924	
7725	0	33120	
7726	0	33268	
7727	0	32968	
7728	0	32928	
7729	0	33113	
7730	0	33256	
7731	0	32954	
7732	0	32924	
7733	0	33120	
7734	0	33276	
7735	0	32956	
7736	0	32928	
7737	0	33112	
7738	0	33264	
7739	0	32948	
7740	0	32932	
7741	0	33116	
7742	0	33280	
7743	0	32956	
7744	0	32932	
7745	0	33124	
7746	0	33272	
7747	0	32940	
7748	0	32928	
7749	0	33120	
7750	0	33276	
7751	0	32932	
7752	0	32928	
7753	0	33120	
7754	0	33272	
7755	0	32940	
7756	0	32928	
7757	0	33116	
7758	0	33256	
7759	0	32932	
7760	0	32930	
7761	0	33116	
7762	0	33264	
7763	0	32936	
7764	0	32928	
7765	0	33128	
7766	0	33256	
7767	0	32932	
7768	0	32924	
7769	0	33114	
7770	0	33248	
7771	0	32920	
7772	0	32929	
7773	0	33120	
7774	0	33244	
7775	0	32924	
7776	0	32928	
7777	0	33120	
7778	0	33248	
7779	0	32924	
7780	0	32932	
7781	0	33124	
7782	0	33249	
7783	0	32924	
7784	0	32938	
7785	0	33124	
7786	0	33248	
7787	0	32930	
7788	0	32932	
7789	0	33112	
7790	0	33244	
7791	0	32928	
7792	0	32938	
7793	0	33120	
7794	0	33248	
7795	0	32925	
7796	0	32928	
7797	0	33126	
7798	0	33244	
7799	0	32924	
7800	0	32936	
7801	0	33128	
7802	0	33248	
7803	0	32924	
7804	0	32944	
7805	0	33124	
7806	0	33250	
7807	0	32924	
7808	0	32936	
7809	0	33128	
7810	0	33240	
7811	0	32920	
7812	0	32944	
7813	0	33134	
7814	0	33240	
7815	0	32920	
7816	0	32946	
7817	0	33132	
7818	0	33228	
7819	0	32912	
7820	0	32948	
7821	0	33142	
7822	0	33244	
7823	0	32930	
7824	0	32960	
7825	0	33146	
7826	0	33244	
7827	0	32932	
7828	0	32952	
7829	0	33148	
7830	0	33232	
7831	0	32925	
7832	0	32961	
7833	0	33144	
7834	0	33234	
7835	0	32920	
7836	0	32952	
7837	0	33140	
7838	0	33224	
7839	0	32916	
7840	0	32960	
7841	0	33152	
7842	0	33240	
7843	0	32924	
7844	0	32970	
7845	0	33152	
7846	0	33240	
7847	0	32920	
7848	0	32966	
7849	0	33146	
7850	0	33240	
7851	0	32920	
7852	0	32968	
7853	0	33148	
7854	0	33236	
7855	0	32918	
7856	0	32960	
7857	0	33152	
7858	0	33232	
7859	0	32910	
7860	0	32974	
7861	0	33152	
7862	0	33232	
7863	0	32928	
7864	0	32989	
7865	0	33168	
7866	0	33234	
7867	0	32925	
7868	0	32970	
7869	0	33158	
7870	0	33232	
7871	0	32920	
7872	0	32978	
7873	0	33162	
7874	0	33228	
7875	0	32912	
7876	0	32970	
7877	0	33158	
7878	0	33220	
7879	0	32906	
7880	0	32976	
7881	0	33152	
7882	0	33226	
7883	0	32912	
7884	0	32982	
7885	0	33170	
7886	0	33222	
7887	0	32914	
7888	0	32982	
7889	0	33166	
7890	0	33226	
7891	0	32922	
7892	0	32984	
7893	0	33164	
7894	0	33229	
7895	0	32904	
7896	0	32988	
7897	0	33168	
7898	0	33224	
7899	0	32904	
7900	0	32996	
7901	0	33168	
7902	0	33222	
7903	0	32920	
7904	0	32996	
7905	0	33184	
7906	0	33228	
7907	0	32924	
7908	0	33000	
7909	0	33184	
7910	0	33221	
7911	0	32916	
7912	0	33006	
7913	0	33192	
7914	0	33235	
7915	0	32928	
7916	0	33008	
7917	0	33188	
7918	0	33216	
7919	0	32924	
7920	0	33024	
7921	0	33200	
7922	0	33226	
7923	0	32934	
7924	0	33038	
7925	0	33213	
7926	0	33224	
7927	0	32928	
7928	0	33028	
7929	0	33216	
7930	0	33240	
7931	0	32934	
7932	0	33046	
7933	0	33228	
7934	0	33234	
7935	0	32933	
7936	0	33040	
7937	0	33212	
7938	0	33224	
7939	0	32930	
7940	0	33056	
7941	0	33232	
7942	0	33240	
7943	0	32946	
7944	0	33062	
7945	0	33245	
7946	0	33234	
7947	0	32940	
7948	0	33056	
7949	0	33242	
7950	0	33234	
7951	0	32948	
7952	0	33076	
7953	0	33250	
7954	0	33244	
7955	0	32944	
7956	0	33068	
7957	0	33249	
7958	0	33248	
7959	0	32949	
7960	0	33068	
7961	0	33252	
7962	0	33256	
7963	0	32952	
7964	0	33080	
7965	0	33260	
7966	0	33256	
7967	0	32954	
7968	0	33088	
7969	0	33256	
7970	0	33256	
7971	0	32962	
7972	0	33085	
7973	0	33252	
7974	0	33249	
7975	0	32964	
7976	0	33076	
7977	0	33257	
7978	0	33248	
7979	0	32956	
7980	0	33081	
7981	0	33264	
7982	0	33248	
7983	0	32964	
7984	0	33096	
7985	0	33264	
7986	0	33258	
7987	0	32964	
7988	0	33083	
7989	0	33272	
7990	0	33258	
7991	0	32967	
7992	0	33096	
7993	0	33264	
7994	0	33264	
7995	0	32962	
7996	0	33096	
7997	0	33264	
7998	0	33248	
7999	0	32956	
8000	0	33088	
8001	0	33267	
8002	0	33252	
8003	0	32956	
8004	0	33104	
8005	0	33280	
8006	0	33248	
8007	0	32960	
8008	0	33104	
8009	0	33272	
8010	0	33252	
8011	0	32962	
8012	0	33098	
8013	0	33280	
8014	0	33256	
8015	0	32964	
8016	0	33112	
8017	0	33287	
8018	0	33248	
8019	0	32960	
8020	0	33108	
8021	0	33284	
8022	0	33244	
8023	0	32955	
8024	0	33112	
8025	0	33292	
8026	0	33253	
8027	0	32960	
8028	0	33112	
8029	0	33298	
8030	0	33244	
8031	0	32948	
8032	0	33120	
8033	0	33296	
8034	0	33240	
8035	0	32944	
8036	0	33113	
8037	0	33286	
8038	0	33224	
8039	0	32952	
8040	0	33112	
8041	0	33287	
8042	0	33232	
8043	0	32946	
8044	0	33122	
8045	0	33286	
8046	0	33228	
8047	0	32944	
8048	0	33120	
8049	0	33296	
8050	0	33232	
8051	0	32928	
8052	0	33124	
8053	0	33298	
8054	0	33228	
8055	0	32944	
8056	0	33121	
8057	0	33287	
8058	0	33212	
8059	0	32936	
8060	0	33120	
8061	0	33287	
8062	0	33216	
8063	0	32928	
8064	0	33112	
8065	0	33286	
8066	0	33210	
8067	0	32924	
8068	0	33116	
8069	0	33287	
8070	0	33216	
8071	0	32930	
8072	0	33124	
8073	0	33296	
8074	0	33210	
8075	0	32928	
8076	0	33121	
8077	0	33284	
8078	0	33208	
8079	0	32916	
8080	0	33116	
8081	0	33298	
8082	0	33192	
8083	0	32914	
8084	0	33120	
8085	0	33280	
8086	0	33192	
8087	0	32904	
8088	0	33124	
8089	0	33292	
8090	0	33192	
8091	0	32916	
8092	0	33132	
8093	0	33306	
8094	0	33196	
8095	0	32912	
8096	0	33134	
8097	0	33298	
8098	0	33184	
8099	0	32896	
8100	0	33124	
8101	0	33292	
8102	0	33192	
8103	0	32912	
8104	0	33132	
8105	0	33296	
8106	0	33184	
8107	0	32900	
8108	0	33129	
8109	0	33298	
8110	0	33178	
8111	0	32904	
8112	0	33144	
8113	0	33305	
8114	0	33184	
8115	0	32906	
8116	0	33144	
8117	0	33304	
8118	0	33184	
8119	0	32904	
8120	0	33144	
8121	0	33312	
8122	0	33182	
8123	0	32904	
8124	0	33140	
8125	0	33308	
8126	0	33184	
8127	0	32906	
8128	0	33128	
8129	0	33306	
8130	0	33188	
8131	0	32908	
8132	0	33150	
8133	0	33316	
8134	0	33184	
8135	0	32904	
8136	0	33140	
8137	0	33304	
8138	0	33188	
8139	0	32906	
8140	0	33144	
8141	0	33317	
8142	0	33192	
8143	0	32908	
8144	0	33158	
8145	0	33328	
8146	0	33184	
8147	0	32912	
8148	0	33152	
8149	0	33322	
8150	0	33190	
8151	0	32924	
8152	0	33160	
8153	0	33326	
8154	0	33192	
8155	0	32920	
8156	0	33152	
8157	0	33324	
8158	0	33192	
8159	0	32912	
8160	0	33164	
8161	0	33324	
8162	0	33196	
8163	0	32924	
8164	0	33168	
8165	0	33328	
8166	0	33200	
8167	0	32920	
8168	0	33156	
8169	0	33326	
8170	0	33200	
8171	0	32932	
8172	0	33165	
8173	0	33328	
8174	0	33188	
8175	0	32932	
8176	0	33163	
8177	0	33330	
8178	0	33182	
8179	0	32940	
8180	0	33168	
8181	0	33330	
8182	0	33184	
8183	0	32936	
8184	0	33164	
8185	0	33339	
8186	0	33180	
8187	0	32936	
8188	0	33177	
8189	0	33328	
8190	0	33180	
8191	0	32940	
8192	0	33168	
8193	0	33341	
8194	0	33192	
8195	0	32940	
8196	0	33170	
8197	0	33336	
8198	0	33172	
8199	0	32945	
8200	0	33177	
8201	0	33336	
8202	0	33188	
8203	0	32952	
8204	0	33180	
8205	0	33336	
8206	0	33176	
8207	0	32936	
8208	0	33156	
8209	0	33330	
8210	0	33168	
8211	0	32947	
8212	0	33176	
8213	0	33338	
8214	0	33180	
8215	0	32952	
8216	0	33165	
8217	0	33336	
8218	0	33164	
8219	0	32960	
8220	0	33166	
8221	0	33340	
8222	0	33170	
8223	0	32948	
8224	0	33170	
8225	0	33340	
8226	0	33168	
8227	0	32952	
8228	0	33172	
8229	0	33328	
8230	0	33160	
8231	0	32946	
8232	0	33176	
8233	0	33336	
8234	0	33168	
8235	0	32944	
8236	0	33176	
8237	0	33332	
8238	0	33160	
8239	0	32948	
8240	0	33176	
8241	0	33340	
8242	0	33168	
8243	0	32954	
8244	0	33168	
8245	0	33340	
8246	0	33152	
8247	0	32948	
8248	0	33165	
8249	0	33336	
8250	0	33144	
8251	0	32946	
8252	0	33180	
8253	0	33338	
8254	0	33156	
8255	0	32966	
8256	0	33172	
8257	0	33341	
8258	0	33152	
8259	0	32964	
8260	0	33172	
8261	0	33336	
8262	0	33152	
8263	0	32962	
8264	0	33184	
8265	0	33344	
8266	0	33157	
8267	0	32958	
8268	0	33170	
8269	0	33336	
8270	0	33146	
8271	0	32960	
8272	0	33188	
8273	0	33337	
8274	0	33140	
8275	0	32968	
8276	0	33180	
8277	0	33339	
8278	0	33128	
8279	0	32960	
8280	0	33176	
8281	0	33344	
8282	0	33138	
8283	0	32974	
8284	0	33184	
8285	0	33338	
8286	0	33132	
8287	0	32960	
8288	0	33172	
8289	0	33332	
8290	0	33124	
8291	0	32976	
8292	0	33180	
8293	0	33336	
8294	0	33124	
8295	0	32964	
8296	0	33174	
8297	0	33332	
8298	0	33104	
8299	0	32960	
8300	0	33177	
8301	0	33338	
8302	0	33120	
8303	0	32972	
8304	0	33188	
8305	0	33344	
8306	0	33114	
8307	0	32968	
8308	0	33178	
8309	0	33336	
8310	0	33098	
8311	0	32973	
8312	0	33176	
8313	0	33338	
8314	0	33096	
8315	0	32969	
8316	0	33164	
8317	0	33328	
8318	0	33090	
8319	0	32962	
8320	0	33162	
8321	0	33330	
8322	0	33092	
8323	0	32972	
8324	0	33180	
8325	0	33338	
8326	0	33092	
8327	0	32961	
8328	0	33164	
8329	0	33326	
8330	0	33080	
8331	0	32964	
8332	0	33160	
8333	0	33331	
8334	0	33088	
8335	0	32962	
8336	0	33172	
8337	0	33320	
8338	0	33078	
8339	0	32960	
8340	0	33172	
8341	0	33320	
8342	0	33084	
8343	0	32980	
8344	0	33172	
8345	0	33336	
8346	0	33080	
8347	0	32964	
8348	0	33164	
8349	0	33330	
8350	0	33074	
8351	0	32972	
8352	0	33168	
8353	0	33326	
8354	0	33072	
8355	0	32952	
8356	0	33166	
8357	0	33330	
8358	0	33068	
8359	0	32960	
8360	0	33164	
8361	0	33330	
8362	0	33060	
8363	0	32960	
8364	0	33168	
8365	0	33326	
8366	0	33064	
8367	0	32971	
8368	0	33164	
8369	0	33328	
8370	0	33066	
8371	0	32976	
8372	0	33180	
8373	0	33329	
8374	0	33068	
8375	0	32972	
8376	0	33172	
8377	0	33324	
8378	0	33061	
8379	0	32970	
8380	0	33184	
8381	0	33328	
8382	0	33058	
8383	0	32976	
8384	0	33174	
8385	0	33329	
8386	0	33058	
8387	0	32968	
8388	0	33170	
8389	0	33324	
8390	0	33060	
8391	0	32976	
8392	0	33174	
8393	0	33332	
8394	0	33060	
8395	0	32972	
8396	0	33172	
8397	0	33328	
8398	0	33058	
8399	0	32964	
8400	0	33168	
8401	0	33336	
8402	0	33060	
8403	0	32988	
8404	0	33182	
8405	0	33339	
8406	0	33064	
8407	0	32985	
8408	0	33176	
8409	0	33336	
8410	0	33064	
8411	0	32988	
8412	0	33190	
8413	0	33344	
8414	0	33064	
8415	0	32992	
8416	0	33188	
8417	0	33329	
8418	0	33048	
8419	0	32980	
8420	0	33170	
8421	0	33330	
8422	0	33052	
8423	0	32988	
8424	0	33192	
8425	0	33338	
8426	0	33050	
8427	0	32986	
8428	0	33193	
8429	0	33336	
8430	0	33060	
8431	0	32998	
8432	0	33197	
8433	0	33338	
8434	0	33060	
8435	0	32992	
8436	0	33188	
8437	0	33340	
8438	0	33050	
8439	0	32980	
8440	0	33180	
8441	0	33328	
8442	0	33060	
8443	0	32992	
8444	0	33184	
8445	0	33344	
8446	0	33060	
8447	0	32992	
8448	0	33188	
8449	0	33352	
8450	0	33060	
8451	0	32996	
8452	0	33196	
8453	0	33360	
8454	0	33072	
8455	0	33000	
8456	0	33200	
8457	0	33344	
8458	0	33056	
8459	0	32992	
8460	0	33192	
8461	0	33344	
8462	0	33068	
8463	0	33004	
8464	0	33200	
8465	0	33362	
8466	0	33072	
8467	0	33008	
8468	0	33204	
8469	0	33360	
8470	0	33074	
8471	0	33006	
8472	0	33208	
8473	0	33372	
8474	0	33080	
8475	0	33017	
8476	0	33208	
8477	0	33368	
8478	0	33065	
8479	0	33008	
8480	0	33210	
8481	0	33362	
8482	0	33064	
8483	0	33020	
8484	0	33220	
8485	0	33372	
8486	0	33068	
8487	0	33020	
8488	0	33211	
8489	0	33366	
8490	0	33064	
8491	0	33020	
8492	0	33216	
8493	0	33377	
8494	0	33074	
8495	0	33012	
8496	0	33216	
8497	0	33370	
8498	0	33052	
8499	0	33008	
8500	0	33208	
8501	0	33360	
8502	0	33052	
8503	0	33016	
8504	0	33211	
8505	0	33366	
8506	0	33060	
8507	0	33008	
8508	0	33212	
8509	0	33360	
8510	0	33056	
8511	0	33026	
8512	0	33220	
8513	0	33372	
8514	0	33058	
8515	0	33024	
8516	0	33212	
8517	0	33360	
8518	0	33048	
8519	0	33008	
8520	0	33208	
8521	0	33356	
8522	0	33050	
8523	0	33018	
8524	0	33208	
8525	0	33364	
8526	0	33032	
8527	0	33024	
8528	0	33216	
8529	0	33372	
8530	0	33038	
8531	0	33028	
8532	0	33216	
8533	0	33368	
8534	0	33028	
8535	0	33018	
8536	0	33212	
8537	0	33348	
8538	0	33016	
8539	0	33016	
8540	0	33204	
8541	0	33350	
8542	0	33024	
8543	0	33026	
8544	0	33210	
8545	0	33344	
8546	0	33016	
8547	0	33024	
8548	0	33216	
8549	0	33338	
8550	0	33016	
8551	0	33032	
8552	0	33218	
8553	0	33336	
8554	0	33034	
8555	0	33036	
8556	0	33226	
8557	0	33346	
8558	0	33022	
8559	0	33032	
8560	0	33212	
8561	0	33332	
8562	0	33018	
8563	0	33032	
8564	0	33216	
8565	0	33332	
8566	0	33000	
8567	0	33040	
8568	0	33224	
8569	0	33330	
8570	0	33024	
8571	0	33044	
8572	0	33234	
8573	0	33336	
8574	0	33028	
8575	0	33056	
8576	0	33230	
8577	0	33334	
8578	0	33012	
8579	0	33036	
8580	0	33228	
8581	0	33328	
8582	0	33006	
8583	0	33048	
8584	0	33241	
8585	0	33336	
8586	0	33004	
8587	0	33049	
8588	0	33234	
8589	0	33328	
8590	0	33010	
8591	0	33057	
8592	0	33248	
8593	0	33337	
8594	0	33022	
8595	0	33074	
8596	0	33248	
8597	0	33328	
8598	0	33016	
8599	0	33060	
8600	0	33249	
8601	0	33328	
8602	0	33018	
8603	0	33074	
8604	0	33256	
8605	0	33336	
8606	0	33012	
8607	0	33076	
8608	0	33262	
8609	0	33322	
8610	0	33016	
8611	0	33080	
8612	0	33264	
8613	0	33322	
8614	0	33008	
