# OpenSignals Text File Format
# {"00:07:80:4D:2E:AD": {"sensor": ["EMG", "EMG", "XYZ"], "device name": "00:07:80:4D:2E:AD", "column": ["nSeq", "DI", "CH1", "CH2", "CH3"], "sync interval": 2, "time": "15:35:20.71", "comments": "stone | ch1_flexor_digitorum_superficialis ch2_aductor_policis ch3_acc_z [trial 3]", "device connection": "BTH00:07:80:4D:2E:AD", "channels": [1, 2, 3], "keywords": "", "mode": 0, "digital IO": [0, 1], "firmware version": 773, "device": "biosignalsplux", "position": 0, "sampling rate": 1000, "label": ["CH1", "CH2", "CH3"], "resolution": [16, 16, 16], "date": "2019-1-23", "special": [{}, {}, {}]}}
# EndOfHeader
0	0	33148	33384	35556	
1	0	33008	33053	35556	
2	0	32916	33192	35570	
3	0	32884	32944	35542	
4	0	32972	32608	35546	
5	0	33124	32415	35544	
6	0	32996	32481	35502	
7	0	32936	32582	35501	
8	0	32964	32887	35517	
9	0	32844	32934	35516	
10	0	32724	32980	35552	
11	0	32826	33066	35548	
12	0	32768	32956	35566	
13	0	32720	33058	35585	
14	0	32577	33040	35576	
15	0	32592	32912	35557	
16	0	32572	32728	35556	
17	0	32576	32839	35556	
18	0	32576	32744	35580	
19	0	32633	32680	35566	
20	0	32712	32773	35576	
21	0	32740	32738	35553	
22	0	32948	32728	35560	
23	0	33048	32888	35560	
24	0	33084	32676	35560	
25	0	33212	32641	35572	
26	0	33140	32615	35548	
27	0	32758	32702	35553	
28	0	32833	32762	35556	
29	0	32940	32793	35544	
30	0	32848	33086	35530	
31	0	32760	33036	35560	
32	0	32752	33070	35581	
33	0	32528	33052	35592	
34	0	32432	33112	35577	
35	0	32448	32957	35569	
36	0	32500	32630	35588	
37	0	32622	32644	35584	
38	0	32644	32706	35564	
39	0	32724	32739	35568	
40	0	32744	32760	35572	
41	0	32865	32782	35578	
42	0	32925	33018	35560	
43	0	32948	32816	35556	
44	0	32996	32734	35532	
45	0	32960	32661	35557	
46	0	33064	32684	35541	
47	0	32936	32656	35526	
48	0	32949	32757	35512	
49	0	32954	32919	35544	
50	0	32928	32921	35557	
51	0	32802	33084	35584	
52	0	32680	33009	35583	
53	0	32604	33229	35588	
54	0	32600	33121	35590	
55	0	32493	32968	35576	
56	0	32420	32841	35580	
57	0	32352	32748	35591	
58	0	32680	32669	35569	
59	0	32913	32574	35576	
60	0	32825	32686	35573	
61	0	32826	32697	35575	
62	0	32948	32820	35592	
63	0	33012	32878	35540	
64	0	33056	32640	35548	
65	0	32929	32649	35540	
66	0	32904	32613	35533	
67	0	32793	32628	35522	
68	0	32872	32684	35524	
69	0	32853	32750	35520	
70	0	32812	33009	35521	
71	0	32765	33084	35548	
72	0	32981	33238	35569	
73	0	32731	33028	35596	
74	0	32342	32924	35581	
75	0	32380	32888	35608	
76	0	32808	32838	35596	
77	0	32804	32754	35564	
78	0	32532	32874	35572	
79	0	33044	32724	35566	
80	0	32976	32689	35568	
81	0	32768	32661	35560	
82	0	32800	32788	35545	
83	0	32796	32980	35524	
84	0	33016	32612	35516	
85	0	32992	32616	35524	
86	0	32932	32742	35532	
87	0	32992	32806	35560	
88	0	32874	32736	35560	
89	0	32738	32838	35552	
90	0	32656	33030	35560	
91	0	32784	32896	35551	
92	0	32832	33162	35540	
93	0	32697	33116	35572	
94	0	32700	32935	35538	
95	0	32852	32856	35548	
96	0	32604	32828	35532	
97	0	32150	32902	35529	
98	0	31957	32704	35532	
99	0	32330	32664	35538	
100	0	32564	32622	35536	
101	0	33048	32492	35531	
102	0	33181	32676	35532	
103	0	33012	32928	35543	
104	0	32996	32982	35524	
105	0	32924	32806	35538	
106	0	32960	32770	35540	
107	0	33048	32848	35528	
108	0	33109	32750	35542	
109	0	33118	32485	35536	
110	0	33108	32417	35546	
111	0	32799	32912	35532	
112	0	32664	33150	35538	
113	0	32560	33399	35528	
114	0	32440	32996	35540	
115	0	32540	32796	35522	
116	0	32541	32837	35544	
117	0	32544	32884	35550	
118	0	32480	32856	35556	
119	0	32548	32760	35544	
120	0	32736	32753	35556	
121	0	32856	32813	35548	
122	0	32956	32852	35573	
123	0	33016	32912	35584	
124	0	33005	32792	35548	
125	0	33050	32665	35568	
126	0	33056	32839	35568	
127	0	32984	32809	35562	
128	0	32908	32768	35572	
129	0	32893	32796	35560	
130	0	32794	32720	35544	
131	0	32788	32848	35568	
132	0	32808	32917	35561	
133	0	32664	33136	35584	
134	0	32464	32874	35574	
135	0	32476	32854	35564	
136	0	32564	32720	35580	
137	0	32542	32624	35564	
138	0	32664	32621	35553	
139	0	32732	32841	35528	
140	0	32744	32740	35524	
141	0	32760	32924	35512	
142	0	32960	32948	35512	
143	0	32896	32950	35552	
144	0	32868	32804	35556	
145	0	32888	32774	35536	
146	0	33249	32796	35552	
147	0	33212	32804	35558	
148	0	33040	32728	35560	
149	0	32924	32887	35565	
150	0	32748	32932	35552	
151	0	32690	32856	35572	
152	0	32608	33102	35574	
153	0	32438	33064	35560	
154	0	32484	33020	35544	
155	0	32484	32874	35544	
156	0	32457	32874	35548	
157	0	32584	32725	35564	
158	0	32716	32753	35572	
159	0	32838	32800	35560	
160	0	32786	32668	35556	
161	0	32680	32741	35540	
162	0	32836	32588	35544	
163	0	32945	32780	35545	
164	0	32996	32598	35545	
165	0	33052	32668	35568	
166	0	33028	32745	35561	
167	0	33082	32624	35568	
168	0	33386	32788	35556	
169	0	33120	32788	35556	
170	0	32700	33062	35541	
171	0	32556	33016	35560	
172	0	32564	33179	35570	
173	0	32541	33014	35577	
174	0	32628	32700	35596	
175	0	32392	32724	35596	
176	0	32615	32644	35600	
177	0	32658	32631	35591	
178	0	32648	33022	35553	
179	0	32545	33140	35560	
180	0	32656	32972	35554	
181	0	32764	32990	35544	
182	0	32880	32892	35567	
183	0	33321	32800	35558	
184	0	33412	32644	35536	
185	0	33032	32728	35516	
186	0	32750	32674	35544	
187	0	32832	32797	35536	
188	0	32912	32809	35560	
189	0	33076	32865	35556	
190	0	32813	32968	35552	
191	0	32456	32893	35572	
192	0	32448	32983	35564	
193	0	32568	33132	35560	
194	0	32588	32902	35554	
195	0	32572	32860	35568	
196	0	32623	32850	35564	
197	0	32538	32692	35544	
198	0	32592	32778	35552	
199	0	32664	32820	35558	
200	0	32768	32700	35533	
201	0	32888	32700	35536	
202	0	32940	32832	35544	
203	0	33148	32968	35546	
204	0	33092	32683	35534	
205	0	33048	32693	35516	
206	0	32996	32720	35540	
207	0	33070	32689	35552	
208	0	32996	32849	35548	
209	0	32924	32972	35561	
210	0	32765	32805	35568	
211	0	32596	32837	35577	
212	0	32464	32804	35576	
213	0	32337	32920	35581	
214	0	32500	32772	35570	
215	0	32900	32844	35557	
216	0	32766	32872	35559	
217	0	32641	32896	35537	
218	0	32705	32944	35550	
219	0	32744	32752	35540	
220	0	32748	32742	35555	
221	0	32792	32760	35555	
222	0	32864	32716	35546	
223	0	32960	32461	35548	
224	0	32920	32575	35542	
225	0	33096	32668	35540	
226	0	32940	32708	35552	
227	0	32972	32745	35566	
228	0	32932	32911	35557	
229	0	32988	32916	35560	
230	0	32832	32928	35556	
231	0	32760	33302	35585	
232	0	32672	33308	35596	
233	0	32600	32960	35604	
234	0	32573	32491	35573	
235	0	32524	32593	35588	
236	0	32452	32884	35578	
237	0	32558	32832	35569	
238	0	32664	32799	35567	
239	0	32728	32808	35532	
240	0	32756	32922	35548	
241	0	32880	32784	35552	
242	0	33000	32794	35546	
243	0	33093	32696	35548	
244	0	33092	32718	35540	
245	0	33080	32625	35525	
246	0	33048	32657	35532	
247	0	32986	32764	35508	
248	0	32900	32800	35530	
249	0	32688	32876	35525	
250	0	32608	33194	35552	
251	0	32584	33300	35566	
252	0	32812	33186	35558	
253	0	32792	33144	35586	
254	0	32640	32900	35596	
255	0	32525	32764	35576	
256	0	32388	32570	35577	
257	0	32408	32571	35577	
258	0	32884	32813	35558	
259	0	32845	32878	35544	
260	0	32869	32768	35540	
261	0	32776	32712	35536	
262	0	33004	32763	35552	
263	0	33004	32668	35544	
264	0	33001	32660	35565	
265	0	32996	32672	35532	
266	0	33006	32516	35548	
267	0	32940	32639	35548	
268	0	32812	32902	35532	
269	0	32476	32856	35566	
270	0	32560	32741	35590	
271	0	32873	32797	35592	
272	0	32864	32692	35568	
273	0	32660	33092	35576	
274	0	32816	33144	35576	
275	0	32872	33292	35576	
276	0	32528	33352	35572	
277	0	32464	33108	35567	
278	0	32476	32920	35566	
279	0	32506	32804	35573	
280	0	32644	32756	35552	
281	0	32880	32604	35565	
282	0	32944	32764	35556	
283	0	32964	32884	35548	
284	0	33008	32638	35536	
285	0	33124	32594	35540	
286	0	33092	32684	35540	
287	0	33092	32620	35568	
288	0	33128	32739	35573	
289	0	32900	32889	35586	
290	0	32577	32902	35572	
291	0	32520	33119	35565	
292	0	32652	33052	35576	
293	0	32704	33055	35589	
294	0	32588	32920	35573	
295	0	32468	32928	35569	
296	0	32481	32775	35581	
297	0	32628	32772	35568	
298	0	32628	32676	35560	
299	0	32556	32548	35570	
300	0	32636	32686	35568	
301	0	32888	32744	35559	
302	0	33008	32908	35546	
303	0	33104	32724	35536	
304	0	33000	32630	35541	
305	0	32996	32577	35536	
306	0	32964	32544	35549	
307	0	33016	32580	35556	
308	0	33028	32784	35549	
309	0	32940	32892	35557	
310	0	32820	32948	35559	
311	0	32716	33008	35572	
312	0	32672	33049	35572	
313	0	32588	33176	35572	
314	0	32489	33121	35567	
315	0	32448	33021	35556	
316	0	32546	32890	35556	
317	0	32597	32796	35548	
318	0	32640	32792	35534	
319	0	32720	32869	35524	
320	0	32804	32764	35528	
321	0	32908	32601	35528	
322	0	32876	32869	35520	
323	0	32924	32657	35532	
324	0	33015	32573	35533	
325	0	33049	32612	35536	
326	0	33036	32689	35536	
327	0	32948	32852	35524	
328	0	32972	32847	35520	
329	0	32949	32964	35549	
330	0	32896	33031	35560	
331	0	32724	33224	35568	
332	0	32704	33505	35574	
333	0	32612	33146	35559	
334	0	32607	32836	35564	
335	0	32636	32296	35556	
336	0	32568	32390	35569	
337	0	32452	32656	35559	
338	0	32326	32816	35528	
339	0	32460	32968	35550	
340	0	32920	32916	35532	
341	0	33104	32912	35540	
342	0	32868	32852	35530	
343	0	32780	32941	35532	
344	0	32848	32767	35536	
345	0	33300	32740	35542	
346	0	33269	32789	35552	
347	0	33052	32749	35541	
348	0	32958	32887	35540	
349	0	32948	32924	35552	
350	0	32824	32836	35554	
351	0	32724	32873	35572	
352	0	32662	32740	35576	
353	0	32423	32892	35576	
354	0	32406	32650	35584	
355	0	32440	32845	35576	
356	0	32570	32700	35576	
357	0	32524	32762	35572	
358	0	32396	32972	35572	
359	0	32504	33213	35554	
360	0	32608	33248	35524	
361	0	32845	32954	35540	
362	0	33196	33034	35556	
363	0	33316	32824	35544	
364	0	33416	32358	35556	
365	0	33072	32282	35556	
366	0	32906	32384	35530	
367	0	32784	32537	35548	
368	0	32704	32684	35538	
369	0	32832	32839	35524	
370	0	32788	33008	35520	
371	0	32992	32880	35556	
372	0	33200	33037	35574	
373	0	33044	33053	35584	
374	0	32541	33040	35589	
375	0	32281	33096	35572	
376	0	32237	32996	35564	
377	0	32400	32769	35552	
378	0	32456	32822	35568	
379	0	32686	32928	35578	
380	0	32756	32608	35548	
381	0	32668	32625	35546	
382	0	32892	32550	35536	
383	0	32964	32900	35544	
384	0	33048	32684	35525	
385	0	33076	32824	35536	
386	0	32968	32648	35556	
387	0	33004	32670	35544	
388	0	32993	32888	35568	
389	0	32928	32860	35557	
390	0	32780	32932	35568	
391	0	32704	33000	35580	
392	0	32784	33108	35560	
393	0	32613	33026	35564	
394	0	32600	32944	35546	
395	0	32508	32999	35548	
396	0	32486	32940	35545	
397	0	32532	32778	35552	
398	0	32624	32722	35560	
399	0	32716	32713	35553	
400	0	32748	32636	35566	
401	0	32830	32608	35564	
402	0	32868	32839	35546	
403	0	33000	32681	35540	
404	0	32956	32730	35528	
405	0	33000	32636	35525	
406	0	33140	32662	35519	
407	0	32988	32804	35508	
408	0	33028	32768	35505	
409	0	33052	32939	35521	
410	0	32857	33092	35553	
411	0	32752	33076	35573	
412	0	32753	33056	35564	
413	0	32548	33217	35580	
414	0	32420	33000	35576	
415	0	32377	32952	35560	
416	0	32532	32889	35556	
417	0	32600	32884	35546	
418	0	32601	32760	35540	
419	0	32646	32766	35538	
420	0	32768	32574	35552	
421	0	32908	32748	35544	
422	0	32994	32662	35544	
423	0	32988	32466	35544	
424	0	32992	32560	35538	
425	0	33057	32576	35559	
426	0	33120	32591	35548	
427	0	33096	32764	35552	
428	0	33069	32852	35560	
429	0	33060	32974	35552	
430	0	32936	33075	35548	
431	0	32708	33088	35552	
432	0	32644	33176	35568	
433	0	32652	33028	35582	
434	0	32536	32960	35586	
435	0	32492	32909	35568	
436	0	32558	32686	35546	
437	0	32588	32828	35556	
438	0	32568	32815	35560	
439	0	32536	32782	35560	
440	0	32480	32856	35557	
441	0	32612	32684	35549	
442	0	32716	32760	35524	
443	0	32631	32826	35534	
444	0	32964	32649	35524	
445	0	33396	32632	35537	
446	0	33169	32812	35550	
447	0	33161	33068	35530	
448	0	33000	33124	35536	
449	0	33048	32676	35533	
450	0	32909	32504	35568	
451	0	32978	32496	35556	
452	0	32694	32956	35586	
453	0	32640	33072	35593	
454	0	32588	33188	35560	
455	0	32752	33050	35556	
456	0	32822	32784	35568	
457	0	32506	32906	35554	
458	0	32444	32757	35560	
459	0	32468	32744	35551	
460	0	32672	32793	35532	
461	0	32632	32720	35536	
462	0	32768	32909	35556	
463	0	32909	32750	35537	
464	0	32972	32684	35520	
465	0	33028	32639	35554	
466	0	33036	32657	35540	
467	0	32936	32681	35518	
468	0	32984	32834	35536	
469	0	33012	32784	35556	
470	0	32900	32900	35544	
471	0	32708	32972	35548	
472	0	32620	32928	35544	
473	0	32452	33053	35551	
474	0	32548	33127	35576	
475	0	32282	32952	35578	
476	0	32220	32858	35576	
477	0	32496	32836	35552	
478	0	32917	32871	35570	
479	0	32948	32774	35564	
480	0	32916	32788	35556	
481	0	32856	32741	35572	
482	0	32898	32884	35574	
483	0	32940	32785	35576	
484	0	33032	32630	35573	
485	0	33042	32686	35568	
486	0	32998	32561	35556	
487	0	33005	32528	35541	
488	0	32997	32661	35560	
489	0	33008	32781	35544	
490	0	32800	32980	35548	
491	0	32752	33131	35584	
492	0	32668	33060	35577	
493	0	32608	33336	35594	
494	0	32520	33116	35615	
495	0	32614	33008	35578	
496	0	32514	32804	35584	
497	0	32544	32541	35591	
498	0	32550	32320	35573	
499	0	32664	32516	35568	
500	0	32740	32599	35540	
501	0	32740	32736	35501	
502	0	32928	32932	35536	
503	0	32952	33028	35522	
504	0	32980	32839	35520	
505	0	33036	32734	35538	
506	0	32992	33039	35549	
507	0	32920	32866	35556	
508	0	33009	32837	35548	
509	0	32992	32874	35556	
510	0	32964	32958	35557	
511	0	32860	32976	35572	
512	0	32676	32806	35564	
513	0	32572	32960	35566	
514	0	32424	32913	35556	
515	0	32454	32908	35536	
516	0	32484	32657	35552	
517	0	32565	32680	35549	
518	0	32568	32764	35556	
519	0	32760	32737	35566	
520	0	32830	32706	35556	
521	0	32892	32854	35542	
522	0	32832	32869	35528	
523	0	32884	32768	35548	
524	0	33020	32688	35572	
525	0	33012	32741	35564	
526	0	33012	32612	35554	
527	0	33037	32489	35540	
528	0	32968	32564	35556	
529	0	32948	32828	35561	
530	0	32789	32870	35556	
531	0	32736	33088	35538	
532	0	32760	33110	35556	
533	0	32656	32868	35564	
534	0	32592	33124	35553	
535	0	32476	33356	35576	
536	0	32524	32909	35577	
537	0	32584	32672	35565	
538	0	32376	32608	35556	
539	0	32372	32878	35567	
540	0	32605	33042	35564	
541	0	32824	32724	35548	
542	0	33064	32738	35540	
543	0	33020	32548	35528	
544	0	33048	32477	35536	
545	0	33084	32598	35532	
546	0	33124	32837	35528	
547	0	33093	32740	35538	
548	0	33060	32889	35548	
549	0	33026	32988	35552	
550	0	32852	32998	35570	
551	0	32776	33049	35566	
552	0	32716	32993	35560	
553	0	32644	32991	35548	
554	0	32496	32925	35565	
555	0	32396	32847	35556	
556	0	32328	32849	35553	
557	0	32508	32768	35560	
558	0	32692	32813	35540	
559	0	32712	32636	35537	
560	0	32768	32608	35532	
561	0	32932	32678	35522	
562	0	33320	32687	35540	
563	0	33076	32753	35540	
564	0	33053	32677	35522	
565	0	32800	32720	35525	
566	0	32824	32670	35542	
567	0	32812	32888	35554	
568	0	32897	32878	35567	
569	0	33144	32956	35569	
570	0	32996	32968	35562	
571	0	32760	32993	35576	
572	0	32632	33040	35596	
573	0	32532	33214	35593	
574	0	32500	33044	35604	
575	0	32474	33039	35604	
576	0	32552	32764	35588	
577	0	32538	32720	35578	
578	0	32548	32748	35581	
579	0	32544	32684	35554	
580	0	32724	32720	35552	
581	0	32836	32736	35530	
582	0	32884	32760	35526	
583	0	33016	32876	35546	
584	0	33076	32765	35572	
585	0	33032	32676	35560	
586	0	33056	32645	35564	
587	0	33016	32769	35556	
588	0	32940	32752	35554	
589	0	32868	32743	35580	
590	0	32916	32920	35588	
591	0	32908	33000	35572	
592	0	32760	32974	35552	
593	0	32580	33092	35576	
594	0	32528	33017	35592	
595	0	32536	32808	35604	
596	0	32592	32732	35581	
597	0	32465	32806	35564	
598	0	32548	32820	35556	
599	0	32584	32879	35556	
600	0	32876	32672	35582	
601	0	32940	32724	35544	
602	0	32920	32792	35552	
603	0	32884	32792	35540	
604	0	33024	32674	35532	
605	0	33106	32660	35534	
606	0	33036	32580	35545	
607	0	32872	32693	35525	
608	0	32852	32645	35540	
609	0	32908	32856	35541	
610	0	32893	32988	35556	
611	0	32696	32940	35556	
612	0	32663	32974	35560	
613	0	32736	32996	35550	
614	0	32596	32580	35561	
615	0	32612	32888	35584	
616	0	32572	33102	35608	
617	0	32520	32964	35591	
618	0	32538	32948	35600	
619	0	32592	33257	35596	
620	0	32792	33294	35588	
621	0	32770	32575	35607	
622	0	32968	32364	35608	
623	0	33008	32564	35604	
624	0	32984	32500	35587	
625	0	32964	32864	35588	
626	0	32976	32853	35562	
627	0	33088	32604	35536	
628	0	33000	32765	35556	
629	0	32936	32854	35544	
630	0	32693	32791	35540	
631	0	32652	33084	35564	
632	0	32552	33345	35564	
633	0	32591	33188	35570	
634	0	32586	33167	35576	
635	0	32548	33222	35572	
636	0	32520	33244	35576	
637	0	32592	32734	35573	
638	0	32756	32494	35569	
639	0	32920	32481	35566	
640	0	33008	32522	35580	
641	0	32869	32617	35592	
642	0	32798	32757	35584	
643	0	32816	32656	35588	
644	0	32996	32756	35600	
645	0	32954	32895	35616	
646	0	32984	32822	35605	
647	0	33028	32626	35620	
648	0	33074	32644	35636	
649	0	32873	32794	35632	
650	0	32694	33064	35644	
651	0	32858	33346	35632	
652	0	32876	33256	35608	
653	0	32526	33348	35584	
654	0	32264	33009	35615	
655	0	32396	32796	35616	
656	0	32658	32697	35604	
657	0	32956	32608	35596	
658	0	32960	32593	35600	
659	0	33284	32479	35612	
660	0	33133	32516	35628	
661	0	32548	32484	35656	
662	0	33164	32588	35704	
663	0	33576	32556	35734	
664	0	33340	32680	35728	
665	0	32856	33064	35693	
666	0	32493	32808	35684	
667	0	31948	32789	35636	
668	0	31842	33068	35617	
669	0	32264	33184	35595	
670	0	32652	33085	35598	
671	0	32801	33068	35580	
672	0	33116	33136	35590	
673	0	33360	32964	35600	
674	0	33324	32953	35628	
675	0	32932	32838	35633	
676	0	32428	32968	35628	
677	0	32624	32956	35607	
678	0	32796	32818	35591	
679	0	32840	32903	35610	
680	0	33108	32756	35572	
681	0	33284	32734	35568	
682	0	33004	32608	35588	
683	0	32160	32468	35572	
684	0	30856	32205	35556	
685	0	31512	32280	35494	
686	0	31832	32652	35458	
687	0	32296	32904	35408	
688	0	33280	32913	35377	
689	0	33464	33256	35335	
690	0	33404	33393	35372	
691	0	33356	33236	35424	
692	0	33124	33152	35524	
693	0	32852	33402	35624	
694	0	32644	33238	35714	
695	0	32588	33015	35802	
696	0	32532	32968	35823	
697	0	32620	32708	35805	
698	0	32647	32430	35812	
699	0	32924	32522	35781	
700	0	33296	32592	35732	
701	0	33144	32540	35686	
702	0	33004	32568	35672	
703	0	33044	32396	35648	
704	0	32980	32585	35620	
705	0	32944	33076	35588	
706	0	32820	33180	35541	
707	0	32969	32965	35540	
708	0	33004	32902	35542	
709	0	32886	32752	35580	
710	0	32876	32636	35648	
711	0	32808	32751	35719	
712	0	32762	32970	35792	
713	0	32615	33152	35872	
714	0	32506	32872	35906	
715	0	32308	32738	35921	
716	0	32405	32636	35904	
717	0	32430	32704	35860	
718	0	32576	32993	35782	
719	0	32582	33003	35756	
720	0	32748	32998	35748	
721	0	32797	32902	35809	
722	0	32976	32942	35897	
723	0	33024	32652	35949	
724	0	32996	32783	35974	
725	0	33016	32804	35996	
726	0	33068	32963	35992	
727	0	33080	33013	35993	
728	0	32948	33144	35980	
729	0	33053	33028	35948	
730	0	33072	33132	35920	
731	0	32908	32900	35896	
732	0	32644	33020	35906	
733	0	32450	32983	35904	
734	0	32518	32708	35877	
735	0	32384	32805	35860	
736	0	32224	32757	35839	
737	0	32208	32868	35809	
738	0	32229	32988	35800	
739	0	32512	33004	35788	
740	0	33148	32944	35772	
741	0	33067	32873	35732	
742	0	32993	32699	35697	
743	0	32924	32767	35668	
744	0	32980	32640	35665	
745	0	32884	32576	35672	
746	0	33104	32812	35654	
747	0	32964	32546	35672	
748	0	33221	32512	35666	
749	0	33388	32628	35678	
750	0	33044	32820	35698	
751	0	32698	32942	35704	
752	0	32740	33182	35708	
753	0	32792	33238	35716	
754	0	32616	33094	35701	
755	0	32196	33068	35700	
756	0	31724	33114	35712	
757	0	32049	32945	35756	
758	0	32736	32734	35824	
759	0	32948	32440	35917	
760	0	32841	32357	35980	
761	0	32984	32532	36032	
762	0	32978	32487	36106	
763	0	32992	32646	36160	
764	0	32984	32632	36228	
765	0	32972	32420	36315	
766	0	33034	32672	36381	
767	0	33000	32760	36466	
768	0	33212	32916	36532	
769	0	33124	32908	36589	
770	0	32864	32652	36648	
771	0	32832	32292	36657	
772	0	32736	33010	36656	
773	0	32632	33281	36628	
774	0	32420	33060	36580	
775	0	32444	32916	36552	
776	0	32432	32784	36534	
777	0	32492	32660	36510	
778	0	32504	32644	36492	
779	0	32568	32572	36454	
780	0	32818	32452	36434	
781	0	32808	32360	36404	
782	0	32876	32744	36362	
783	0	32960	32884	36308	
784	0	33006	32944	36223	
785	0	33133	32854	36173	
786	0	33224	32796	36088	
787	0	32908	32700	36061	
788	0	32800	32889	36025	
789	0	32821	32745	36032	
790	0	32736	32728	36057	
791	0	32624	32468	36164	
792	0	32568	32272	36276	
793	0	32477	32384	36388	
794	0	32409	32613	36502	
795	0	32496	32785	36644	
796	0	32352	33248	36789	
797	0	32556	33096	36953	
798	0	32581	32740	37112	
799	0	32712	32150	37268	
800	0	32916	31495	37392	
801	0	32954	32368	37510	
802	0	33060	32976	37628	
803	0	33090	32262	37700	
804	0	33264	31993	37728	
805	0	33396	32300	37767	
806	0	33388	32800	37748	
807	0	33340	33112	37720	
808	0	33096	33173	37692	
809	0	32745	33487	37645	
810	0	32472	33916	37602	
811	0	32388	34020	37544	
812	0	32047	33804	37436	
813	0	32316	33452	37332	
814	0	32476	32632	37229	
815	0	31980	32286	37118	
816	0	32261	32146	37020	
817	0	32366	32248	36897	
818	0	32265	32468	36796	
819	0	32784	32640	36737	
820	0	33084	32708	36640	
821	0	33061	32516	36538	
822	0	33008	32629	36416	
823	0	33330	32316	36320	
824	0	33068	31724	36246	
825	0	33148	31440	36164	
826	0	33273	31804	36112	
827	0	33168	32245	36056	
828	0	33033	32573	36024	
829	0	32909	32840	35988	
830	0	32724	33260	35976	
831	0	32612	33244	35984	
832	0	32609	33488	35989	
833	0	32648	33510	36020	
834	0	32304	33177	36007	
835	0	32032	32837	36038	
836	0	32068	32648	36024	
837	0	32356	32864	36001	
838	0	32689	32876	36012	
839	0	32804	32669	36066	
840	0	32860	32836	36161	
841	0	32948	32612	36264	
842	0	33388	32704	36368	
843	0	33712	32820	36437	
844	0	33673	32656	36500	
845	0	33464	32656	36574	
846	0	33200	32841	36640	
847	0	33153	32846	36703	
848	0	33166	33116	36782	
849	0	32920	33212	36833	
850	0	32557	33244	36880	
851	0	32512	33256	36932	
852	0	32544	33496	36976	
853	0	32416	33136	37004	
854	0	32228	33208	37024	
855	0	32184	33176	37032	
856	0	32304	32677	37028	
857	0	32300	32682	37009	
858	0	32453	32856	36996	
859	0	32672	32804	36976	
860	0	32744	32770	36948	
861	0	32952	32726	36896	
862	0	33160	32904	36834	
863	0	33297	32731	36776	
864	0	33356	32492	36743	
865	0	33400	32852	36692	
866	0	33400	32767	36657	
867	0	33249	32692	36612	
868	0	33156	33228	36556	
869	0	33084	33340	36524	
870	0	32904	33072	36496	
871	0	32536	32928	36464	
872	0	32484	33034	36445	
873	0	32285	33160	36420	
874	0	32108	33148	36380	
875	0	32072	33001	36319	
876	0	32185	32904	36324	
877	0	32200	32868	36296	
878	0	32396	32804	36274	
879	0	32696	32856	36264	
880	0	32996	32908	36256	
881	0	33220	32816	36276	
882	0	33421	32894	36280	
883	0	33468	33004	36309	
884	0	33559	32784	36351	
885	0	33612	32668	36417	
886	0	33460	32628	36484	
887	0	33237	32622	36576	
888	0	32936	32840	36658	
889	0	32680	32724	36748	
890	0	32776	32725	36865	
891	0	32504	33013	36992	
892	0	32088	32932	37096	
893	0	31824	33100	37216	
894	0	31624	33065	37324	
895	0	31836	33052	37418	
896	0	32420	32850	37482	
897	0	32728	32853	37543	
898	0	32716	32815	37612	
899	0	32928	32828	37676	
900	0	33144	33140	37713	
901	0	33234	32881	37718	
902	0	33304	33143	37724	
903	0	33465	33066	37733	
904	0	33512	32871	37730	
905	0	33640	32937	37741	
906	0	33872	32932	37743	
907	0	33796	32813	37768	
908	0	33644	32701	37792	
909	0	33260	32892	37805	
910	0	32817	32780	37808	
911	0	32544	32681	37800	
912	0	32084	32856	37821	
913	0	31540	32936	37833	
914	0	31280	32888	37824	
915	0	31138	32824	37816	
916	0	31196	32804	37797	
917	0	31420	32867	37780	
918	0	31720	32589	37792	
919	0	32136	32565	37814	
920	0	32606	32820	37805	
921	0	33156	32830	37788	
922	0	33616	32942	37777	
923	0	33828	32852	37752	
924	0	33876	32815	37736	
925	0	34200	32856	37704	
926	0	34384	32938	37682	
927	0	34256	32956	37654	
928	0	34116	32988	37616	
929	0	33760	32836	37574	
930	0	33268	32904	37540	
931	0	32667	33072	37504	
932	0	32136	33049	37448	
933	0	31578	32766	37416	
934	0	31308	32560	37380	
935	0	31136	32585	37328	
936	0	31332	32325	37284	
937	0	31704	32433	37222	
938	0	31970	33039	37165	
939	0	32112	32992	37076	
940	0	32330	33034	36964	
941	0	32804	32874	36849	
942	0	33344	33166	36735	
943	0	33676	33092	36608	
944	0	33858	32793	36485	
945	0	34112	32686	36364	
946	0	34197	32713	36230	
947	0	34248	32800	36076	
948	0	34044	32860	35964	
949	0	33808	32850	35876	
950	0	33344	33077	35830	
951	0	32736	32968	35820	
952	0	32349	32884	35820	
953	0	32152	32828	35840	
954	0	31800	32708	35876	
955	0	31721	32520	35904	
956	0	31584	32663	35924	
957	0	31560	32684	35940	
958	0	31548	32760	35945	
959	0	31904	32780	35988	
960	0	32640	32813	36008	
961	0	33856	32700	36032	
962	0	33888	32754	36056	
963	0	33720	32868	36097	
964	0	33440	32788	36153	
965	0	33288	32791	36192	
966	0	33408	32726	36258	
967	0	33340	32772	36316	
968	0	33120	32952	36398	
969	0	32704	32908	36496	
970	0	32524	32892	36554	
971	0	32240	32999	36612	
972	0	32148	32850	36646	
973	0	32032	33112	36668	
974	0	31790	32893	36704	
975	0	31752	32772	36712	
976	0	31860	32833	36748	
977	0	31972	32832	36740	
978	0	32473	32772	36736	
979	0	32706	32744	36702	
980	0	32824	32564	36688	
981	0	32976	32625	36665	
982	0	33246	32900	36615	
983	0	33520	32680	36550	
984	0	33311	32568	36486	
985	0	33184	32664	36430	
986	0	33298	32749	36341	
987	0	33145	32698	36252	
988	0	33068	32773	36176	
989	0	32836	32916	36078	
990	0	32813	32949	35968	
991	0	32544	32808	35829	
992	0	32452	33201	35649	
993	0	32217	33440	35448	
994	0	32164	32940	35210	
995	0	32348	32430	34941	
996	0	32352	32433	34662	
997	0	32448	32748	34365	
998	0	32449	32728	33956	
999	0	32873	32952	33540	
1000	0	33224	33269	33061	
1001	0	33156	33124	32536	
1002	0	33333	33220	32004	
1003	0	33509	32837	31482	
1004	0	33488	32670	31046	
1005	0	33350	32637	30663	
1006	0	33353	32712	30388	
1007	0	33342	32725	30202	
1008	0	33088	32990	30132	
1009	0	32314	33099	30192	
1010	0	31898	33165	30329	
1011	0	31276	33207	30578	
1012	0	31194	33302	30888	
1013	0	31844	33312	31200	
1014	0	32548	33180	31522	
1015	0	33024	33072	31847	
1016	0	33092	33000	32206	
1017	0	32804	33073	32580	
1018	0	32496	33049	32956	
1019	0	31404	33008	33338	
1020	0	30838	32898	33716	
1021	0	31977	32852	34090	
1022	0	32964	32864	34496	
1023	0	33680	32724	34872	
1024	0	34952	32392	35204	
1025	0	35792	32286	35546	
1026	0	35972	32488	35852	
1027	0	35984	32672	36097	
1028	0	35252	32872	36320	
1029	0	34156	32751	36536	
1030	0	33360	32808	36701	
1031	0	32652	32933	36856	
1032	0	32212	32752	37005	
1033	0	31984	32748	37119	
1034	0	31596	32386	37220	
1035	0	31376	32417	37316	
1036	0	31148	32410	37383	
1037	0	31420	32288	37457	
1038	0	32076	32484	37472	
1039	0	32460	32196	37497	
1040	0	32708	32446	37516	
1041	0	32808	32448	37516	
1042	0	32924	32492	37500	
1043	0	32756	32416	37477	
1044	0	32708	32334	37456	
1045	0	32845	32421	37396	
1046	0	32944	32572	37319	
1047	0	33164	32565	37221	
1048	0	33100	32569	37054	
1049	0	32782	32576	36772	
1050	0	32608	32578	36381	
1051	0	32365	32327	35892	
1052	0	31740	32805	35324	
1053	0	31537	32912	34730	
1054	0	31640	32748	34157	
1055	0	31680	32396	33648	
1056	0	31260	32252	33237	
1057	0	31418	32244	33008	
1058	0	32072	32416	32882	
1059	0	33065	32532	33108	
1060	0	34045	32750	32967	
1061	0	34668	32620	32630	
1062	0	35644	32857	32428	
1063	0	35140	32916	32292	
1064	0	34700	32600	32152	
1065	0	34176	32940	31993	
1066	0	33572	33401	31919	
1067	0	32681	33513	31833	
1068	0	32384	33448	31764	
1069	0	32496	33232	31664	
1070	0	32452	32948	31478	
1071	0	32132	32921	31189	
1072	0	31132	32869	30828	
1073	0	31145	32129	30464	
1074	0	32100	31943	30180	
1075	0	31670	32062	29992	
1076	0	32040	31812	29932	
1077	0	32208	31936	29992	
1078	0	32328	32396	30117	
1079	0	32486	32716	30288	
1080	0	33012	32841	30470	
1081	0	33196	32910	30625	
1082	0	33168	33152	30724	
1083	0	33246	33284	30740	
1084	0	33368	33096	30700	
1085	0	33757	33016	30613	
1086	0	33782	33156	30476	
1087	0	33629	33256	30310	
1088	0	33694	33325	30173	
1089	0	33328	33252	30046	
1090	0	32932	33265	29946	
1091	0	31999	33317	29878	
1092	0	32012	33408	29885	
1093	0	32306	33598	29924	
1094	0	31985	33252	29986	
1095	0	32188	32980	30042	
1096	0	32396	32916	30142	
1097	0	32528	33092	30265	
1098	0	32592	33009	30463	
1099	0	32380	32808	30700	
1100	0	32836	32612	31069	
1101	0	33164	32720	31588	
1102	0	33342	32910	32247	
1103	0	33380	33031	33093	
1104	0	33374	32834	34122	
1105	0	33280	32800	35273	
1106	0	33016	32490	36521	
1107	0	32793	32708	37752	
1108	0	32361	32919	38888	
1109	0	32333	32864	39886	
1110	0	32332	32584	40784	
1111	0	31304	32598	41196	
1112	0	30868	32814	41572	
1113	0	32048	32894	41708	
1114	0	31916	32904	41620	
1115	0	31976	32692	41357	
1116	0	32844	32804	40904	
1117	0	33292	32620	40225	
1118	0	33414	32845	39456	
1119	0	34500	33055	38664	
1120	0	35744	33300	37844	
1121	0	35856	33180	37060	
1122	0	34520	33188	36264	
1123	0	33153	32932	35620	
1124	0	30856	33032	35088	
1125	0	28873	33024	34732	
1126	0	29608	32956	34598	
1127	0	31664	33100	34604	
1128	0	32216	33129	34782	
1129	0	30628	33505	35105	
1130	0	30528	33496	35488	
1131	0	31240	33423	35871	
1132	0	31892	33444	36188	
1133	0	32836	33576	36445	
1134	0	33808	32740	36594	
1135	0	35522	32512	36680	
1136	0	37876	32250	36672	
1137	0	38009	32032	36537	
1138	0	37174	32241	36268	
1139	0	36452	32721	35981	
1140	0	35656	32818	35693	
1141	0	35200	33345	35418	
1142	0	33900	33976	35224	
1143	0	32460	33460	35013	
1144	0	31720	33460	34717	
1145	0	31374	34222	34357	
1146	0	30896	33904	33678	
1147	0	30504	31646	33100	
1148	0	30458	30292	32617	
1149	0	30958	31476	32328	
1150	0	31424	31969	32189	
1151	0	31360	31960	32237	
1152	0	31728	32598	32465	
1153	0	32000	33000	32764	
1154	0	32132	32959	33093	
1155	0	32049	32812	33397	
1156	0	31880	33236	33693	
1157	0	31364	33292	33992	
1158	0	31840	32921	34228	
1159	0	32442	32901	34362	
1160	0	32724	32780	34448	
1161	0	32460	32764	34484	
1162	0	32894	32840	34470	
1163	0	33441	32716	34442	
1164	0	34112	32796	34372	
1165	0	34261	32831	34300	
1166	0	34100	32796	34208	
1167	0	34436	32702	34096	
1168	0	34272	32848	34037	
1169	0	33700	32908	33966	
1170	0	33668	33025	33936	
1171	0	33492	32943	33881	
1172	0	33088	32961	33862	
1173	0	32744	32977	33860	
1174	0	31854	33008	33845	
1175	0	29268	32885	33860	
1176	0	27896	32952	33886	
1177	0	28136	32946	33900	
1178	0	30760	32617	33888	
1179	0	32457	33096	33913	
1180	0	33264	32980	33940	
1181	0	34416	32456	33952	
1182	0	35516	32564	33957	
1183	0	35866	32342	33962	
1184	0	35092	32984	33687	
1185	0	35120	33030	33452	
1186	0	35276	31956	33287	
1187	0	34420	31844	33255	
1188	0	32948	32490	33264	
1189	0	31310	32636	33224	
1190	0	30610	33242	33197	
1191	0	30888	33692	33236	
1192	0	31588	34020	33360	
1193	0	32048	33520	33496	
1194	0	31968	33558	33613	
1195	0	30776	33604	33588	
1196	0	30016	33596	33437	
1197	0	31204	33838	33232	
1198	0	32741	33780	32968	
1199	0	33644	33748	32629	
1200	0	34248	33941	32260	
1201	0	34924	33781	32006	
1202	0	35620	33988	31912	
1203	0	36416	33893	32028	
1204	0	35756	33752	32220	
1205	0	34652	33604	32460	
1206	0	33690	33236	32800	
1207	0	32864	32796	33015	
1208	0	31884	32672	33161	
1209	0	31324	33060	33256	
1210	0	31672	32748	33250	
1211	0	32217	32644	33144	
1212	0	32332	32770	33050	
1213	0	31544	32889	32912	
1214	0	31408	33128	32792	
1215	0	31792	32644	32648	
1216	0	31832	32244	32532	
1217	0	31922	32224	32421	
1218	0	32048	32524	32384	
1219	0	32196	32512	32360	
1220	0	32512	32258	32374	
1221	0	32906	31860	32413	
1222	0	32444	31889	32620	
1223	0	30308	32016	32772	
1224	0	29241	31853	32745	
1225	0	29860	32040	32668	
1226	0	32240	32241	32580	
1227	0	32384	32565	32553	
1228	0	34340	32864	32524	
1229	0	34862	32704	32500	
1230	0	37016	32452	32472	
1231	0	38788	32866	32452	
1232	0	38816	33376	32402	
1233	0	38272	32256	32320	
1234	0	34793	32272	32252	
1235	0	32752	32248	32256	
1236	0	30936	32288	32349	
1237	0	30636	32546	32476	
1238	0	29976	32564	32628	
1239	0	29804	32420	32764	
1240	0	30538	32692	32884	
1241	0	31242	32557	33038	
1242	0	32004	32896	33080	
1243	0	32396	33101	33033	
1244	0	33076	32756	32972	
1245	0	33510	32860	33026	
1246	0	33712	33090	33162	
1247	0	33496	33016	33214	
1248	0	33336	33225	33133	
1249	0	32752	33671	33104	
1250	0	32432	33144	32964	
1251	0	32544	33012	32847	
1252	0	32396	33252	32764	
1253	0	32360	33292	32688	
1254	0	32032	33230	32684	
1255	0	31864	32887	32756	
1256	0	31464	33153	32784	
1257	0	31820	32946	32884	
1258	0	32456	32478	32958	
1259	0	32588	32462	32988	
1260	0	32460	32944	32984	
1261	0	32496	33085	32948	
1262	0	32568	32396	32929	
1263	0	32985	32434	32858	
1264	0	33036	32164	32756	
1265	0	32952	32610	32668	
1266	0	33425	32436	32612	
1267	0	33486	32391	32604	
1268	0	32864	32732	32704	
1269	0	32334	32820	32800	
1270	0	31504	33282	32921	
1271	0	31164	33462	33026	
1272	0	30768	33552	33148	
1273	0	29442	33500	33233	
1274	0	29064	33374	33310	
1275	0	26652	33304	33308	
1276	0	27464	32712	33296	
1277	0	32181	32536	33224	
1278	0	35829	32945	33112	
1279	0	38524	33400	32958	
1280	0	39870	33184	32818	
1281	0	39652	32787	32654	
1282	0	38900	32608	32532	
1283	0	36782	32236	32428	
1284	0	35793	32487	32364	
1285	0	36604	32645	32296	
1286	0	38232	33076	32254	
1287	0	34949	32745	32192	
1288	0	32632	32312	32200	
1289	0	32992	32309	32208	
1290	0	33670	32813	32240	
1291	0	33184	33015	32292	
1292	0	32464	33352	32352	
1293	0	31468	33344	32416	
1294	0	30681	33476	32496	
1295	0	30728	33154	32562	
1296	0	30708	32702	32628	
1297	0	29552	32608	32671	
1298	0	28293	32865	32729	
1299	0	29464	32380	32780	
1300	0	30708	32440	32828	
1301	0	31732	32099	32846	
1302	0	32040	32341	32875	
1303	0	32204	32336	32908	
1304	0	32216	32100	32905	
1305	0	32918	32068	32912	
1306	0	32746	32236	32892	
1307	0	32424	32344	32888	
1308	0	32568	32488	32849	
1309	0	32748	32645	32828	
1310	0	33448	32686	32828	
1311	0	34048	32812	32784	
1312	0	33496	32969	32759	
1313	0	32688	33370	32730	
1314	0	32218	32804	32730	
1315	0	31821	32712	32721	
1316	0	31826	33072	32745	
1317	0	32056	33164	32776	
1318	0	32196	32936	32769	
1319	0	31928	32237	32764	
1320	0	32864	32338	32768	
1321	0	33800	32464	32780	
1322	0	34193	32816	32800	
1323	0	33888	32717	32800	
1324	0	33908	32676	32804	
1325	0	33564	32630	32805	
1326	0	33748	32593	32836	
1327	0	33264	32400	32816	
1328	0	32896	32464	32789	
1329	0	32752	32537	32763	
1330	0	32876	32308	32757	
1331	0	32504	32478	32745	
1332	0	32706	32932	32740	
1333	0	32488	33177	32728	
1334	0	32028	32980	32704	
1335	0	31921	32660	32707	
1336	0	31841	32608	32692	
1337	0	31944	32673	32668	
1338	0	32324	32706	32640	
1339	0	32738	32498	32640	
1340	0	33444	32640	32617	
1341	0	33417	32550	32588	
1342	0	32620	32724	32549	
1343	0	31100	32708	32508	
1344	0	28816	32456	32508	
1345	0	27309	32480	32512	
1346	0	29092	32580	32491	
1347	0	32132	32713	32420	
1348	0	35248	32581	32364	
1349	0	39996	32828	32320	
1350	0	41396	32910	32268	
1351	0	39588	32864	32224	
1352	0	36977	33037	32184	
1353	0	33401	32912	32143	
1354	0	31172	33124	32125	
1355	0	30416	32652	32105	
1356	0	32000	32616	32100	
1357	0	32764	32380	32094	
1358	0	31301	32237	32092	
1359	0	31284	32793	32088	
1360	0	32136	32657	32116	
1361	0	32020	32594	32162	
1362	0	31840	32697	32186	
1363	0	31549	33025	32216	
1364	0	31856	32837	32236	
1365	0	32816	33096	32228	
1366	0	33570	32934	32200	
1367	0	32852	32789	32183	
1368	0	32092	33008	32168	
1369	0	30888	33023	32161	
1370	0	29857	33066	32156	
1371	0	31049	32759	32120	
1372	0	32076	33076	32112	
1373	0	32244	33327	32101	
1374	0	33824	33012	32082	
1375	0	33740	32693	32066	
1376	0	32400	32744	32060	
1377	0	33652	32604	32056	
1378	0	36040	32414	32038	
1379	0	35016	32845	32007	
1380	0	33932	32904	31994	
1381	0	33230	32832	32000	
1382	0	33554	32980	32012	
1383	0	32580	32718	32016	
1384	0	32364	32656	32006	
1385	0	32312	32933	31998	
1386	0	31904	33152	32032	
1387	0	32105	32924	32048	
1388	0	32536	33278	32068	
1389	0	33144	33999	32100	
1390	0	33296	33452	32122	
1391	0	32824	32958	32152	
1392	0	32260	32994	32165	
1393	0	31496	33040	32189	
1394	0	30820	32880	32196	
1395	0	30984	32549	32184	
1396	0	30984	32785	32208	
1397	0	31758	32817	32220	
1398	0	32210	32472	32228	
1399	0	31704	32560	32252	
1400	0	32388	32438	32284	
1401	0	34216	32332	32296	
1402	0	34880	32886	32296	
1403	0	36404	33005	32292	
1404	0	36356	32774	32308	
1405	0	35497	32548	32290	
1406	0	36096	32772	32292	
1407	0	34944	32864	32262	
1408	0	32836	33216	32248	
1409	0	31673	33577	32229	
1410	0	31852	33448	32228	
1411	0	32240	32632	32228	
1412	0	32560	33044	32196	
1413	0	31912	33013	32192	
1414	0	30956	32916	32160	
1415	0	30928	33009	32160	
1416	0	31092	32925	32159	
1417	0	31420	32876	32129	
1418	0	30868	32782	32116	
1419	0	31676	32678	32093	
1420	0	32764	32812	32052	
1421	0	33096	32356	32056	
1422	0	33224	32692	32020	
1423	0	33060	32832	31988	
1424	0	32560	32788	31977	
1425	0	33036	33024	31952	
1426	0	32380	32988	31912	
1427	0	31945	32801	31902	
1428	0	31520	32728	31916	
1429	0	32256	32412	31928	
1430	0	34504	32673	31924	
1431	0	35004	32772	31932	
1432	0	35660	33148	31968	
1433	0	34164	33152	31998	
1434	0	32385	33200	32032	
1435	0	32868	33312	32053	
1436	0	33392	33102	32048	
1437	0	33388	32714	32052	
1438	0	33756	32616	32040	
1439	0	32716	32348	32053	
1440	0	31644	32658	32064	
1441	0	31512	32568	32060	
1442	0	31560	32612	32077	
1443	0	31684	32097	32080	
1444	0	31712	32501	32064	
1445	0	31220	32802	32072	
1446	0	32104	32636	32056	
1447	0	33096	32517	32048	
1448	0	33402	32775	32049	
1449	0	33616	32975	32064	
1450	0	35192	32832	32057	
1451	0	35826	32768	32056	
1452	0	34648	32997	32036	
1453	0	33228	33253	32044	
1454	0	31476	33196	32024	
1455	0	30724	33016	32020	
1456	0	31004	32824	31993	
1457	0	31285	32870	31972	
1458	0	31700	32988	31966	
1459	0	31088	32758	31968	
1460	0	31216	33053	31964	
1461	0	32249	32652	31932	
1462	0	32752	32678	31932	
1463	0	33206	32904	31932	
1464	0	34906	32801	31912	
1465	0	33952	32884	31896	
1466	0	32740	32813	31883	
1467	0	33600	32725	31860	
1468	0	35468	32662	31816	
1469	0	35080	33031	31802	
1470	0	34284	32580	31789	
1471	0	33172	32533	31748	
1472	0	32860	32560	31716	
1473	0	32560	32700	31732	
1474	0	31663	32936	31694	
1475	0	31388	33176	31704	
1476	0	31444	32920	31694	
1477	0	31596	33269	31718	
1478	0	32664	32552	31729	
1479	0	32596	32640	31740	
1480	0	32226	32238	31761	
1481	0	31948	32146	31758	
1482	0	32056	32960	31768	
1483	0	32460	33214	31771	
1484	0	33232	33370	31749	
1485	0	33648	33110	31748	
1486	0	33261	33037	31756	
1487	0	33082	33145	31776	
1488	0	33160	33160	31764	
1489	0	32824	32692	31780	
1490	0	32696	32621	31808	
1491	0	31204	32821	31832	
1492	0	31068	33245	31836	
1493	0	32304	33313	31879	
1494	0	32794	33268	31897	
1495	0	33016	33604	31914	
1496	0	33932	33220	31930	
1497	0	34009	32824	31964	
1498	0	33680	32622	31968	
1499	0	32928	32270	31988	
1500	0	32442	32188	32001	
1501	0	32980	32596	31996	
1502	0	31804	33544	32006	
1503	0	31988	33060	32000	
1504	0	32513	32862	31972	
1505	0	31818	33016	31976	
1506	0	31348	32896	31946	
1507	0	33124	32917	31928	
1508	0	34828	33300	31924	
1509	0	35621	33448	31908	
1510	0	35977	33321	31909	
1511	0	34365	33160	31912	
1512	0	33776	33308	31908	
1513	0	33328	32900	31880	
1514	0	32640	32992	31892	
1515	0	32742	33134	31862	
1516	0	31856	33096	31884	
1517	0	30984	33072	31879	
1518	0	31492	32868	31892	
1519	0	31424	32894	31900	
1520	0	31332	32772	31892	
1521	0	32588	32828	31908	
1522	0	32580	33021	31924	
1523	0	31733	32788	31914	
1524	0	31056	32732	31892	
1525	0	30913	33080	31868	
1526	0	31252	33008	31840	
1527	0	34032	32645	31836	
1528	0	35968	32940	31824	
1529	0	36368	32844	31828	
1530	0	34692	33048	31828	
1531	0	32448	33047	31844	
1532	0	31096	33105	31856	
1533	0	29249	33176	31876	
1534	0	30292	33072	31881	
1535	0	30156	32616	31888	
1536	0	30276	32740	31881	
1537	0	33668	32804	31904	
1538	0	37298	33252	31928	
1539	0	36509	33014	31936	
1540	0	35896	32728	31952	
1541	0	34132	32444	31968	
1542	0	33412	31900	31948	
1543	0	33492	32589	31952	
1544	0	33744	32476	31932	
1545	0	33772	32484	31929	
1546	0	32618	32664	31920	
1547	0	31612	32849	31911	
1548	0	31812	33048	31926	
1549	0	31856	33242	31937	
1550	0	32092	33304	31944	
1551	0	31976	32844	31940	
1552	0	32128	32816	31964	
1553	0	32052	32825	31976	
1554	0	32080	32888	31991	
1555	0	32062	32724	31962	
1556	0	32029	32870	31944	
1557	0	32052	33072	31948	
1558	0	32108	32876	31958	
1559	0	31916	32548	31952	
1560	0	32224	32840	31948	
1561	0	33180	32820	31938	
1562	0	33740	33076	31930	
1563	0	33838	32718	31924	
1564	0	33967	32472	31904	
1565	0	34446	32540	31908	
1566	0	33688	32613	31904	
1567	0	32937	32960	31906	
1568	0	32552	33626	31897	
1569	0	32456	33104	31929	
1570	0	32208	32391	31912	
1571	0	32160	32036	31915	
1572	0	32376	32647	31936	
1573	0	31512	32768	31920	
1574	0	32132	32634	31924	
1575	0	32544	32746	31914	
1576	0	32704	32853	31928	
1577	0	33988	32670	31938	
1578	0	34422	33007	31944	
1579	0	33524	32868	31937	
1580	0	32564	32977	31928	
1581	0	32528	32908	31932	
1582	0	32328	33000	31940	
1583	0	32888	33181	31933	
1584	0	32444	32896	31928	
1585	0	32908	32789	31904	
1586	0	33020	32513	31892	
1587	0	33084	32470	31908	
1588	0	33344	32701	31917	
1589	0	33548	32888	31924	
1590	0	32940	33316	31953	
1591	0	32626	33286	31972	
1592	0	32408	33040	31973	
1593	0	32404	33024	32014	
1594	0	31872	32846	32014	
1595	0	31636	32589	32028	
1596	0	32598	32889	32014	
1597	0	32128	33077	32020	
1598	0	32500	33113	32018	
1599	0	32764	32932	32012	
1600	0	33296	32840	31994	
1601	0	33528	33064	31969	
1602	0	31616	33208	31932	
1603	0	32224	33160	31904	
1604	0	32060	32832	31878	
1605	0	33300	32841	31828	
1606	0	34412	32473	31800	
1607	0	34496	32678	31768	
1608	0	33757	32553	31764	
1609	0	33104	32712	31750	
1610	0	32456	32968	31748	
1611	0	33676	32953	31748	
1612	0	33788	33300	31720	
1613	0	33296	33373	31718	
1614	0	32320	32810	31744	
1615	0	31726	32533	31748	
1616	0	31948	32473	31728	
1617	0	32173	32372	31714	
1618	0	32769	32898	31713	
1619	0	32852	32999	31744	
1620	0	31876	33062	31764	
1621	0	30436	33154	31764	
1622	0	29822	33124	31796	
1623	0	30744	33070	31844	
1624	0	32652	32916	31872	
1625	0	33710	32278	31880	
1626	0	33700	32277	31896	
1627	0	33968	32472	31909	
1628	0	34957	32756	31930	
1629	0	35100	32496	31941	
1630	0	35350	32796	31932	
1631	0	35556	33176	31960	
1632	0	34500	33334	31976	
1633	0	32496	32724	31972	
1634	0	31392	32760	31966	
1635	0	30940	32209	31968	
1636	0	30788	32052	31969	
1637	0	31512	32385	31980	
1638	0	31716	32832	31988	
1639	0	31020	32500	31982	
1640	0	31496	32921	31982	
1641	0	32404	33127	31974	
1642	0	31840	33062	31976	
1643	0	32048	33264	31960	
1644	0	33748	32668	31953	
1645	0	35716	32772	31936	
1646	0	35213	33123	31933	
1647	0	34032	33092	31929	
1648	0	34276	32776	31908	
1649	0	34172	32765	31888	
1650	0	33492	32836	31885	
1651	0	33396	32920	31893	
1652	0	31844	32968	31884	
1653	0	30448	33256	31893	
1654	0	31668	32700	31908	
1655	0	32072	32768	31896	
1656	0	32226	32692	31889	
1657	0	32448	32832	31901	
1658	0	32237	33329	31882	
1659	0	32148	32919	31876	
1660	0	32808	32956	31888	
1661	0	32872	32977	31888	
1662	0	32580	32549	31881	
1663	0	32509	32624	31868	
1664	0	32596	32804	31854	
1665	0	33000	32816	31844	
1666	0	32840	33221	31822	
1667	0	32548	32837	31786	
1668	0	32760	32644	31818	
1669	0	32302	32222	31810	
1670	0	32076	32481	31812	
1671	0	32780	33108	31812	
1672	0	33600	33740	31794	
1673	0	33804	33342	31780	
1674	0	33956	32936	31796	
1675	0	34160	32620	31797	
1676	0	34104	32706	31783	
1677	0	33600	32718	31785	
1678	0	32210	32685	31798	
1679	0	31469	32584	31809	
1680	0	31398	32869	31808	
1681	0	31810	32755	31822	
1682	0	32436	32884	31840	
1683	0	32880	32935	31820	
1684	0	33058	32660	31849	
1685	0	32982	32807	31862	
1686	0	33092	32876	31887	
1687	0	32766	33164	31900	
1688	0	31884	33146	31908	
1689	0	32552	32992	31936	
1690	0	33918	32728	31912	
1691	0	33240	32908	31928	
1692	0	33380	33324	31908	
1693	0	32120	33752	31909	
1694	0	31524	33385	31940	
1695	0	32524	32093	31940	
1696	0	32941	32225	31934	
1697	0	33168	32528	31941	
1698	0	33105	32534	31940	
1699	0	32856	32613	31926	
1700	0	33385	32993	31927	
1701	0	33004	32664	31956	
1702	0	32472	32972	31953	
1703	0	32236	32976	31953	
1704	0	32096	32798	31960	
1705	0	32386	32612	31960	
1706	0	32612	32433	31935	
1707	0	32960	32813	31940	
1708	0	33092	32972	31956	
1709	0	32636	32809	31951	
1710	0	33452	33524	31948	
1711	0	34024	33693	31936	
1712	0	34024	34060	31940	
1713	0	33484	34076	31920	
1714	0	33128	33488	31920	
1715	0	32528	32084	31902	
1716	0	31736	31455	31891	
1717	0	31992	32308	31884	
1718	0	31308	32741	31893	
1719	0	31620	33164	31897	
1720	0	32436	34596	31924	
1721	0	32732	34682	31918	
1722	0	33508	33962	31912	
1723	0	33605	31757	31912	
1724	0	33932	30232	31920	
1725	0	32466	30692	31926	
1726	0	31512	31553	31932	
1727	0	31000	31040	31928	
1728	0	32740	30962	31921	
1729	0	31856	32620	31920	
1730	0	30808	33407	31925	
1731	0	31554	33380	31929	
1732	0	32908	33414	31908	
1733	0	34230	33740	31921	
1734	0	34948	33636	31894	
1735	0	35400	33492	31866	
1736	0	35913	32730	31809	
1737	0	36776	32534	31768	
1738	0	35108	32693	31728	
1739	0	34200	33348	31716	
1740	0	33124	33192	31688	
1741	0	31448	33184	31660	
1742	0	31540	32936	31636	
1743	0	31348	32956	31658	
1744	0	31177	32732	31658	
1745	0	31684	32592	31656	
1746	0	31976	32799	31672	
1747	0	31736	32676	31686	
1748	0	32200	32692	31670	
1749	0	32160	33008	31685	
1750	0	32606	33070	31729	
1751	0	32928	33132	31748	
1752	0	33428	33297	31760	
1753	0	32888	33413	31754	
1754	0	32564	33332	31776	
1755	0	33049	32896	31775	
1756	0	31772	32796	31780	
1757	0	31700	32998	31773	
1758	0	32273	32919	31758	
1759	0	32336	32814	31744	
1760	0	32670	32596	31761	
1761	0	32712	32312	31764	
1762	0	32948	32868	31788	
1763	0	33088	32554	31792	
1764	0	33052	32560	31784	
1765	0	33208	32113	31780	
1766	0	33172	32089	31781	
1767	0	33156	32406	31806	
1768	0	33200	32719	31833	
1769	0	32921	33150	31852	
1770	0	32882	33216	31892	
1771	0	33032	33045	31885	
1772	0	33064	33274	31876	
1773	0	32716	33253	31855	
1774	0	32220	32967	31860	
1775	0	32028	33149	31869	
1776	0	31944	33220	31826	
1777	0	32748	33172	31823	
1778	0	33040	32468	31820	
1779	0	33048	32417	31796	
1780	0	32921	32767	31796	
1781	0	33048	32720	31794	
1782	0	33336	32640	31808	
1783	0	33136	32996	31828	
1784	0	32068	33153	31810	
1785	0	31469	33112	31797	
1786	0	32368	32679	31781	
1787	0	33368	32328	31789	
1788	0	33613	32253	31808	
1789	0	32832	32585	31822	
1790	0	33728	33509	31840	
1791	0	32748	33504	31856	
1792	0	31972	33732	31875	
1793	0	31992	32668	31892	
1794	0	32305	32360	31900	
1795	0	33068	33412	31903	
1796	0	34109	33636	31892	
1797	0	34320	33468	31912	
1798	0	32172	32829	31916	
1799	0	31490	31348	31916	
1800	0	31492	31453	31928	
1801	0	31908	32280	31918	
1802	0	32633	32547	31896	
1803	0	33440	32732	31901	
1804	0	34618	32444	31893	
1805	0	33932	32544	31884	
1806	0	32792	32944	31885	
1807	0	32910	33064	31892	
1808	0	33260	33164	31916	
1809	0	32832	33112	31913	
1810	0	34308	33172	31904	
1811	0	34744	33276	31892	
1812	0	32280	33524	31900	
1813	0	30656	33089	31912	
1814	0	30036	32632	31908	
1815	0	30540	32680	31918	
1816	0	33516	32832	31918	
1817	0	34160	32960	31905	
1818	0	34184	32564	31892	
1819	0	33756	32524	31860	
1820	0	32984	32692	31845	
1821	0	32834	32726	31833	
1822	0	32552	32989	31810	
1823	0	32157	32708	31784	
1824	0	31824	32496	31768	
1825	0	31864	32503	31776	
1826	0	32332	32473	31748	
1827	0	33484	32862	31766	
1828	0	33488	33140	31780	
1829	0	32596	33476	31804	
1830	0	32356	33175	31781	
1831	0	32038	32756	31783	
1832	0	32098	32544	31792	
1833	0	32049	33056	31773	
1834	0	32842	32872	31748	
1835	0	32828	32868	31730	
1836	0	33180	32748	31736	
1837	0	33541	32718	31758	
1838	0	33728	32876	31776	
1839	0	34156	33030	31748	
1840	0	34152	32541	31740	
1841	0	33588	32584	31748	
1842	0	33344	33157	31777	
1843	0	32704	33380	31785	
1844	0	32000	32428	31750	
1845	0	32224	32237	31764	
1846	0	32204	32364	31756	
1847	0	32138	32666	31760	
1848	0	31996	33261	31772	
1849	0	32224	33513	31785	
1850	0	32602	33717	31788	
1851	0	33404	33392	31816	
1852	0	32552	33197	31820	
1853	0	32148	32481	31837	
1854	0	31461	31980	31873	
1855	0	32366	32212	31860	
1856	0	30908	32566	31894	
1857	0	31368	32489	31880	
1858	0	33645	32480	31888	
1859	0	34940	32720	31864	
1860	0	34290	33556	31839	
1861	0	33681	33786	31829	
1862	0	33200	32344	31828	
1863	0	33368	32424	31830	
1864	0	33149	33876	31815	
1865	0	33232	33952	31788	
1866	0	33020	33403	31786	
1867	0	32712	32629	31762	
1868	0	33793	32221	31812	
1869	0	33680	31310	31817	
1870	0	32512	30573	31824	
1871	0	32012	31744	31855	
1872	0	32344	32974	31860	
1873	0	32312	32834	31862	
1874	0	32017	32984	31860	
1875	0	31070	32782	31861	
1876	0	30976	32820	31863	
1877	0	31916	32892	31876	
1878	0	32226	32999	31860	
1879	0	33105	33406	31836	
1880	0	35432	32948	31832	
1881	0	34492	32962	31836	
1882	0	33901	33392	31852	
1883	0	33778	33168	31850	
1884	0	33165	32856	31828	
1885	0	32352	32606	31817	
1886	0	31636	32704	31789	
1887	0	31785	32537	31804	
1888	0	32780	32720	31786	
1889	0	32926	33260	31792	
1890	0	33244	33220	31783	
1891	0	33080	33196	31816	
1892	0	33684	33422	31824	
1893	0	32636	32610	31833	
1894	0	31793	32660	31840	
1895	0	31196	33125	31836	
1896	0	30816	33210	31845	
1897	0	32204	33344	31848	
1898	0	32912	32928	31880	
1899	0	33024	32944	31888	
1900	0	32456	32656	31892	
1901	0	31920	32503	31908	
1902	0	31568	32456	31876	
1903	0	32824	32468	31876	
1904	0	33560	32540	31852	
1905	0	33872	32173	31868	
1906	0	33764	32192	31878	
1907	0	32817	32668	31895	
1908	0	34421	32448	31879	
1909	0	35884	32568	31868	
1910	0	36866	33222	31844	
1911	0	35112	33140	31880	
1912	0	33392	33004	31904	
1913	0	31194	33488	31908	
1914	0	29649	33332	31897	
1915	0	30900	33252	31908	
1916	0	31362	33359	31916	
1917	0	30920	32644	31920	
1918	0	31908	32320	31928	
1919	0	31893	32122	31917	
1920	0	31992	32832	31940	
1921	0	32632	32981	31940	
1922	0	34500	32469	31944	
1923	0	34358	32820	31940	
1924	0	34196	32632	31936	
1925	0	32969	32191	31940	
1926	0	32149	32260	31950	
1927	0	32308	32704	31940	
1928	0	32529	32996	31968	
1929	0	32776	33322	31941	
1930	0	33020	33128	31908	
1931	0	32964	33188	31908	
1932	0	33064	33246	31888	
1933	0	32996	33156	31908	
1934	0	32400	33031	31904	
1935	0	32404	32917	31916	
1936	0	31337	32806	31901	
1937	0	31516	33024	31889	
1938	0	32500	32700	31872	
1939	0	32900	32588	31874	
1940	0	32580	32668	31894	
1941	0	32536	32840	31904	
1942	0	33212	32976	31900	
1943	0	33504	32817	31916	
1944	0	33769	32472	31934	
1945	0	34484	32540	31924	
1946	0	33332	32615	31914	
1947	0	33384	32736	31920	
1948	0	33252	32913	31927	
1949	0	33176	33086	31924	
1950	0	33322	33080	31908	
1951	0	33740	33137	31892	
1952	0	32317	33040	31876	
1953	0	30978	32874	31864	
1954	0	30960	33041	31879	
1955	0	31180	33146	31852	
1956	0	32388	32810	31848	
1957	0	32884	32620	31848	
1958	0	32962	32600	31856	
1959	0	32916	32757	31872	
1960	0	32960	32741	31864	
1961	0	32836	32588	31854	
1962	0	32920	32913	31853	
1963	0	32876	32644	31862	
1964	0	32924	32781	31852	
1965	0	32783	32600	31852	
1966	0	32940	32844	31852	
1967	0	32972	32828	31872	
1968	0	32660	32856	31880	
1969	0	32312	32876	31864	
1970	0	32922	33158	31857	
1971	0	33772	33024	31856	
1972	0	33108	32906	31873	
1973	0	32696	33272	31864	
1974	0	32944	33297	31852	
1975	0	32844	33200	31858	
1976	0	33232	32980	31840	
1977	0	32980	32660	31845	
1978	0	33164	32391	31868	
1979	0	32224	33348	31862	
1980	0	31236	34148	31868	
1981	0	31623	33032	31879	
1982	0	32028	32505	31868	
1983	0	32644	32168	31869	
1984	0	33449	31908	31869	
1985	0	34325	31374	31884	
1986	0	33522	30377	31892	
1987	0	32992	31263	31891	
1988	0	32888	32760	31881	
1989	0	32584	33161	31897	
1990	0	32489	33440	31928	
1991	0	32172	33689	31946	
1992	0	32224	33516	31956	
1993	0	31616	33660	31962	
1994	0	31658	33701	31946	
1995	0	33040	32757	31968	
1996	0	32881	32644	31996	
1997	0	33693	32993	31980	
1998	0	33508	32968	31980	
1999	0	33580	32584	31952	
2000	0	33085	32864	31948	
2001	0	31457	33028	31940	
2002	0	30825	32961	31916	
2003	0	32324	32952	31916	
2004	0	34172	32704	31908	
2005	0	35536	32776	31900	
2006	0	35348	32656	31911	
2007	0	35286	32522	31894	
2008	0	34219	32816	31868	
2009	0	33096	33125	31864	
2010	0	31712	33344	31880	
2011	0	31804	33393	31894	
2012	0	31936	33153	31885	
2013	0	32008	32614	31878	
2014	0	32808	32448	31887	
2015	0	31913	32716	31879	
2016	0	31554	32508	31908	
2017	0	31120	32774	31894	
2018	0	29636	32840	31890	
2019	0	30484	32796	31900	
2020	0	30768	32775	31873	
2021	0	32424	32767	31856	
2022	0	33780	32741	31848	
2023	0	34652	32836	31858	
2024	0	34372	32632	31869	
2025	0	35636	32420	31844	
2026	0	36232	32446	31848	
2027	0	35105	32932	31840	
2028	0	33968	33126	31864	
2029	0	31833	33236	31876	
2030	0	31920	32932	31905	
2031	0	32610	32625	31914	
2032	0	32380	33168	31918	
2033	0	31796	33095	31952	
2034	0	31468	32913	31952	
2035	0	31176	32985	31958	
2036	0	32326	32816	31969	
2037	0	32896	32852	31936	
2038	0	32548	32668	31932	
2039	0	32676	32636	31927	
2040	0	32365	32730	31903	
2041	0	31952	32634	31916	
2042	0	32612	32664	31921	
2043	0	32872	33048	31924	
2044	0	32864	32720	31914	
2045	0	33152	32310	31905	
2046	0	32740	32420	31885	
2047	0	32644	32780	31892	
2048	0	33430	32922	31889	
2049	0	33317	33012	31900	
2050	0	33748	33348	31900	
2051	0	33812	33057	31896	
2052	0	33054	33564	31908	
2053	0	32388	33380	31892	
2054	0	32360	33067	31885	
2055	0	32993	32681	31880	
2056	0	32700	32420	31892	
2057	0	32780	32343	31868	
2058	0	32972	32374	31876	
2059	0	32660	32268	31888	
2060	0	32380	32752	31886	
2061	0	32012	33262	31866	
2062	0	31664	33492	31860	
2063	0	32260	33660	31852	
2064	0	33572	34170	31836	
2065	0	34433	33985	31852	
2066	0	34024	32808	31868	
2067	0	32972	31405	31876	
2068	0	31665	31073	31889	
2069	0	31440	31920	31886	
2070	0	32070	32042	31869	
2071	0	33212	31244	31880	
2072	0	33736	32664	31896	
2073	0	33090	33100	31879	
2074	0	33588	32826	31874	
2075	0	33956	32682	31852	
2076	0	32360	32452	31813	
2077	0	31797	32988	31820	
2078	0	32330	33420	31806	
2079	0	32328	33561	31806	
2080	0	32324	33213	31808	
2081	0	32376	32832	31797	
2082	0	32912	33154	31802	
2083	0	32736	33159	31777	
2084	0	32320	32960	31780	
2085	0	31853	32906	31777	
2086	0	32481	32892	31788	
2087	0	32852	32937	31788	
2088	0	33180	32894	31804	
2089	0	34056	32804	31832	
2090	0	34944	32873	31820	
2091	0	34424	33142	31842	
2092	0	34077	33433	31872	
2093	0	33064	33336	31857	
2094	0	31118	32940	31852	
2095	0	30430	32636	31864	
2096	0	30576	32852	31860	
2097	0	31004	33039	31866	
2098	0	31408	32792	31850	
2099	0	32076	32717	31840	
2100	0	34324	32436	31844	
2101	0	33848	32272	31852	
2102	0	33132	32502	31853	
2103	0	34316	32788	31838	
2104	0	34408	32825	31835	
2105	0	33748	32812	31848	
2106	0	33114	32853	31841	
2107	0	32505	32811	31830	
2108	0	32690	32932	31838	
2109	0	32940	32903	31821	
2110	0	32497	33184	31807	
2111	0	32265	33212	31816	
2112	0	32324	33430	31824	
2113	0	34044	32997	31808	
2114	0	32448	32868	31796	
2115	0	32180	32398	31814	
2116	0	32372	32428	31796	
2117	0	32848	32740	31800	
2118	0	33044	32628	31812	
2119	0	32796	32940	31820	
2120	0	32824	33166	31828	
2121	0	32664	33052	31825	
2122	0	31712	33094	31828	
2123	0	31624	32278	31828	
2124	0	32606	32034	31832	
2125	0	33024	32108	31812	
2126	0	33668	32912	31829	
2127	0	33688	33148	31828	
2128	0	34046	32804	31838	
2129	0	33790	32705	31842	
2130	0	32888	33412	31844	
2131	0	32600	33417	31838	
2132	0	31839	33048	31824	
2133	0	32344	32708	31860	
2134	0	32429	32564	31828	
2135	0	32473	32848	31797	
2136	0	32365	32917	31801	
2137	0	32352	32986	31798	
2138	0	32568	32823	31821	
2139	0	32550	32396	31781	
2140	0	32414	32695	31792	
2141	0	32204	32825	31773	
2142	0	32284	32786	31780	
2143	0	32300	33022	31777	
2144	0	32580	32857	31788	
2145	0	33528	32688	31798	
2146	0	33716	32661	31815	
2147	0	33573	32601	31840	
2148	0	34164	32913	31845	
2149	0	34040	32936	31878	
2150	0	32832	32720	31877	
2151	0	33245	33205	31864	
2152	0	33068	32924	31865	
2153	0	32368	33480	31868	
2154	0	32433	32957	31868	
2155	0	32164	32807	31873	
2156	0	32476	32568	31879	
2157	0	32392	32390	31876	
2158	0	32768	32564	31856	
2159	0	32728	32676	31856	
2160	0	32125	32951	31868	
2161	0	32066	32793	31888	
2162	0	32384	32568	31885	
2163	0	32048	32839	31894	
2164	0	33120	32492	31884	
2165	0	33238	32710	31868	
2166	0	31929	32834	31864	
2167	0	32804	32668	31863	
2168	0	32809	32732	31852	
2169	0	33237	33108	31856	
2170	0	33964	33088	31841	
2171	0	32388	32922	31839	
2172	0	33588	33120	31856	
2173	0	34768	33932	31846	
2174	0	34573	33612	31833	
2175	0	34180	33253	31844	
2176	0	31832	32736	31820	
2177	0	31518	31552	31823	
2178	0	32202	31544	31832	
2179	0	32048	32377	31812	
2180	0	31953	32775	31829	
2181	0	31324	33028	31833	
2182	0	31344	32826	31828	
2183	0	31428	33280	31829	
2184	0	32318	33050	31804	
2185	0	33824	32625	31816	
2186	0	33120	32208	31808	
2187	0	33737	31996	31761	
2188	0	34468	32496	31780	
2189	0	34616	32812	31784	
2190	0	34382	33348	31805	
2191	0	33940	33942	31824	
2192	0	33784	33745	31804	
2193	0	31220	33281	31804	
2194	0	29732	33800	31816	
2195	0	30368	33200	31811	
2196	0	31176	31972	31825	
2197	0	33044	31504	31820	
2198	0	33818	31340	31828	
2199	0	34434	31536	31832	
2200	0	33517	32846	31842	
2201	0	32444	33100	31847	
2202	0	33030	33112	31860	
2203	0	33588	33597	31836	
2204	0	34200	32993	31809	
2205	0	33444	32613	31802	
2206	0	32780	33013	31806	
2207	0	32432	33032	31800	
2208	0	32108	32892	31812	
2209	0	32128	32924	31830	
2210	0	32148	32957	31852	
2211	0	31992	32928	31868	
2212	0	31786	33091	31854	
2213	0	32724	33061	31861	
2214	0	33660	33024	31892	
2215	0	33692	32669	31892	
2216	0	33149	32628	31876	
2217	0	32138	32537	31873	
2218	0	31820	32718	31869	
2219	0	32280	32732	31863	
2220	0	32708	32866	31860	
2221	0	33044	33096	31854	
2222	0	33168	33526	31860	
2223	0	33052	33018	31860	
2224	0	32640	32640	31886	
2225	0	33223	32647	31896	
2226	0	33268	32688	31876	
2227	0	32636	32775	31873	
2228	0	32252	33012	31874	
2229	0	32080	32896	31892	
2230	0	32884	32878	31908	
2231	0	32908	33000	31913	
2232	0	33048	33036	31920	
2233	0	33380	32870	31924	
2234	0	33396	32852	31936	
2235	0	32828	33002	31946	
2236	0	32596	32763	31933	
2237	0	32532	32736	31965	
2238	0	32049	32654	31972	
2239	0	32145	32300	31937	
2240	0	32074	31877	31952	
2241	0	33264	32406	31948	
2242	0	33453	33253	31940	
2243	0	32382	33240	31924	
2244	0	31489	32716	31902	
2245	0	30732	32730	31924	
2246	0	31938	32780	31930	
2247	0	33480	33028	31924	
2248	0	34102	33167	31929	
2249	0	33272	33040	31925	
2250	0	33716	32865	31926	
2251	0	33932	32700	31916	
2252	0	34836	32844	31893	
2253	0	34640	33258	31900	
2254	0	32070	33240	31888	
2255	0	31178	33066	31911	
2256	0	31904	32224	31904	
2257	0	33214	32452	31916	
2258	0	33304	32464	31896	
2259	0	34012	32576	31916	
2260	0	34644	32860	31902	
2261	0	33488	32690	31890	
2262	0	33188	33180	31901	
2263	0	32606	32757	31878	
2264	0	31652	32412	31874	
2265	0	31492	32488	31879	
2266	0	31280	32689	31876	
2267	0	31885	33025	31869	
2268	0	32440	33841	31876	
2269	0	31776	33828	31860	
2270	0	32410	33332	31857	
2271	0	33144	32820	31870	
2272	0	33152	31716	31887	
2273	0	34173	31816	31876	
2274	0	32504	32712	31876	
2275	0	31548	32872	31872	
2276	0	31572	33177	31865	
2277	0	30848	32792	31844	
2278	0	30586	32780	31852	
2279	0	31540	32742	31833	
2280	0	33081	33349	31824	
2281	0	34120	32816	31810	
2282	0	35588	32548	31784	
2283	0	36114	32580	31791	
2284	0	35713	33036	31796	
2285	0	34540	33008	31786	
2286	0	32844	32756	31776	
2287	0	32060	32452	31788	
2288	0	32104	32601	31788	
2289	0	31841	32974	31792	
2290	0	31956	33193	31798	
2291	0	31836	33207	31804	
2292	0	32428	33122	31821	
2293	0	31992	33416	31796	
2294	0	32176	32862	31815	
2295	0	31736	32838	31822	
2296	0	32340	33112	31828	
2297	0	32804	32904	31836	
2298	0	33312	32693	31832	
2299	0	34278	32246	31800	
2300	0	33374	32396	31764	
2301	0	32608	32880	31748	
2302	0	33177	32805	31732	
2303	0	33116	33189	31736	
2304	0	33737	32860	31724	
2305	0	33044	32690	31741	
2306	0	32488	32772	31748	
2307	0	32428	32524	31756	
2308	0	31848	32429	31776	
2309	0	32804	33020	31792	
2310	0	33496	33596	31788	
2311	0	33184	33752	31813	
2312	0	32852	33560	31821	
2313	0	32852	33182	31819	
2314	0	31766	32485	31824	
2315	0	31526	32536	31821	
2316	0	31628	32542	31814	
2317	0	31884	32530	31812	
2318	0	30872	32085	31813	
2319	0	29929	32708	31809	
2320	0	28292	33116	31805	
2321	0	28240	33404	31786	
2322	0	32296	33245	31780	
2323	0	37064	32681	31772	
2324	0	37796	31748	31758	
2325	0	38133	31436	31776	
2326	0	36048	32365	31768	
2327	0	36470	32796	31744	
2328	0	37157	32708	31746	
2329	0	35936	32492	31754	
2330	0	34249	33092	31748	
2331	0	33104	33749	31750	
2332	0	32194	33462	31768	
2333	0	31220	33248	31789	
2334	0	30269	32836	31783	
2335	0	30096	33184	31796	
2336	0	30976	33080	31785	
2337	0	31876	33009	31800	
2338	0	31562	32942	31764	
2339	0	31461	32519	31772	
2340	0	30336	33196	31773	
2341	0	30960	34303	31788	
2342	0	32396	34436	31774	
2343	0	32884	34372	31768	
2344	0	34044	32128	31774	
2345	0	33774	30125	31779	
2346	0	33176	29978	31798	
2347	0	32920	31074	31820	
2348	0	32788	32365	31812	
2349	0	32960	33016	31842	
2350	0	32976	32884	31876	
2351	0	33040	32758	31881	
2352	0	32885	32948	31912	
2353	0	32688	33198	31900	
2354	0	32628	32860	31882	
2355	0	32540	33524	31878	
2356	0	32512	33415	31888	
2357	0	32468	33188	31894	
2358	0	32504	33138	31904	
2359	0	32536	32796	31903	
2360	0	32784	32316	31900	
2361	0	32864	32312	31894	
2362	0	32964	32896	31895	
2363	0	33364	33076	31901	
2364	0	33508	32620	31884	
2365	0	33348	32462	31884	
2366	0	33112	32562	31885	
2367	0	32584	32832	31880	
2368	0	33189	33201	31876	
2369	0	33664	32844	31892	
2370	0	32868	32704	31882	
2371	0	32512	32912	31889	
2372	0	31863	33119	31892	
2373	0	31472	33428	31876	
2374	0	30800	32944	31880	
2375	0	30964	32724	31862	
2376	0	32352	32556	31836	
2377	0	33852	32441	31840	
2378	0	34024	32496	31853	
2379	0	34233	33202	31836	
2380	0	32580	33208	31820	
2381	0	32404	33041	31817	
2382	0	33288	32916	31791	
2383	0	31696	32925	31768	
2384	0	33419	32481	31742	
2385	0	34228	32446	31740	
2386	0	33560	32988	31748	
2387	0	33456	32912	31728	
2388	0	34614	32752	31745	
2389	0	34676	32825	31737	
2390	0	33592	33070	31760	
2391	0	32168	33031	31772	
2392	0	30112	33296	31784	
2393	0	30156	33056	31810	
2394	0	31584	32920	31788	
2395	0	32077	32548	31796	
2396	0	32516	32138	31784	
2397	0	31588	32688	31772	
2398	0	31752	32852	31780	
2399	0	33776	32560	31772	
2400	0	34772	32557	31740	
2401	0	34812	33036	31752	
2402	0	34080	33516	31754	
2403	0	32940	32864	31710	
2404	0	33484	32775	31712	
2405	0	34748	32644	31711	
2406	0	33916	32104	31736	
2407	0	32516	32516	31733	
2408	0	31244	33328	31748	
2409	0	31524	33446	31736	
2410	0	32308	33481	31748	
2411	0	32480	32990	31767	
2412	0	32600	33364	31768	
2413	0	32036	33197	31800	
2414	0	31825	32120	31791	
2415	0	31728	32255	31792	
2416	0	32112	33184	31812	
2417	0	32652	32852	31826	
2418	0	33401	32548	31812	
2419	0	33224	32615	31814	
2420	0	32756	32372	31803	
2421	0	32456	32428	31812	
2422	0	31761	32824	31796	
2423	0	31880	32904	31801	
2424	0	32600	32528	31796	
2425	0	32728	32668	31784	
2426	0	33474	32917	31777	
2427	0	33817	32748	31800	
2428	0	33380	32888	31784	
2429	0	33044	33218	31772	
2430	0	33934	33232	31783	
2431	0	35152	33076	31820	
2432	0	34300	33062	31834	
2433	0	33344	33020	31833	
2434	0	31996	33188	31840	
2435	0	31216	33041	31846	
2436	0	31354	32841	31872	
2437	0	32001	32900	31852	
2438	0	32004	32916	31844	
2439	0	31725	32524	31844	
2440	0	31960	32620	31860	
2441	0	32084	32758	31860	
2442	0	32254	32996	31866	
2443	0	32461	32636	31864	
2444	0	33380	32616	31860	
2445	0	33660	32672	31846	
2446	0	33780	32545	31824	
2447	0	33350	32564	31832	
2448	0	34032	33100	31820	
2449	0	34532	33312	31812	
2450	0	34388	33412	31792	
2451	0	34124	32974	31800	
2452	0	32962	33180	31816	
2453	0	31768	33287	31842	
2454	0	31224	32932	31856	
2455	0	31784	33390	31852	
2456	0	32092	33487	31853	
2457	0	32000	33816	31836	
2458	0	31873	33048	31835	
2459	0	32080	31590	31824	
2460	0	33104	31700	31821	
2461	0	32684	32200	31809	
2462	0	33196	32084	31805	
2463	0	33840	32640	31832	
2464	0	33076	32798	31788	
2465	0	32428	32428	31796	
2466	0	32136	32664	31804	
2467	0	31816	32688	31800	
2468	0	32884	32880	31790	
2469	0	32352	33148	31760	
2470	0	32208	33054	31788	
2471	0	34100	33121	31765	
2472	0	34797	33510	31746	
2473	0	34625	33692	31762	
2474	0	33852	32824	31780	
2475	0	33125	32332	31788	
2476	0	32092	32541	31784	
2477	0	30596	33032	31768	
2478	0	30624	33324	31789	
2479	0	31109	33364	31799	
2480	0	32289	33116	31778	
2481	0	33152	32021	31792	
2482	0	32872	31660	31812	
2483	0	32480	32370	31820	
2484	0	31009	32512	31820	
2485	0	33124	32380	31812	
2486	0	35032	32389	31823	
2487	0	34627	32464	31814	
2488	0	34996	32476	31808	
2489	0	33630	33070	31805	
2490	0	33796	33161	31806	
2491	0	32940	33158	31786	
2492	0	31637	33488	31796	
2493	0	31372	34021	31808	
2494	0	31364	33520	31790	
2495	0	33752	33080	31784	
2496	0	33528	32820	31772	
2497	0	32372	32817	31765	
2498	0	32400	32720	31764	
2499	0	32508	32644	31748	
2500	0	33048	32828	31766	
2501	0	33175	32657	31760	
2502	0	33368	32952	31764	
2503	0	33265	32768	31751	
2504	0	32980	32748	31757	
2505	0	32080	32864	31756	
2506	0	31564	32436	31767	
2507	0	33109	32417	31766	
2508	0	34077	32783	31777	
2509	0	33297	33180	31784	
2510	0	32552	33510	31796	
2511	0	32025	33108	31804	
2512	0	31792	32628	31825	
2513	0	32402	32804	31855	
2514	0	32633	32676	31856	
2515	0	32521	32288	31865	
2516	0	32252	32542	31878	
2517	0	32150	33120	31846	
2518	0	32244	32652	31852	
2519	0	32180	32476	31861	
2520	0	32432	32807	31844	
2521	0	32576	32846	31832	
2522	0	32920	33086	31839	
2523	0	33256	32950	31820	
2524	0	33384	32897	31824	
2525	0	33624	32752	31812	
2526	0	34604	32885	31801	
2527	0	34207	32604	31809	
2528	0	33301	32724	31842	
2529	0	33084	33082	31840	
2530	0	32612	33213	31832	
2531	0	32369	32712	31844	
2532	0	33312	32857	31870	
2533	0	32792	32738	31856	
2534	0	31984	33000	31826	
2535	0	32196	33253	31836	
2536	0	31156	33004	31844	
2537	0	31192	32884	31852	
2538	0	31616	32570	31840	
2539	0	31356	34106	31852	
2540	0	32468	35006	31828	
2541	0	33696	33644	31812	
2542	0	34888	31668	31812	
2543	0	34480	30484	31836	
2544	0	33168	30189	31828	
2545	0	32260	31220	31839	
2546	0	32156	32741	31836	
2547	0	32340	33733	31854	
2548	0	33408	33664	31869	
2549	0	34288	33209	31872	
2550	0	34212	33096	31875	
2551	0	34072	32926	31884	
2552	0	33394	33384	31889	
2553	0	32680	33198	31881	
2554	0	32248	32844	31872	
2555	0	32244	32888	31877	
2556	0	32020	32970	31879	
2557	0	31950	32953	31854	
2558	0	31905	32866	31852	
2559	0	32289	32660	31856	
2560	0	33340	32696	31868	
2561	0	33440	32665	31841	
2562	0	32012	33037	31844	
2563	0	31642	33133	31862	
2564	0	31056	32788	31876	
2565	0	31616	32778	31867	
2566	0	32853	32604	31860	
2567	0	33572	32652	31861	
2568	0	33156	32881	31844	
2569	0	33264	32820	31838	
2570	0	34800	33016	31824	
2571	0	34240	32960	31828	
2572	0	33922	32752	31824	
2573	0	33192	32860	31804	
2574	0	32892	32956	31800	
2575	0	32525	32989	31790	
2576	0	32226	32991	31750	
2577	0	32784	32868	31757	
2578	0	31884	32788	31756	
2579	0	31956	32676	31741	
2580	0	31483	33044	31766	
2581	0	30554	33213	31769	
2582	0	31552	32764	31757	
2583	0	33108	32336	31744	
2584	0	34284	32128	31752	
2585	0	34772	32168	31726	
2586	0	34148	32663	31752	
2587	0	33180	32824	31733	
2588	0	32568	32774	31728	
2589	0	32872	32910	31751	
2590	0	32900	33256	31752	
2591	0	32800	33006	31772	
2592	0	32896	33216	31780	
2593	0	33096	33512	31772	
2594	0	33401	32968	31784	
2595	0	32292	32780	31766	
2596	0	31492	32844	31785	
2597	0	31469	32838	31792	
2598	0	32300	32721	31778	
2599	0	32989	32782	31784	
2600	0	32828	32584	31790	
2601	0	31662	32448	31780	
2602	0	32136	32562	31784	
2603	0	32804	33085	31780	
2604	0	32805	32548	31781	
2605	0	32980	32272	31792	
2606	0	33262	32664	31774	
2607	0	33084	33248	31776	
2608	0	33457	33668	31784	
2609	0	33964	33076	31796	
2610	0	34644	32749	31772	
2611	0	33932	33005	31780	
2612	0	33249	33060	31809	
2613	0	33640	32740	31784	
2614	0	32884	34114	31786	
2615	0	31652	33744	31814	
2616	0	31968	32544	31806	
2617	0	32240	31596	31800	
2618	0	31630	31246	31784	
2619	0	31933	31577	31792	
2620	0	32352	32609	31780	
2621	0	32416	33172	31772	
2622	0	32312	32968	31788	
2623	0	32332	33046	31797	
2624	0	32400	32688	31800	
2625	0	32628	33005	31786	
2626	0	32800	33033	31798	
2627	0	33432	32996	31800	
2628	0	33720	33156	31794	
2629	0	33585	33093	31815	
2630	0	33304	33285	31802	
2631	0	32430	33145	31828	
2632	0	31912	33284	31828	
2633	0	32300	33360	31841	
2634	0	32564	32895	31860	
2635	0	33060	32613	31852	
2636	0	33133	32514	31838	
2637	0	33412	32349	31834	
2638	0	33384	32606	31821	
2639	0	33060	32816	31821	
2640	0	33656	32890	31836	
2641	0	32292	32788	31840	
2642	0	32236	32712	31828	
2643	0	32072	32825	31849	
2644	0	32448	32517	31844	
2645	0	32656	32476	31836	
2646	0	33184	32728	31852	
2647	0	33856	32834	31868	
2648	0	33484	32885	31868	
2649	0	33120	33415	31873	
2650	0	33423	33576	31876	
2651	0	33183	33326	31866	
2652	0	31500	32885	31864	
2653	0	31500	32756	31870	
2654	0	31189	33404	31884	
2655	0	31552	33415	31872	
2656	0	32472	32612	31882	
2657	0	32700	32185	31864	
2658	0	32884	31812	31854	
2659	0	33445	32060	31849	
2660	0	33528	32614	31844	
2661	0	33517	32629	31847	
2662	0	32864	32519	31865	
2663	0	33016	32925	31846	
2664	0	32888	33173	31840	
2665	0	32624	32836	31840	
2666	0	32720	32742	31856	
2667	0	32892	32584	31823	
2668	0	32976	33346	31832	
2669	0	33132	33372	31828	
2670	0	33348	33372	31808	
2671	0	32812	33542	31788	
2672	0	32716	33721	31809	
2673	0	32306	32328	31848	
2674	0	31361	31909	31854	
2675	0	32048	32092	31848	
2676	0	32688	32908	31836	
2677	0	33220	33124	31849	
2678	0	33112	33084	31853	
2679	0	32604	32965	31822	
2680	0	33704	32789	31820	
2681	0	33828	32744	31799	
2682	0	32152	32793	31796	
2683	0	32428	32900	31777	
2684	0	33712	32718	31757	
2685	0	33436	32512	31742	
2686	0	33452	32248	31698	
2687	0	33796	32519	31692	
2688	0	33920	32619	31688	
2689	0	32980	32836	31713	
2690	0	32096	33216	31728	
2691	0	31692	33342	31742	
2692	0	31424	33553	31745	
2693	0	31904	33116	31768	
2694	0	31769	32457	31796	
2695	0	32420	32468	31808	
2696	0	32612	32614	31815	
2697	0	32064	32829	31809	
2698	0	32462	32833	31798	
2699	0	32760	32722	31793	
2700	0	33184	32660	31775	
2701	0	33852	32656	31788	
2702	0	33350	32712	31784	
2703	0	32868	32629	31805	
2704	0	32656	32561	31790	
2705	0	32436	32678	31794	
2706	0	33022	32917	31772	
2707	0	33118	32822	31777	
2708	0	33420	32780	31780	
2709	0	34241	33103	31800	
2710	0	32608	32660	31796	
2711	0	32060	32797	31817	
2712	0	32540	33077	31825	
2713	0	32892	32804	31828	
2714	0	32950	33016	31832	
2715	0	32688	33120	31839	
2716	0	32244	33156	31828	
2717	0	32112	32896	31830	
2718	0	31968	32696	31836	
2719	0	32271	32684	31831	
2720	0	32748	32796	31828	
2721	0	32546	32726	31821	
2722	0	32980	32708	31836	
2723	0	33134	32653	31832	
2724	0	32386	33172	31824	
2725	0	32256	33476	31812	
2726	0	32077	32866	31812	
2727	0	33204	32504	31810	
2728	0	34040	32213	31804	
2729	0	34364	32368	31805	
2730	0	34184	32448	31808	
2731	0	33220	32447	31802	
2732	0	32324	33072	31812	
2733	0	31592	33632	31824	
2734	0	32016	33596	31800	
2735	0	32800	33408	31797	
2736	0	33344	33360	31800	
2737	0	34100	33752	31793	
2738	0	33936	33300	31812	
2739	0	32404	32263	31834	
2740	0	32808	31331	31840	
2741	0	32888	30760	31834	
2742	0	32070	31816	31836	
2743	0	31758	32820	31812	
2744	0	32076	33290	31815	
2745	0	32888	33152	31825	
2746	0	32684	32996	31839	
2747	0	32444	32709	31829	
2748	0	31357	32565	31830	
2749	0	31316	33952	31824	
2750	0	32696	35054	31836	
2751	0	33292	33753	31826	
2752	0	34140	32428	31825	
2753	0	34376	32500	31848	
2754	0	33412	31913	31872	
2755	0	33264	31479	31868	
2756	0	32904	32100	31880	
2757	0	32524	32592	31876	
2758	0	32190	32856	31847	
2759	0	31668	32844	31842	
2760	0	31528	33069	31861	
2761	0	31872	33057	31868	
2762	0	32448	32764	31852	
2763	0	32760	33040	31844	
2764	0	33318	32780	31842	
2765	0	34676	32572	31844	
2766	0	34272	32884	31828	
2767	0	33624	32751	31820	
2768	0	33224	32730	31809	
2769	0	32332	32856	31808	
2770	0	33133	33304	31808	
2771	0	33380	33164	31786	
2772	0	31496	33158	31788	
2773	0	31420	33304	31796	
2774	0	31524	32980	31794	
2775	0	31772	32557	31785	
2776	0	32364	32697	31790	
2777	0	32320	32592	31789	
2778	0	33252	32788	31780	
2779	0	34020	33240	31776	
2780	0	33464	33181	31772	
2781	0	33244	32653	31737	
2782	0	33352	32468	31720	
2783	0	33376	32781	31692	
2784	0	33356	33188	31696	
2785	0	32992	33024	31692	
2786	0	33396	32884	31690	
2787	0	33664	32550	31690	
2788	0	32912	32028	31686	
2789	0	32450	32480	31712	
2790	0	32430	32908	31712	
2791	0	32332	33268	31720	
2792	0	32156	33189	31724	
2793	0	32336	32932	31729	
2794	0	32180	33173	31748	
2795	0	32196	33113	31746	
2796	0	32100	32896	31721	
2797	0	32240	32924	31737	
2798	0	32440	32784	31718	
2799	0	32968	32556	31708	
2800	0	32736	32708	31714	
2801	0	32590	32288	31716	
2802	0	32552	32534	31712	
2803	0	32500	32768	31716	
2804	0	32988	32866	31720	
2805	0	33368	33208	31717	
2806	0	33678	32965	31728	
2807	0	33598	33072	31712	
2808	0	32956	32704	31698	
2809	0	32584	32220	31700	
2810	0	33072	32289	31704	
2811	0	33068	32552	31712	
2812	0	32976	33100	31724	
2813	0	32668	33185	31728	
2814	0	32524	32930	31736	
2815	0	32400	32446	31750	
2816	0	32292	32569	31758	
2817	0	32528	33360	31792	
2818	0	32940	33436	31792	
2819	0	32884	32796	31777	
2820	0	32369	32740	31785	
2821	0	31576	32864	31767	
2822	0	30972	33136	31780	
2823	0	31865	33242	31768	
2824	0	33768	32630	31778	
2825	0	33736	32548	31784	
2826	0	33429	32468	31775	
2827	0	34624	32214	31772	
2828	0	34972	32822	31781	
2829	0	33752	33433	31808	
2830	0	32424	33304	31812	
2831	0	32132	33312	31805	
2832	0	32249	33273	31813	
2833	0	32852	33473	31832	
2834	0	33488	33080	31844	
2835	0	33116	32785	31840	
2836	0	32844	32797	31853	
2837	0	32022	32696	31844	
2838	0	31284	32468	31844	
2839	0	31080	32631	31832	
2840	0	30852	32489	31825	
2841	0	32080	32488	31821	
2842	0	33024	32623	31821	
2843	0	32728	32528	31808	
2844	0	33336	32325	31789	
2845	0	33433	32552	31790	
2846	0	33576	32773	31776	
2847	0	33916	32876	31756	
2848	0	34908	33044	31756	
2849	0	34608	33286	31756	
2850	0	33336	33268	31751	
2851	0	32640	33082	31750	
2852	0	32504	32958	31746	
2853	0	31520	32989	31777	
2854	0	31560	32968	31784	
2855	0	31816	32744	31792	
2856	0	32100	32744	31780	
2857	0	32556	32945	31780	
2858	0	32804	32902	31779	
2859	0	33056	32561	31744	
2860	0	33244	32216	31772	
2861	0	32953	32210	31762	
2862	0	32840	32303	31749	
2863	0	33256	32557	31742	
2864	0	33216	33664	31731	
2865	0	32412	33904	31737	
2866	0	31865	33460	31750	
2867	0	32376	32665	31764	
2868	0	32612	31471	31748	
2869	0	33436	31980	31751	
2870	0	33269	32708	31756	
2871	0	32377	32916	31772	
2872	0	32688	33718	31788	
2873	0	32696	33556	31804	
2874	0	33100	33380	31786	
2875	0	33216	33113	31792	
2876	0	32818	32320	31804	
2877	0	33125	31309	31810	
2878	0	32458	32165	31832	
2879	0	33436	32880	31821	
2880	0	33788	32663	31812	
2881	0	33584	32876	31822	
2882	0	32449	33428	31816	
2883	0	31864	33158	31844	
2884	0	32468	32886	31844	
2885	0	31981	32850	31847	
2886	0	31926	32920	31844	
2887	0	32249	32928	31845	
2888	0	33320	32874	31876	
2889	0	33470	33196	31872	
2890	0	33312	33442	31882	
2891	0	32850	33110	31873	
2892	0	32376	33028	31865	
2893	0	32640	32868	31882	
2894	0	32612	32945	31885	
2895	0	32464	32860	31872	
2896	0	31552	32356	31876	
2897	0	31452	31968	31860	
2898	0	32568	32392	31871	
2899	0	33084	32772	31836	
2900	0	32852	32876	31839	
2901	0	32452	32633	31844	
2902	0	32604	32741	31844	
2903	0	32912	32996	31848	
2904	0	33484	33135	31840	
2905	0	34460	32890	31860	
2906	0	34172	32730	31839	
2907	0	34008	32718	31855	
2908	0	33988	32814	31840	
2909	0	33496	32770	31837	
2910	0	32816	32772	31833	
2911	0	32036	32748	31860	
2912	0	31848	33105	31856	
2913	0	31958	33174	31844	
2914	0	31940	33079	31862	
2915	0	32421	32972	31852	
2916	0	32589	32472	31845	
2917	0	32648	32421	31841	
2918	0	32677	32632	31836	
2919	0	32800	32864	31840	
2920	0	33572	33044	31829	
2921	0	33028	32968	31844	
2922	0	32064	32548	31852	
2923	0	31000	32596	31850	
2924	0	30304	32737	31850	
2925	0	31996	32920	31828	
2926	0	32692	33117	31804	
2927	0	33272	32644	31776	
2928	0	35202	32324	31800	
2929	0	35184	32653	31796	
2930	0	34548	33196	31801	
2931	0	33637	33260	31804	
2932	0	33217	33432	31772	
2933	0	32752	33456	31767	
2934	0	32772	32846	31750	
2935	0	32880	32937	31759	
2936	0	32716	32664	31772	
2937	0	32656	32548	31772	
2938	0	32296	32664	31788	
2939	0	31896	32833	31796	
2940	0	31813	32664	31788	
2941	0	31948	32608	31780	
2942	0	32324	32902	31793	
2943	0	32237	32762	31777	
2944	0	32076	32392	31764	
2945	0	31860	32708	31788	
2946	0	31524	32775	31788	
2947	0	32004	32161	31789	
2948	0	32996	32010	31796	
2949	0	33640	32657	31780	
2950	0	33956	33090	31767	
2951	0	34476	33252	31770	
2952	0	34908	33556	31796	
2953	0	34748	33293	31775	
2954	0	34526	32833	31776	
2955	0	33992	32208	31770	
2956	0	32776	32740	31757	
2957	0	31640	33076	31765	
2958	0	30968	33316	31780	
2959	0	31188	33096	31784	
2960	0	31772	32888	31772	
2961	0	32224	32647	31748	
2962	0	32612	32677	31750	
2963	0	33256	32689	31751	
2964	0	33188	32484	31764	
2965	0	32844	32457	31775	
2966	0	32648	32640	31777	
2967	0	31648	32830	31803	
2968	0	31988	33344	31812	
2969	0	33365	32942	31804	
2970	0	33412	32540	31828	
2971	0	32829	32647	31856	
2972	0	33349	32908	31865	
2973	0	31904	32917	31873	
2974	0	31882	32604	31914	
2975	0	32448	32685	31909	
2976	0	32592	33439	31908	
2977	0	32728	34293	31909	
2978	0	32956	33995	31904	
2979	0	34308	32568	31909	
2980	0	33704	31932	31908	
2981	0	32788	31821	31922	
2982	0	32876	31951	31913	
2983	0	32552	31700	31895	
2984	0	32912	32528	31896	
2985	0	32848	33092	31866	
2986	0	32772	32769	31878	
2987	0	32932	32624	31852	
2988	0	33132	32760	31857	
2989	0	33396	33100	31854	
2990	0	33237	33338	31844	
2991	0	32761	33380	31844	
2992	0	32676	33543	31837	
2993	0	32152	33382	31836	
2994	0	31711	32805	31844	
2995	0	32008	32596	31841	
2996	0	31940	32004	31840	
2997	0	31956	32625	31840	
2998	0	32346	33920	31832	
2999	0	32712	33784	31810	
3000	0	32812	33332	31801	
3001	0	33214	31878	31784	
3002	0	33339	31526	31780	
3003	0	33460	32200	31800	
3004	0	33356	32399	31777	
3005	0	33884	32848	31765	
3006	0	33652	32856	31764	
3007	0	32885	32485	31751	
3008	0	32606	32544	31758	
3009	0	32552	33013	31776	
3010	0	33104	32984	31784	
3011	0	32941	32932	31788	
3012	0	31620	33044	31800	
3013	0	31652	33186	31812	
3014	0	32144	33184	31828	
3015	0	31988	32938	31820	
3016	0	31968	33126	31798	
3017	0	31936	33228	31796	
3018	0	33748	32695	31778	
3019	0	34144	32160	31776	
3020	0	33860	31945	31758	
3021	0	32760	32072	31775	
3022	0	32320	32840	31757	
3023	0	33132	33605	31737	
3024	0	33528	33944	31746	
3025	0	33652	33509	31732	
3026	0	33040	32720	31756	
3027	0	32664	32641	31758	
3028	0	32808	32820	31764	
3029	0	32740	32762	31768	
3030	0	33106	32952	31781	
3031	0	34088	32452	31785	
3032	0	33080	32506	31780	
3033	0	32080	33029	31776	
3034	0	31120	32708	31774	
3035	0	30936	32758	31776	
3036	0	31176	32686	31784	
3037	0	32372	32742	31773	
3038	0	32992	33088	31782	
3039	0	33658	32961	31765	
3040	0	33770	32708	31769	
3041	0	33448	32412	31776	
3042	0	33588	32481	31782	
3043	0	33720	32604	31790	
3044	0	32316	32654	31823	
3045	0	31548	32672	31804	
3046	0	32020	32685	31804	
3047	0	31377	32728	31812	
3048	0	32216	32652	31800	
3049	0	33660	32939	31820	
3050	0	33092	33047	31796	
3051	0	33304	33120	31812	
3052	0	34317	33449	31824	
3053	0	34340	33236	31816	
3054	0	33793	33276	31805	
3055	0	32984	33220	31796	
3056	0	32510	32844	31785	
3057	0	32877	32245	31790	
3058	0	32570	32325	31812	
3059	0	32048	32629	31822	
3060	0	32046	32644	31829	
3061	0	31964	32528	31820	
3062	0	32088	32730	31833	
3063	0	32535	32936	31839	
3064	0	32588	33185	31825	
3065	0	32692	32676	31808	
3066	0	33056	32642	31826	
3067	0	33088	32404	31812	
3068	0	32848	32540	31824	
3069	0	32984	32709	31846	
3070	0	32836	32901	31839	
3071	0	32388	33100	31844	
3072	0	33052	33146	31820	
3073	0	33165	33417	31836	
3074	0	33112	32956	31844	
3075	0	32856	32860	31848	
3076	0	32616	32989	31845	
3077	0	32462	32677	31855	
3078	0	32384	32684	31860	
3079	0	32328	32961	31849	
3080	0	32380	33252	31834	
3081	0	32292	32972	31828	
3082	0	32292	32396	31840	
3083	0	32464	32180	31846	
3084	0	33456	32213	31845	
3085	0	34309	32592	31844	
3086	0	33688	33220	31853	
3087	0	33138	33016	31840	
3088	0	32888	32734	31865	
3089	0	33082	33008	31836	
3090	0	33068	32964	31848	
3091	0	32876	33026	31860	
3092	0	33262	33834	31857	
3093	0	32820	33524	31874	
3094	0	31901	31836	31873	
3095	0	31144	31684	31856	
3096	0	31100	32672	31840	
3097	0	32082	32960	31829	
3098	0	33128	33287	31830	
3099	0	33724	33271	31823	
3100	0	33384	33780	31813	
3101	0	32880	33828	31812	
3102	0	33428	33495	31780	
3103	0	33372	33077	31784	
3104	0	33308	32372	31789	
3105	0	32800	31486	31788	
3106	0	32692	30504	31797	
3107	0	32460	31300	31784	
3108	0	33156	32528	31783	
3109	0	33684	33126	31756	
3110	0	32744	33326	31765	
3111	0	32492	33120	31781	
3112	0	32040	33646	31796	
3113	0	31512	33561	31812	
3114	0	30732	33274	31832	
3115	0	32570	32946	31794	
3116	0	33468	32306	31789	
3117	0	33804	32193	31778	
3118	0	33807	33164	31768	
3119	0	33544	33170	31772	
3120	0	33456	32911	31764	
3121	0	32904	32647	31767	
3122	0	32901	33020	31751	
3123	0	32604	32568	31766	
3124	0	31930	32732	31760	
3125	0	32144	32740	31756	
3126	0	32450	32660	31750	
3127	0	32416	32868	31756	
3128	0	32540	32840	31750	
3129	0	32984	32900	31743	
3130	0	33100	33145	31750	
3131	0	33180	33000	31759	
3132	0	33540	33224	31727	
3133	0	33416	33007	31741	
3134	0	33092	32494	31756	
3135	0	32917	32588	31752	
3136	0	32828	32916	31736	
3137	0	32512	32918	31744	
3138	0	32369	32857	31740	
3139	0	31973	33239	31733	
3140	0	31616	33060	31737	
3141	0	32288	32856	31749	
3142	0	33112	32761	31759	
3143	0	34068	32540	31740	
3144	0	33784	32724	31736	
3145	0	32928	32480	31725	
3146	0	32680	32481	31720	
3147	0	32184	32458	31734	
3148	0	32724	32722	31740	
3149	0	32948	32976	31757	
3150	0	32740	32927	31744	
3151	0	32474	32824	31751	
3152	0	32520	32824	31756	
3153	0	32244	33029	31766	
3154	0	32045	33644	31796	
3155	0	33324	33305	31822	
3156	0	33093	33169	31830	
3157	0	32873	32764	31812	
3158	0	32813	32761	31818	
3159	0	32538	32297	31820	
3160	0	32620	32337	31820	
3161	0	32892	32545	31813	
3162	0	32584	32789	31815	
3163	0	32633	33276	31820	
3164	0	33320	32932	31816	
3165	0	33220	32781	31809	
3166	0	32970	32309	31813	
3167	0	33268	32420	31825	
3168	0	33004	33045	31847	
3169	0	32856	33439	31820	
3170	0	32996	33037	31813	
3171	0	32920	32734	31831	
3172	0	32976	33073	31836	
3173	0	32684	33086	31861	
3174	0	32164	33158	31855	
3175	0	31758	32896	31828	
3176	0	32013	32704	31844	
3177	0	31636	32729	31852	
3178	0	32492	32889	31820	
3179	0	32488	32732	31816	
3180	0	32706	32814	31811	
3181	0	32928	32796	31825	
3182	0	33816	32544	31812	
3183	0	33584	32566	31793	
3184	0	33044	32292	31813	
3185	0	32665	32040	31789	
3186	0	32720	32680	31797	
3187	0	33720	33176	31800	
3188	0	34112	33286	31796	
3189	0	34004	32974	31789	
3190	0	33804	32572	31758	
3191	0	33644	32588	31758	
3192	0	33444	32871	31770	
3193	0	32877	33336	31773	
3194	0	32048	33278	31798	
3195	0	31170	33103	31795	
3196	0	30592	32810	31797	
3197	0	30744	32816	31792	
3198	0	30684	32881	31796	
3199	0	30568	33013	31790	
3200	0	32236	32886	31800	
3201	0	33092	32372	31797	
3202	0	34216	32329	31789	
3203	0	34438	32692	31793	
3204	0	35224	32744	31773	
3205	0	34604	32736	31776	
3206	0	33858	32681	31764	
3207	0	33197	32414	31764	
3208	0	33576	32824	31769	
3209	0	33556	33124	31764	
3210	0	33444	33293	31759	
3211	0	31956	33380	31758	
3212	0	31364	33768	31751	
3213	0	32330	33671	31780	
3214	0	32416	33214	31800	
3215	0	32232	32521	31788	
3216	0	32116	31761	31792	
3217	0	32108	32563	31765	
3218	0	32268	33668	31750	
3219	0	32172	34209	31732	
3220	0	32008	33391	31756	
3221	0	32224	32369	31776	
3222	0	32836	31908	31792	
3223	0	32972	31080	31791	
3224	0	33365	31032	31769	
3225	0	33948	32418	31780	
3226	0	33172	32920	31751	
3227	0	33096	32840	31751	
3228	0	31712	32826	31755	
3229	0	31694	32924	31745	
3230	0	32881	32832	31736	
3231	0	33804	32988	31756	
3232	0	34037	33309	31769	
3233	0	33960	33612	31772	
3234	0	33820	34170	31777	
3235	0	33312	33612	31763	
3236	0	32636	33060	31779	
3237	0	32200	32420	31764	
3238	0	31852	31601	31776	
3239	0	32120	31704	31778	
3240	0	32436	32386	31802	
3241	0	32260	32873	31785	
3242	0	32328	32800	31796	
3243	0	32176	32973	31798	
3244	0	32888	32780	31805	
3245	0	33148	32864	31791	
3246	0	33624	32762	31808	
3247	0	34320	32828	31810	
3248	0	33644	32736	31784	
3249	0	32612	32924	31798	
3250	0	31572	32992	31808	
3251	0	31412	33244	31820	
3252	0	32257	32953	31824	
3253	0	32668	33308	31832	
3254	0	33222	33326	31826	
3255	0	32872	32980	31836	
3256	0	32673	32938	31804	
3257	0	32412	32860	31820	
3258	0	32258	32864	31836	
3259	0	32548	32236	31824	
3260	0	33228	32324	31816	
3261	0	33604	32709	31840	
3262	0	33328	33078	31840	
3263	0	32846	33004	31817	
3264	0	32694	32620	31813	
3265	0	32500	32752	31828	
3266	0	32776	33096	31818	
3267	0	32760	32944	31825	
3268	0	32920	32569	31816	
3269	0	32950	32669	31821	
3270	0	32694	32932	31834	
3271	0	32416	33117	31844	
3272	0	33289	33311	31829	
3273	0	32494	33669	31820	
3274	0	32004	33148	31817	
3275	0	32972	32816	31804	
3276	0	33158	32341	31792	
3277	0	32596	32600	31788	
3278	0	32564	32426	31798	
3279	0	33028	32488	31788	
3280	0	32656	32341	31790	
3281	0	33400	32524	31784	
3282	0	33932	32845	31788	
3283	0	33416	33720	31788	
3284	0	33108	33231	31808	
3285	0	33090	32720	31802	
3286	0	32600	32330	31796	
3287	0	32733	32552	31776	
3288	0	32364	32393	31792	
3289	0	32413	32812	31780	
3290	0	32500	32801	31751	
3291	0	32016	33012	31772	
3292	0	33104	32984	31776	
3293	0	34060	32615	31781	
3294	0	32504	32674	31788	
3295	0	31956	32764	31794	
3296	0	31780	33042	31784	
3297	0	32192	33892	31780	
3298	0	32568	34076	31772	
3299	0	32616	33501	31792	
3300	0	32917	32577	31804	
3301	0	32217	31988	31800	
3302	0	32328	31312	31789	
3303	0	32830	31682	31817	
3304	0	33156	32309	31815	
3305	0	33196	32484	31784	
3306	0	33796	32592	31805	
3307	0	33816	32996	31828	
3308	0	33839	33428	31812	
3309	0	33106	33629	31802	
3310	0	33284	33437	31810	
3311	0	33546	33204	31805	
3312	0	33000	32992	31788	
3313	0	32268	33264	31792	
3314	0	32472	33192	31836	
3315	0	31941	33080	31830	
3316	0	32044	32908	31820	
3317	0	32290	32854	31832	
3318	0	32236	32476	31828	
3319	0	32632	32696	31816	
3320	0	32800	32720	31808	
3321	0	32292	32648	31792	
3322	0	32385	32513	31784	
3323	0	32192	32895	31803	
3324	0	33024	32904	31792	
3325	0	33368	32669	31765	
3326	0	33257	32772	31760	
3327	0	33424	32657	31756	
3328	0	33596	32862	31757	
3329	0	33093	33119	31772	
3330	0	32654	32943	31774	
3331	0	32341	33216	31786	
3332	0	32588	33000	31781	
3333	0	32580	32846	31784	
3334	0	32568	32285	31776	
3335	0	32424	32609	31776	
3336	0	32592	32365	31772	
3337	0	32612	32582	31784	
3338	0	32588	32976	31805	
3339	0	33008	32660	31811	
3340	0	32502	32792	31822	
3341	0	32348	33114	31804	
3342	0	32541	33316	31788	
3343	0	32532	33344	31775	
3344	0	33304	32964	31766	
3345	0	33572	32864	31782	
3346	0	33778	32933	31780	
3347	0	32752	32396	31776	
3348	0	31869	32277	31778	
3349	0	32054	32608	31794	
3350	0	32953	32708	31792	
3351	0	33752	32968	31799	
3352	0	33856	33391	31796	
3353	0	33572	33456	31820	
3354	0	33328	33016	31828	
3355	0	31992	32837	31812	
3356	0	31740	32816	31814	
3357	0	31500	32496	31800	
3358	0	31304	32568	31798	
3359	0	33068	32544	31799	
3360	0	32920	32805	31804	
3361	0	32656	33316	31804	
3362	0	32782	33036	31793	
3363	0	33648	32880	31798	
3364	0	34192	32285	31798	
3365	0	34164	32486	31788	
3366	0	33596	33080	31808	
3367	0	32762	33024	31814	
3368	0	32176	32932	31812	
3369	0	30989	32978	31813	
3370	0	31604	32796	31796	
3371	0	32096	33204	31796	
3372	0	31636	33084	31807	
3373	0	34004	33464	31821	
3374	0	33536	33529	31812	
3375	0	33440	32382	31824	
3376	0	33640	32024	31803	
3377	0	33648	32152	31780	
3378	0	33629	32255	31768	
3379	0	33381	32424	31785	
3380	0	32512	32736	31799	
3381	0	32304	32818	31788	
3382	0	32632	33012	31780	
3383	0	32252	33189	31775	
3384	0	32148	33132	31780	
3385	0	32500	33393	31780	
3386	0	32708	34244	31768	
3387	0	33025	33928	31792	
3388	0	32996	32828	31780	
3389	0	32952	32340	31802	
3390	0	32788	31517	31802	
3391	0	32157	30480	31810	
3392	0	32180	31429	31804	
3393	0	32008	33116	31836	
3394	0	31776	33564	31848	
3395	0	32552	33240	31836	
3396	0	33112	32673	31826	
3397	0	33082	32741	31828	
3398	0	32224	32768	31811	
3399	0	32552	32709	31800	
3400	0	32592	33192	31776	
3401	0	32914	33228	31764	
3402	0	33792	33034	31780	
3403	0	34484	33096	31782	
3404	0	34188	32653	31752	
3405	0	33744	32592	31764	
3406	0	32912	32796	31777	
3407	0	32464	32800	31776	
3408	0	32124	32524	31786	
3409	0	31708	33066	31772	
3410	0	31932	33164	31801	
3411	0	32036	32872	31828	
3412	0	32900	32977	31812	
3413	0	33564	33100	31824	
3414	0	32648	33020	31814	
3415	0	33220	32784	31824	
3416	0	32228	32866	31793	
3417	0	31777	32644	31772	
3418	0	32149	32808	31780	
3419	0	32404	33111	31790	
3420	0	32668	33004	31765	
3421	0	33237	33184	31758	
3422	0	33844	32866	31776	
3423	0	34348	32271	31764	
3424	0	32704	32652	31764	
3425	0	32708	32434	31760	
3426	0	32436	32739	31736	
3427	0	32237	32745	31740	
3428	0	33228	32765	31775	
3429	0	33124	32864	31768	
3430	0	33793	32958	31778	
3431	0	33816	33108	31780	
3432	0	32925	33208	31757	
3433	0	32668	33286	31760	
3434	0	32432	33000	31770	
3435	0	32344	32775	31786	
3436	0	32440	32599	31776	
3437	0	32160	32628	31764	
3438	0	32193	32788	31782	
3439	0	32958	32672	31780	
3440	0	32528	32792	31790	
3441	0	32588	32492	31780	
3442	0	32648	32706	31773	
3443	0	32148	33160	31776	
3444	0	32416	33620	31765	
3445	0	33008	32722	31760	
3446	0	33224	32398	31776	
3447	0	33032	32356	31764	
3448	0	33880	32352	31773	
3449	0	33180	32733	31791	
3450	0	32868	32903	31813	
3451	0	32580	33234	31810	
3452	0	32088	33240	31821	
3453	0	32314	33428	31828	
3454	0	31952	33180	31836	
3455	0	32126	32482	31822	
3456	0	33476	32540	31818	
3457	0	33220	32613	31796	
3458	0	32314	32789	31792	
3459	0	32769	32698	31788	
3460	0	31652	32764	31768	
3461	0	32872	32685	31756	
3462	0	33040	32434	31764	
3463	0	32896	32945	31756	
3464	0	33372	32981	31768	
3465	0	33288	32933	31766	
3466	0	34668	32836	31737	
3467	0	34445	32613	31750	
3468	0	34144	32412	31748	
3469	0	33532	32152	31733	
3470	0	32368	32888	31724	
3471	0	31316	33909	31724	
3472	0	31492	33964	31720	
3473	0	31988	33608	31724	
3474	0	32525	32503	31738	
3475	0	32784	32212	31758	
3476	0	33328	32762	31750	
3477	0	33008	33042	31757	
3478	0	32422	33153	31772	
3479	0	31950	33136	31772	
3480	0	31848	32820	31759	
3481	0	31597	32868	31744	
3482	0	31758	32716	31724	
3483	0	32836	32604	31720	
3484	0	33513	32789	31748	
3485	0	33340	32614	31764	
3486	0	33920	32124	31735	
3487	0	33516	32328	31748	
3488	0	32472	32986	31749	
3489	0	32637	33368	31746	
3490	0	33034	33270	31751	
3491	0	32776	33089	31773	
3492	0	33008	32584	31780	
3493	0	32812	32932	31784	
3494	0	32504	32900	31804	
3495	0	32704	33258	31806	
3496	0	32668	33216	31804	
3497	0	32996	33120	31793	
3498	0	32861	33404	31785	
3499	0	33036	32952	31793	
3500	0	33280	32002	31780	
3501	0	32708	31969	31800	
3502	0	32706	31422	31800	
3503	0	32996	31518	31806	
3504	0	32712	32340	31808	
3505	0	32872	32551	31808	
3506	0	32893	32507	31810	
3507	0	33004	32919	31817	
3508	0	32908	33079	31816	
3509	0	32640	33248	31804	
3510	0	32706	33349	31817	
3511	0	32284	33396	31822	
3512	0	32712	33312	31813	
3513	0	33254	33468	31820	
3514	0	32704	33214	31832	
3515	0	32133	32948	31856	
3516	0	31936	32940	31837	
3517	0	32112	32789	31854	
3518	0	32496	33276	31856	
3519	0	32125	32960	31844	
3520	0	32284	32564	31832	
3521	0	32748	33062	31836	
3522	0	33120	33193	31840	
3523	0	33133	33321	31856	
3524	0	33082	32208	31840	
3525	0	33716	31068	31860	
3526	0	33932	31792	31864	
3527	0	33804	32792	31857	
3528	0	33672	32764	31853	
3529	0	32896	33040	31876	
3530	0	32436	33156	31865	
3531	0	32324	32724	31883	
3532	0	32300	32860	31880	
3533	0	33488	33326	31860	
3534	0	32960	33390	31846	
3535	0	31724	34144	31857	
3536	0	30634	33905	31862	
3537	0	29432	33092	31836	
3538	0	30500	31792	31816	
3539	0	32208	30884	31809	
3540	0	33456	31533	31808	
3541	0	34672	32958	31812	
3542	0	35789	33868	31832	
3543	0	35226	34533	31832	
3544	0	34628	33984	31823	
3545	0	34124	32824	31800	
3546	0	33518	31848	31785	
3547	0	32476	31940	31801	
3548	0	32284	32217	31807	
3549	0	31373	32468	31816	
3550	0	31588	32513	31812	
3551	0	32378	32537	31817	
3552	0	32720	32916	31836	
3553	0	32828	33464	31825	
3554	0	32860	33244	31834	
3555	0	32960	33012	31833	
3556	0	32788	32696	31804	
3557	0	32564	32714	31808	
3558	0	33012	32560	31813	
3559	0	32724	32412	31781	
3560	0	32060	32689	31784	
3561	0	32353	32876	31808	
3562	0	32532	32944	31804	
3563	0	32940	33092	31784	
3564	0	33004	32564	31812	
3565	0	33016	32487	31808	
3566	0	32737	32661	31792	
3567	0	32662	32768	31804	
3568	0	32596	32672	31797	
3569	0	33060	32841	31813	
3570	0	33392	33022	31796	
3571	0	32568	33180	31784	
3572	0	32256	33464	31791	
3573	0	32292	33608	31825	
3574	0	32708	33636	31828	
3575	0	32924	33577	31817	
3576	0	33532	33068	31824	
3577	0	33316	32709	31812	
3578	0	33120	32018	31812	
3579	0	32576	32180	31796	
3580	0	32404	32456	31790	
3581	0	32720	32554	31796	
3582	0	32528	32496	31802	
3583	0	32732	32292	31796	
3584	0	33152	32356	31780	
3585	0	32948	32584	31765	
3586	0	32736	32640	31773	
3587	0	32796	32708	31773	
3588	0	32940	32852	31780	
3589	0	32804	32917	31797	
3590	0	32128	33164	31777	
3591	0	32262	33257	31770	
3592	0	32444	33176	31792	
3593	0	32696	33220	31788	
3594	0	33006	33072	31806	
3595	0	33364	32928	31814	
3596	0	32993	32775	31784	
3597	0	33046	32658	31798	
3598	0	32840	32506	31800	
3599	0	32437	32810	31804	
3600	0	32736	33344	31789	
3601	0	33020	33314	31788	
3602	0	33316	32992	31785	
3603	0	33028	32933	31761	
3604	0	32816	32816	31767	
3605	0	32924	32464	31768	
3606	0	32632	32460	31772	
3607	0	32732	32516	31776	
3608	0	32354	32593	31788	
3609	0	31764	32695	31780	
3610	0	31357	32904	31781	
3611	0	31298	33040	31782	
3612	0	32584	33152	31790	
3613	0	33806	33252	31798	
3614	0	33964	33352	31814	
3615	0	33504	33015	31820	
3616	0	33634	32817	31792	
3617	0	34540	32884	31801	
3618	0	34020	32864	31806	
3619	0	33012	32906	31789	
3620	0	32392	33248	31780	
3621	0	31652	32908	31776	
3622	0	30724	32263	31769	
3623	0	31516	33316	31784	
3624	0	32588	33480	31789	
3625	0	33116	32725	31781	
3626	0	33508	32412	31784	
3627	0	33813	31945	31769	
3628	0	33948	31752	31780	
3629	0	33773	31536	31800	
3630	0	33492	32368	31814	
3631	0	33072	33268	31846	
3632	0	32296	33544	31842	
3633	0	31920	34180	31844	
3634	0	31816	33692	31834	
3635	0	33432	32756	31824	
3636	0	33252	32612	31829	
3637	0	31428	33132	31813	
3638	0	31456	32688	31820	
3639	0	31672	32481	31819	
3640	0	32448	32519	31782	
3641	0	32482	32561	31753	
3642	0	32548	32519	31758	
3643	0	32913	32769	31768	
3644	0	33272	32962	31773	
3645	0	33564	32705	31758	
3646	0	33565	33050	31751	
3647	0	33185	33053	31756	
3648	0	33094	32472	31736	
3649	0	33568	31828	31745	
3650	0	33193	32180	31780	
3651	0	32560	33250	31796	
3652	0	32192	33836	31807	
3653	0	32053	33876	31804	
3654	0	32636	33300	31823	
3655	0	32864	33396	31820	
3656	0	32160	33316	31831	
3657	0	31974	32454	31828	
3658	0	32232	32374	31829	
3659	0	32714	32572	31800	
3660	0	32788	32621	31812	
3661	0	33121	32889	31809	
3662	0	33666	33004	31816	
3663	0	33740	33261	31816	
3664	0	33856	32960	31806	
3665	0	33738	32480	31796	
3666	0	32428	31929	31781	
3667	0	32252	32028	31786	
3668	0	32956	32716	31788	
3669	0	32636	32721	31770	
3670	0	33210	33080	31760	
3671	0	33192	33239	31776	
3672	0	32906	32992	31780	
3673	0	32865	33303	31800	
3674	0	32385	33484	31825	
3675	0	32111	33048	31828	
3676	0	32320	32496	31833	
3677	0	32437	32517	31838	
3678	0	31994	32860	31812	
3679	0	32320	32852	31788	
3680	0	32400	32856	31775	
3681	0	32444	32464	31782	
3682	0	31792	32294	31776	
3683	0	31696	32906	31788	
3684	0	31940	33174	31783	
3685	0	32853	32880	31780	
3686	0	32740	32948	31772	
3687	0	33408	33034	31766	
3688	0	33812	33226	31750	
3689	0	34460	33388	31741	
3690	0	35272	32580	31744	
3691	0	36304	31789	31750	
3692	0	35100	31916	31732	
3693	0	32980	32720	31750	
3694	0	31180	33389	31765	
3695	0	30580	32972	31768	
3696	0	31596	32752	31766	
3697	0	32204	32633	31770	
3698	0	32768	32728	31774	
3699	0	32512	32737	31772	
3700	0	32152	32746	31775	
3701	0	32076	33020	31780	
3702	0	32192	32660	31783	
3703	0	32737	32828	31785	
3704	0	32873	33050	31788	
3705	0	32672	32906	31761	
3706	0	32660	32753	31750	
3707	0	32916	32780	31732	
3708	0	32816	32538	31748	
3709	0	32643	32600	31740	
3710	0	32801	33044	31720	
3711	0	33194	33940	31730	
3712	0	32860	34029	31736	
3713	0	33216	33656	31732	
3714	0	33144	32932	31744	
3715	0	32798	32652	31752	
3716	0	32936	31824	31737	
3717	0	32979	31524	31744	
3718	0	32576	32296	31768	
3719	0	32372	32788	31752	
3720	0	32132	32997	31744	
3721	0	32337	33112	31744	
3722	0	32498	32954	31736	
3723	0	32652	33252	31741	
3724	0	33437	33039	31736	
3725	0	33472	32780	31716	
3726	0	33360	32628	31732	
3727	0	33301	32616	31736	
3728	0	33148	32420	31751	
3729	0	33072	32793	31748	
3730	0	33021	32964	31736	
3731	0	32568	32920	31732	
3732	0	32557	33016	31744	
3733	0	32692	33384	31735	
3734	0	32580	33150	31760	
3735	0	32432	32888	31756	
3736	0	32280	33096	31766	
3737	0	32308	33384	31760	
3738	0	32444	33380	31732	
3739	0	32472	32584	31730	
3740	0	32812	32050	31718	
3741	0	32696	32609	31720	
3742	0	32794	32652	31716	
3743	0	32741	33112	31714	
3744	0	32410	32817	31729	
3745	0	32933	32116	31704	
3746	0	33031	31948	31697	
3747	0	32496	32354	31724	
3748	0	32772	32793	31714	
3749	0	33720	32608	31720	
3750	0	33856	32468	31736	
3751	0	33692	33408	31718	
3752	0	33322	33510	31751	
3753	0	33008	33862	31764	
3754	0	32500	33720	31740	
3755	0	32240	33437	31737	
3756	0	31984	33003	31736	
3757	0	32449	32680	31732	
3758	0	33281	32160	31720	
3759	0	32384	32604	31729	
3760	0	30836	32589	31748	
3761	0	29636	32612	31760	
3762	0	31512	32560	31776	
3763	0	33181	33184	31754	
3764	0	34020	32740	31737	
3765	0	34509	32517	31728	
3766	0	35388	32808	31752	
3767	0	34248	32813	31756	
3768	0	34116	32780	31756	
3769	0	33508	32889	31733	
3770	0	32024	32940	31724	
3771	0	31880	33092	31736	
3772	0	31652	32804	31728	
3773	0	32821	32716	31733	
3774	0	32636	33100	31722	
3775	0	32786	33124	31716	
3776	0	33220	33092	31702	
3777	0	32785	32472	31716	
3778	0	32612	32181	31740	
3779	0	31844	32552	31733	
3780	0	32004	33145	31721	
3781	0	32888	32672	31725	
3782	0	33724	32662	31744	
3783	0	33532	33284	31752	
3784	0	32908	32887	31764	
3785	0	33096	32273	31744	
3786	0	32680	32304	31728	
3787	0	32782	32720	31721	
3788	0	33052	33056	31728	
3789	0	33112	32912	31746	
3790	0	33216	33057	31740	
3791	0	32558	33177	31732	
3792	0	32504	33039	31756	
3793	0	32842	33422	31764	
3794	0	32388	33030	31772	
3795	0	32076	32844	31789	
3796	0	31872	32916	31800	
3797	0	31172	32976	31808	
3798	0	31717	32808	31806	
3799	0	32432	32730	31796	
3800	0	32964	32612	31823	
3801	0	33296	32780	31798	
3802	0	33732	32820	31812	
3803	0	33969	33044	31786	
3804	0	33468	33017	31784	
3805	0	32876	32600	31781	
3806	0	32740	32536	31775	
3807	0	32972	32628	31784	
3808	0	33120	33164	31782	
3809	0	33485	32938	31776	
3810	0	32652	33090	31758	
3811	0	32404	33156	31791	
3812	0	32440	32617	31812	
3813	0	32552	32056	31820	
3814	0	33676	31810	31837	
3815	0	32376	32740	31828	
3816	0	32217	33320	31797	
3817	0	32289	33244	31774	
3818	0	32364	32968	31761	
3819	0	32772	32806	31757	
3820	0	32508	32460	31751	
3821	0	32548	32752	31751	
3822	0	32576	33227	31721	
3823	0	32660	33124	31724	
3824	0	33040	32748	31740	
3825	0	33065	32681	31758	
3826	0	31906	33070	31756	
3827	0	33388	32668	31733	
3828	0	33388	32581	31721	
3829	0	33752	32576	31733	
3830	0	33727	32728	31732	
3831	0	34124	32932	31736	
3832	0	34308	32593	31734	
3833	0	32960	33417	31738	
3834	0	32360	33737	31756	
3835	0	32202	33380	31745	
3836	0	31454	32676	31729	
3837	0	31260	31816	31726	
3838	0	32040	31826	31732	
3839	0	32628	32258	31743	
3840	0	32648	32328	31751	
3841	0	31656	33116	31752	
3842	0	31285	33338	31756	
3843	0	32192	33014	31720	
3844	0	33142	33421	31721	
3845	0	33884	33089	31726	
3846	0	33892	32788	31720	
3847	0	33828	32724	31701	
3848	0	33924	32692	31711	
3849	0	33809	32949	31716	
3850	0	34240	33262	31738	
3851	0	34054	32998	31722	
3852	0	32753	32852	31732	
3853	0	31932	32821	31728	
3854	0	31344	33064	31728	
3855	0	31460	33063	31732	
3856	0	31997	32773	31742	
3857	0	31757	33140	31713	
3858	0	32292	33148	31712	
3859	0	32796	32485	31719	
3860	0	33424	32194	31745	
3861	0	33210	32656	31740	
3862	0	32528	32564	31751	
3863	0	32524	32372	31764	
3864	0	32337	32716	31760	
3865	0	32624	32129	31750	
3866	0	32516	32916	31732	
3867	0	31776	33020	31732	
3868	0	33860	32708	31748	
3869	0	33974	32774	31768	
3870	0	33572	33237	31764	
3871	0	33616	33228	31751	
3872	0	32868	33112	31772	
3873	0	32768	33663	31761	
3874	0	32556	33180	31768	
3875	0	32798	32734	31772	
3876	0	32456	32826	31780	
3877	0	32722	32737	31780	
3878	0	32628	32870	31788	
3879	0	32508	32610	31781	
3880	0	33057	32608	31778	
3881	0	32484	32708	31788	
3882	0	32152	32497	31768	
3883	0	32672	32773	31768	
3884	0	33152	32916	31792	
3885	0	33616	32696	31796	
3886	0	33696	32605	31768	
3887	0	33668	32844	31796	
3888	0	33432	32732	31794	
3889	0	32900	32874	31768	
3890	0	32572	32941	31790	
3891	0	32405	33080	31814	
3892	0	32112	32996	31812	
3893	0	32108	33190	31788	
3894	0	32028	33480	31801	
3895	0	32748	33396	31784	
3896	0	32532	32928	31776	
3897	0	31896	32743	31770	
3898	0	31889	32628	31773	
3899	0	32020	32598	31772	
3900	0	31352	32626	31749	
3901	0	32084	32784	31765	
3902	0	33580	32725	31764	
3903	0	33802	32664	31781	
3904	0	33932	32135	31760	
3905	0	34388	32069	31759	
3906	0	34488	32218	31744	
3907	0	33892	32646	31757	
3908	0	33524	32932	31752	
3909	0	33208	32960	31759	
3910	0	32194	32992	31761	
3911	0	31510	32874	31760	
3912	0	32096	33120	31788	
3913	0	32428	33474	31794	
3914	0	32416	33488	31824	
3915	0	32812	33536	31800	
3916	0	32840	33125	31782	
3917	0	32533	33116	31772	
3918	0	32484	32276	31778	
3919	0	32264	31903	31796	
3920	0	32296	32452	31784	
3921	0	32588	32554	31785	
3922	0	32376	32268	31776	
3923	0	32848	32581	31751	
3924	0	33454	33028	31744	
3925	0	32861	33180	31766	
3926	0	34276	34016	31766	
3927	0	34084	34264	31744	
3928	0	33132	33108	31720	
3929	0	32940	32084	31750	
3930	0	32696	31682	31767	
3931	0	32614	31794	31756	
3932	0	32676	32072	31765	
3933	0	32444	33088	31780	
3934	0	32152	33604	31799	
3935	0	31636	33118	31813	
3936	0	32084	32588	31796	
3937	0	32220	32756	31782	
3938	0	32592	33206	31796	
3939	0	33457	33088	31799	
3940	0	33021	32896	31807	
3941	0	33244	32744	31796	
3942	0	32961	32600	31788	
3943	0	32938	32908	31774	
3944	0	32668	32552	31760	
3945	0	32652	32518	31751	
3946	0	32636	32724	31750	
3947	0	32736	32885	31751	
3948	0	32936	32731	31742	
3949	0	32730	33124	31736	
3950	0	32902	32948	31726	
3951	0	33164	33130	31744	
3952	0	32988	33276	31757	
3953	0	32932	33188	31759	
3954	0	33020	33164	31773	
3955	0	32976	33031	31789	
3956	0	32584	32964	31759	
3957	0	32640	32712	31768	
3958	0	32472	32992	31760	
3959	0	32632	32506	31774	
3960	0	32884	32480	31760	
3961	0	32760	33020	31776	
3962	0	32860	33196	31756	
3963	0	33080	32792	31751	
3964	0	32592	31832	31744	
3965	0	32576	31840	31749	
3966	0	32856	32290	31760	
3967	0	32992	32700	31751	
3968	0	33024	32828	31775	
3969	0	32580	32948	31773	
3970	0	31492	32964	31780	
3971	0	31680	33000	31785	
3972	0	32608	33372	31768	
3973	0	33370	33077	31800	
3974	0	33604	33190	31764	
3975	0	33476	32263	31776	
3976	0	33704	32164	31760	
3977	0	33652	33201	31748	
3978	0	33048	33624	31760	
3979	0	32676	33220	31748	
3980	0	32244	33280	31756	
3981	0	31800	32824	31767	
3982	0	32560	32384	31764	
3983	0	32972	33060	31751	
3984	0	32848	33053	31764	
3985	0	32182	32704	31733	
3986	0	31692	32604	31716	
3987	0	31662	32728	31717	
3988	0	32353	32577	31721	
3989	0	32784	32589	31728	
3990	0	33021	32552	31748	
3991	0	34257	32784	31771	
3992	0	35040	32884	31778	
3993	0	34628	33100	31768	
3994	0	33156	33052	31751	
3995	0	32118	33241	31772	
3996	0	31424	33320	31770	
3997	0	31348	33189	31757	
3998	0	33372	32236	31748	
3999	0	33128	32257	31734	
4000	0	32176	32684	31734	
4001	0	32128	32534	31717	
4002	0	32224	32300	31733	
4003	0	33168	32872	31728	
4004	0	33604	33194	31740	
4005	0	33436	33008	31750	
4006	0	32948	32748	31751	
4007	0	33052	32536	31740	
4008	0	33024	32536	31734	
4009	0	32734	32585	31742	
4010	0	32704	32724	31776	
4011	0	32701	33044	31772	
4012	0	32485	33004	31780	
4013	0	32632	33354	31769	
4014	0	32304	33286	31769	
4015	0	32204	32824	31789	
4016	0	32296	32606	31796	
4017	0	32448	32769	31790	
4018	0	32325	32624	31785	
4019	0	32128	32936	31790	
4020	0	32728	33112	31788	
4021	0	33329	33008	31776	
4022	0	33158	32932	31768	
4023	0	33046	33068	31760	
4024	0	33164	33058	31760	
4025	0	33080	32346	31760	
4026	0	33188	32326	31735	
4027	0	33934	32288	31744	
4028	0	33808	32428	31740	
4029	0	33237	32914	31740	
4030	0	32837	32829	31759	
4031	0	32132	32650	31752	
4032	0	32216	33401	31752	
4033	0	31960	34023	31744	
4034	0	32208	33643	31764	
4035	0	32976	33329	31757	
4036	0	32568	32879	31746	
4037	0	32480	32602	31740	
4038	0	32230	32440	31740	
4039	0	32226	32641	31724	
4040	0	31340	32576	31724	
4041	0	32020	32672	31732	
4042	0	32602	32442	31712	
4043	0	33338	32558	31704	
4044	0	34200	32944	31700	
4045	0	34372	32696	31703	
4046	0	34401	32486	31689	
4047	0	34032	32556	31688	
4048	0	33653	32708	31696	
4049	0	33400	32945	31721	
4050	0	32644	33004	31736	
4051	0	32120	32971	31741	
4052	0	32673	32912	31737	
4053	0	32460	33268	31732	
4054	0	31944	33412	31736	
4055	0	31020	33224	31756	
4056	0	31012	32846	31764	
4057	0	30728	32781	31748	
4058	0	31701	32632	31740	
4059	0	33016	32936	31721	
4060	0	33908	32823	31704	
4061	0	34700	32550	31700	
4062	0	34668	32644	31696	
4063	0	34472	33124	31677	
4064	0	33440	32716	31676	
4065	0	32489	32701	31666	
4066	0	32284	32308	31671	
4067	0	32497	32233	31670	
4068	0	32484	32472	31688	
4069	0	32752	32826	31692	
4070	0	33908	33270	31704	
4071	0	32920	33820	31732	
4072	0	32288	33828	31739	
4073	0	32188	33121	31740	
4074	0	32072	32428	31751	
4075	0	32501	32586	31742	
4076	0	32502	33673	31733	
4077	0	32144	33972	31719	
4078	0	31972	32968	31720	
4079	0	31128	31988	31708	
4080	0	31809	31614	31689	
4081	0	33258	31140	31682	
4082	0	33364	31340	31677	
4083	0	34032	32732	31665	
4084	0	34205	33324	31649	
4085	0	34056	33316	31658	
4086	0	33649	33609	31684	
4087	0	33220	33408	31664	
4088	0	32984	33001	31653	
4089	0	32609	32976	31656	
4090	0	32524	32516	31660	
4091	0	32312	32768	31684	
4092	0	32808	32813	31680	
4093	0	32832	33028	31702	
4094	0	32448	33216	31720	
4095	0	32552	32920	31716	
4096	0	32344	32804	31728	
4097	0	32566	32752	31724	
4098	0	32436	32456	31728	
4099	0	32409	32825	31737	
4100	0	32428	32548	31719	
4101	0	32536	32234	31732	
4102	0	32709	32701	31709	
4103	0	32768	33044	31716	
4104	0	32704	33160	31714	
4105	0	32812	32857	31694	
4106	0	32712	32940	31677	
4107	0	32864	32904	31682	
4108	0	34087	32744	31664	
4109	0	33450	32889	31690	
4110	0	33352	33196	31696	
4111	0	33376	33128	31686	
4112	0	32440	32653	31692	
4113	0	31641	32937	31697	
4114	0	31340	32988	31712	
4115	0	32604	33201	31704	
4116	0	32840	33096	31708	
4117	0	33532	32797	31709	
4118	0	33584	32441	31736	
4119	0	33184	32272	31735	
4120	0	32928	32582	31725	
4121	0	33036	33048	31716	
4122	0	32580	32652	31718	
4123	0	32002	33014	31708	
4124	0	32652	33073	31698	
4125	0	32360	32800	31680	
4126	0	32136	32600	31698	
4127	0	32272	32600	31704	
4128	0	32684	32636	31688	
4129	0	33100	32640	31704	
4130	0	33044	32960	31708	
4131	0	33069	33057	31724	
4132	0	33420	32998	31740	
4133	0	33564	33060	31729	
4134	0	32892	32980	31721	
4135	0	32493	32861	31734	
4136	0	32772	33406	31744	
4137	0	32533	33017	31748	
4138	0	32549	32641	31750	
4139	0	33220	32260	31740	
4140	0	33108	32263	31733	
4141	0	32796	32485	31724	
4142	0	32748	32444	31716	
4143	0	32944	32729	31706	
4144	0	32908	32854	31715	
4145	0	32768	32832	31717	
4146	0	32741	32896	31740	
4147	0	32730	32876	31757	
4148	0	32868	32984	31744	
4149	0	32440	33100	31749	
4150	0	32732	33120	31733	
4151	0	32676	33287	31720	
4152	0	32424	33169	31732	
4153	0	32469	33606	31748	
4154	0	32457	33466	31750	
4155	0	33108	33448	31736	
4156	0	33552	33036	31750	
4157	0	33505	32168	31760	
4158	0	33340	31816	31751	
4159	0	32200	31964	31765	
4160	0	31528	32613	31772	
4161	0	31364	32652	31758	
4162	0	32320	32708	31750	
4163	0	33026	32863	31756	
4164	0	33240	33088	31719	
4165	0	33204	33020	31706	
4166	0	32681	32713	31696	
4167	0	32708	32724	31711	
4168	0	33286	32964	31706	
4169	0	33601	32888	31712	
4170	0	33420	33228	31700	
4171	0	33188	32924	31716	
4172	0	31762	32896	31738	
4173	0	31912	32988	31741	
4174	0	32254	33190	31752	
4175	0	32388	32984	31740	
4176	0	33094	32719	31748	
4177	0	33484	32856	31753	
4178	0	33468	32672	31737	
4179	0	33520	32680	31746	
4180	0	33292	32456	31740	
4181	0	32776	32647	31750	
4182	0	32844	32728	31765	
4183	0	33113	32592	31761	
4184	0	32216	32734	31756	
4185	0	32116	32793	31756	
4186	0	32753	32969	31748	
4187	0	32648	33213	31748	
4188	0	32773	32584	31751	
4189	0	33008	32716	31746	
4190	0	33000	32864	31745	
4191	0	32916	33084	31756	
4192	0	32732	33050	31768	
4193	0	32657	33140	31771	
4194	0	32442	32940	31792	
4195	0	32480	32780	31789	
4196	0	32352	32692	31794	
4197	0	32138	32708	31805	
4198	0	32104	32860	31801	
4199	0	32356	32796	31818	
4200	0	32217	32268	31830	
4201	0	32109	31940	31812	
4202	0	32284	32738	31812	
4203	0	31908	33204	31812	
4204	0	33460	33049	31796	
4205	0	33560	33208	31783	
4206	0	33128	32964	31776	
4207	0	33652	33092	31770	
4208	0	33612	33164	31766	
4209	0	35826	32880	31748	
4210	0	35576	32650	31744	
4211	0	34000	32704	31765	
4212	0	32648	32830	31764	
4213	0	31770	33821	31759	
4214	0	31664	33860	31760	
4215	0	31760	33241	31748	
4216	0	32272	32620	31736	
4217	0	32516	32156	31732	
4218	0	32294	31736	31721	
4219	0	32189	31540	31732	
4220	0	32056	32220	31748	
4221	0	32372	32828	31738	
4222	0	32384	32850	31738	
4223	0	32692	33064	31733	
4224	0	32840	33252	31744	
4225	0	33032	32788	31750	
4226	0	33252	33006	31736	
4227	0	33438	33174	31716	
4228	0	33292	32644	31732	
4229	0	32916	32188	31725	
4230	0	32741	32414	31716	
4231	0	33072	32968	31735	
4232	0	32660	33639	31733	
4233	0	32356	33459	31744	
4234	0	32852	33330	31772	
4235	0	32474	32676	31777	
4236	0	32136	32544	31756	
4237	0	32814	32644	31765	
4238	0	33077	32544	31778	
4239	0	32800	32548	31751	
4240	0	32020	32824	31756	
4241	0	31369	32960	31736	
4242	0	31432	32681	31745	
4243	0	31540	32926	31744	
4244	0	31836	32981	31760	
4245	0	32524	32764	31751	
4246	0	33364	32280	31736	
4247	0	34241	32613	31726	
4248	0	34900	33125	31710	
4249	0	35957	33336	31732	
4250	0	35406	33287	31736	
4251	0	34132	33472	31751	
4252	0	33006	33120	31756	
4253	0	32444	32850	31754	
4254	0	31832	32964	31756	
4255	0	31828	32854	31760	
4256	0	31861	32692	31777	
4257	0	32144	32356	31775	
4258	0	31860	32007	31761	
4259	0	31624	32273	31758	
4260	0	32190	32832	31766	
4261	0	32348	33148	31780	
4262	0	32492	32832	31767	
4263	0	32736	33172	31750	
4264	0	32964	33135	31751	
4265	0	33020	32711	31733	
4266	0	33429	32529	31743	
4267	0	33692	32444	31724	
4268	0	33517	32543	31716	
4269	0	33144	32712	31708	
4270	0	33108	32980	31728	
4271	0	32884	33220	31728	
4272	0	32552	33348	31729	
4273	0	32324	33412	31732	
4274	0	31548	33862	31752	
4275	0	30750	33528	31748	
4276	0	30840	32576	31740	
4277	0	32116	32207	31720	
4278	0	33334	31988	31712	
4279	0	34180	32532	31701	
4280	0	34140	32752	31688	
4281	0	34596	32856	31678	
4282	0	34728	32870	31670	
4283	0	33498	33122	31660	
4284	0	33296	32852	31665	
4285	0	32288	32541	31660	
4286	0	31948	32092	31660	
4287	0	32545	32212	31676	
4288	0	32786	32712	31693	
4289	0	33280	33112	31685	
4290	0	33100	33300	31697	
4291	0	32756	33108	31692	
4292	0	32396	32729	31688	
4293	0	32182	33178	31696	
4294	0	32004	33398	31704	
4295	0	32117	33184	31712	
4296	0	32144	32820	31716	
4297	0	32048	32594	31712	
4298	0	32033	32781	31717	
4299	0	32080	33008	31705	
4300	0	32276	32808	31708	
4301	0	33296	32705	31716	
4302	0	33680	32476	31732	
4303	0	34080	32660	31720	
4304	0	33876	32534	31724	
4305	0	33076	32616	31724	
4306	0	33168	33025	31724	
4307	0	32804	32816	31736	
4308	0	32798	32821	31732	
4309	0	33096	32740	31729	
4310	0	33048	33040	31742	
4311	0	32882	32960	31759	
4312	0	32528	32676	31754	
4313	0	32322	33240	31767	
4314	0	32454	33358	31790	
4315	0	32192	33084	31778	
4316	0	32016	32908	31772	
4317	0	31348	32902	31768	
4318	0	31620	32890	31768	
4319	0	32596	32824	31750	
4320	0	33732	32372	31751	
4321	0	34325	32629	31751	
4322	0	34241	32640	31765	
4323	0	33928	32865	31775	
4324	0	32724	33156	31759	
4325	0	32134	32738	31750	
4326	0	31872	33052	31737	
4327	0	32476	32977	31712	
4328	0	33432	32765	31716	
4329	0	32706	32816	31721	
4330	0	32430	32954	31724	
4331	0	32564	32968	31741	
4332	0	32501	32749	31744	
4333	0	32724	32960	31744	
4334	0	33217	33222	31760	
4335	0	33590	33498	31769	
4336	0	33028	32997	31756	
4337	0	33264	32680	31740	
4338	0	33520	32444	31729	
4339	0	32584	32468	31724	
4340	0	32264	32697	31751	
4341	0	32180	32580	31751	
4342	0	31928	32376	31728	
4343	0	31896	32436	31732	
4344	0	32308	32641	31720	
4345	0	32584	32944	31712	
4346	0	33041	32748	31717	
4347	0	33460	32742	31689	
4348	0	33308	32860	31688	
4349	0	33518	32923	31684	
4350	0	32857	32870	31700	
4351	0	32464	32924	31708	
4352	0	32488	33215	31737	
4353	0	32775	33071	31735	
4354	0	33728	33336	31732	
4355	0	33356	33741	31732	
4356	0	33193	33464	31735	
4357	0	33232	33296	31724	
4358	0	32276	33140	31724	
4359	0	31628	33402	31720	
4360	0	31893	32106	31716	
4361	0	32072	31140	31727	
4362	0	32864	31724	31712	
4363	0	33224	32184	31732	
4364	0	33113	32497	31749	
4365	0	32324	32740	31732	
4366	0	32376	32850	31743	
4367	0	32833	32885	31733	
4368	0	33381	32780	31720	
4369	0	33860	32812	31720	
4370	0	34200	32600	31729	
4371	0	33524	32848	31733	
4372	0	32752	33168	31728	
4373	0	32112	33608	31721	
4374	0	32072	33704	31718	
4375	0	32452	33029	31729	
4376	0	31852	32840	31744	
4377	0	31524	33230	31741	
4378	0	32764	32858	31720	
4379	0	33008	32537	31716	
4380	0	32783	32370	31728	
4381	0	32818	32434	31717	
4382	0	32724	32569	31720	
4383	0	32912	32956	31721	
4384	0	32596	32936	31744	
4385	0	31672	33010	31732	
4386	0	32048	32817	31733	
4387	0	32612	32508	31740	
4388	0	33016	32610	31734	
4389	0	34224	33408	31744	
4390	0	34554	33700	31736	
4391	0	34796	32953	31724	
4392	0	34396	32241	31740	
4393	0	33905	32846	31738	
4394	0	33312	33337	31764	
4395	0	31732	33221	31770	
4396	0	30684	32903	31782	
4397	0	31212	32620	31768	
4398	0	31408	32845	31768	
4399	0	32764	32688	31751	
4400	0	32788	32492	31751	
4401	0	32376	32440	31728	
4402	0	32888	32536	31741	
4403	0	33200	32786	31732	
4404	0	33048	32592	31728	
4405	0	32524	32742	31733	
4406	0	32225	32700	31744	
4407	0	32830	33074	31720	
4408	0	33308	32767	31720	
4409	0	33482	32801	31733	
4410	0	33256	33056	31750	
4411	0	33061	32998	31746	
4412	0	31436	33062	31757	
4413	0	32060	33369	31765	
4414	0	32056	33337	31759	
4415	0	32632	32881	31772	
4416	0	33456	32684	31782	
4417	0	33412	32816	31790	
4418	0	33638	32688	31768	
4419	0	33760	32612	31757	
4420	0	33708	32793	31769	
4421	0	33200	32836	31757	
4422	0	32185	32433	31772	
4423	0	32124	32448	31762	
4424	0	32480	33167	31751	
4425	0	32584	32882	31759	
4426	0	32644	33000	31764	
4427	0	32982	32848	31751	
4428	0	33102	32692	31754	
4429	0	32860	32805	31751	
4430	0	32789	32837	31750	
4431	0	32864	32848	31756	
4432	0	32832	33070	31772	
4433	0	32686	33124	31764	
4434	0	32548	33002	31752	
4435	0	32196	32692	31770	
4436	0	32136	32584	31760	
4437	0	32084	32924	31758	
4438	0	32364	32716	31780	
4439	0	32822	32460	31773	
4440	0	32412	32641	31756	
4441	0	32688	32647	31762	
4442	0	32869	32788	31753	
4443	0	33024	32612	31748	
4444	0	33260	33024	31736	
4445	0	33346	33028	31749	
4446	0	33026	33122	31732	
4447	0	33060	32912	31718	
4448	0	33528	32796	31738	
4449	0	32989	32856	31746	
4450	0	32848	32775	31736	
4451	0	33108	32791	31748	
4452	0	32576	33127	31725	
4453	0	32709	33248	31760	
4454	0	32412	33024	31750	
4455	0	33214	32976	31724	
4456	0	33168	32349	31743	
4457	0	32508	32452	31751	
4458	0	31952	32529	31766	
4459	0	31632	32656	31744	
4460	0	31776	33032	31751	
4461	0	32469	32959	31741	
4462	0	33412	32838	31728	
4463	0	33888	32763	31746	
4464	0	33992	33284	31734	
4465	0	33114	33092	31724	
4466	0	31956	32748	31712	
4467	0	31964	32676	31705	
4468	0	32668	33132	31725	
4469	0	33018	32848	31726	
4470	0	32749	32377	31720	
4471	0	33220	32961	31729	
4472	0	33756	33012	31728	
4473	0	33670	32862	31720	
4474	0	32956	32996	31752	
4475	0	32069	32366	31745	
4476	0	32380	32365	31740	
4477	0	32184	33553	31740	
4478	0	31504	33054	31736	
4479	0	31476	32439	31728	
4480	0	31012	32056	31730	
4481	0	31956	32327	31716	
4482	0	33104	31832	31712	
4483	0	34776	31808	31716	
4484	0	34788	32229	31704	
4485	0	34808	32784	31692	
4486	0	34472	33250	31688	
4487	0	33736	33464	31670	
4488	0	32941	33568	31660	
4489	0	32960	33230	31660	
4490	0	33324	32736	31656	
4491	0	33306	32364	31652	
4492	0	32628	32248	31662	
4493	0	31869	32484	31680	
4494	0	31364	33120	31680	
4495	0	31664	34116	31672	
4496	0	31782	34456	31684	
4497	0	31644	33313	31700	
4498	0	31776	31244	31693	
4499	0	31988	31712	31672	
4500	0	32422	34189	31662	
4501	0	33044	34447	31665	
4502	0	33052	33476	31668	
4503	0	33100	33420	31676	
4504	0	33736	33076	31676	
4505	0	33576	33092	31668	
4506	0	32140	32720	31660	
4507	0	31784	32368	31646	
4508	0	32956	32304	31644	
4509	0	32992	32378	31676	
4510	0	35156	32466	31686	
4511	0	34732	32998	31694	
4512	0	33428	32784	31706	
4513	0	32620	32840	31684	
4514	0	32208	33204	31724	
4515	0	31876	33000	31726	
4516	0	31996	32856	31724	
4517	0	32180	32743	31734	
4518	0	32200	32374	31720	
4519	0	32472	32024	31724	
4520	0	32480	32532	31719	
4521	0	32582	32912	31716	
4522	0	32820	32857	31717	
4523	0	33241	32817	31733	
4524	0	33064	32736	31736	
4525	0	32924	32744	31726	
4526	0	32974	32575	31724	
4527	0	33020	32646	31724	
4528	0	32952	32785	31716	
4529	0	32884	32916	31712	
4530	0	32685	33252	31725	
4531	0	32594	32968	31714	
4532	0	32688	32636	31732	
4533	0	32780	32846	31728	
4534	0	33004	33156	31760	
4535	0	33132	33369	31758	
4536	0	33012	33012	31756	
4537	0	32722	32739	31768	
4538	0	32420	32552	31767	
4539	0	32064	32300	31772	
4540	0	31768	32468	31781	
4541	0	32445	32808	31782	
4542	0	31736	32936	31773	
4543	0	31704	33436	31744	
4544	0	32744	33352	31740	
4545	0	33380	32844	31720	
4546	0	33636	32520	31684	
4547	0	34329	32140	31708	
4548	0	34548	32711	31728	
4549	0	34048	32992	31744	
4550	0	33273	33040	31729	
4551	0	32412	32988	31727	
4552	0	32336	32592	31721	
4553	0	31610	32534	31706	
4554	0	31088	32825	31712	
4555	0	30873	32838	31710	
4556	0	30836	32804	31701	
4557	0	31596	33032	31679	
4558	0	32736	33184	31677	
4559	0	34448	32840	31684	
4560	0	34846	31780	31685	
4561	0	35044	32392	31696	
4562	0	35640	32897	31689	
4563	0	35468	33214	31676	
4564	0	35144	33095	31653	
4565	0	33068	32827	31665	
4566	0	31372	33101	31668	
4567	0	31188	32701	31664	
4568	0	31076	32900	31660	
4569	0	31472	33374	31644	
4570	0	31836	33542	31660	
4571	0	31812	32952	31670	
4572	0	31972	32572	31677	
4573	0	32284	32852	31676	
4574	0	32756	33132	31708	
4575	0	33912	33100	31712	
4576	0	33636	32802	31694	
4577	0	32841	32692	31712	
4578	0	32188	32653	31724	
4579	0	31972	32808	31732	
4580	0	31528	32760	31744	
4581	0	32144	32741	31724	
4582	0	33012	32665	31724	
4583	0	33080	32524	31730	
4584	0	32964	32977	31728	
4585	0	33076	32829	31716	
4586	0	32938	32772	31705	
4587	0	33472	32597	31696	
4588	0	33344	32631	31701	
4589	0	33192	32631	31716	
4590	0	33124	32948	31717	
4591	0	33140	33225	31736	
4592	0	32748	33224	31718	
4593	0	32585	33000	31751	
4594	0	32600	33159	31777	
4595	0	32696	33064	31780	
4596	0	32386	32630	31788	
4597	0	31992	32808	31766	
4598	0	32088	32900	31765	
4599	0	32481	32653	31756	
4600	0	32720	32440	31786	
4601	0	33072	32364	31772	
4602	0	32938	32334	31768	
4603	0	33316	32910	31757	
4604	0	33752	32900	31756	
4605	0	33124	32767	31732	
4606	0	32536	32750	31721	
4607	0	32132	32793	31713	
4608	0	32284	32857	31721	
4609	0	31717	32940	31712	
4610	0	31932	33210	31718	
4611	0	32712	33372	31717	
4612	0	33669	32892	31709	
4613	0	33512	33104	31700	
4614	0	33977	33021	31716	
4615	0	34165	32947	31708	
4616	0	33601	33124	31708	
4617	0	32856	33172	31728	
4618	0	32884	33303	31737	
4619	0	32229	33044	31732	
4620	0	31076	32842	31727	
4621	0	31776	32732	31735	
4622	0	32146	33135	31729	
4623	0	32561	32780	31732	
4624	0	32280	32088	31729	
4625	0	32504	31388	31724	
4626	0	33752	30726	31724	
4627	0	34097	31380	31732	
4628	0	34476	32869	31724	
4629	0	34338	33385	31718	
4630	0	33720	33525	31726	
4631	0	33084	33564	31733	
4632	0	32080	33287	31716	
