# OpenSignals Text File Format
# {"00:07:80:4D:2E:AD": {"sensor": ["EMG", "EMG", "XYZ"], "device name": "00:07:80:4D:2E:AD", "column": ["nSeq", "DI", "CH1", "CH2", "CH3"], "sync interval": 2, "time": "15:35:49.369", "comments": "stone | ch1_flexor_digitorum_superficialis ch2_aductor_policis ch3_acc_z [trial 4]", "device connection": "BTH00:07:80:4D:2E:AD", "channels": [1, 2, 3], "keywords": "", "mode": 0, "digital IO": [0, 1], "firmware version": 773, "device": "biosignalsplux", "position": 0, "sampling rate": 1000, "label": ["CH1", "CH2", "CH3"], "resolution": [16, 16, 16], "date": "2019-1-23", "special": [{}, {}, {}]}}
# EndOfHeader
0	0	32432	32860	36064	
1	0	32460	32872	36064	
2	0	32476	32884	36032	
3	0	32618	32748	36030	
4	0	32660	32808	36038	
5	0	32652	32944	36032	
6	0	32748	32853	36012	
7	0	32840	32701	36005	
8	0	32908	32821	36001	
9	0	33050	32800	35984	
10	0	33048	32751	35992	
11	0	33052	32822	35974	
12	0	33008	32768	35965	
13	0	33032	32748	35944	
14	0	33012	32797	35940	
15	0	32902	32866	35936	
16	0	32778	32754	35952	
17	0	32736	32749	35940	
18	0	32620	32913	35964	
19	0	32574	32908	35964	
20	0	32516	32821	35997	
21	0	32564	32828	35994	
22	0	32604	32768	35994	
23	0	32609	32765	35988	
24	0	32740	32801	35989	
25	0	32744	32773	35984	
26	0	32702	32684	35992	
27	0	32812	32828	35980	
28	0	32828	32751	35965	
29	0	32882	32781	35982	
30	0	32968	32785	35978	
31	0	33058	32804	36000	
32	0	32972	32760	36005	
33	0	33033	32765	36004	
34	0	33062	32848	36001	
35	0	32888	32790	35988	
36	0	32733	32974	35996	
37	0	32684	32957	36017	
38	0	32713	32936	36023	
39	0	32544	32775	36026	
40	0	32516	32994	36047	
41	0	32576	32900	36040	
42	0	32536	32903	36024	
43	0	32609	32824	36015	
44	0	32628	32857	36036	
45	0	32617	32676	36016	
46	0	32780	32812	36004	
47	0	32862	32768	36018	
48	0	32949	32740	36024	
49	0	33010	32852	35988	
50	0	33064	32794	35992	
51	0	33060	32892	36004	
52	0	33120	32812	35988	
53	0	33064	32902	35960	
54	0	33024	32833	35958	
55	0	32900	32796	36000	
56	0	32762	32894	36008	
57	0	32741	32910	36018	
58	0	32644	32916	36020	
59	0	32588	32984	36004	
60	0	32560	32908	36029	
61	0	32476	32902	36032	
62	0	32508	32966	36012	
63	0	32541	32793	36021	
64	0	32604	32668	36021	
65	0	32652	32783	36016	
66	0	32728	32697	35994	
67	0	32820	32786	35996	
68	0	32972	32828	35998	
69	0	33048	32868	36004	
70	0	32984	32908	36012	
71	0	33045	32945	35994	
72	0	33028	32845	36000	
73	0	33010	32881	35982	
74	0	33000	32820	35969	
75	0	32932	32794	35989	
76	0	32748	32970	35992	
77	0	32797	32844	36008	
78	0	32636	32820	36026	
79	0	32588	32685	36044	
80	0	32496	32908	36036	
81	0	32488	32692	36004	
82	0	32506	32688	36000	
83	0	32516	32834	36000	
84	0	32672	32780	36004	
85	0	32772	32761	36021	
86	0	32789	32772	36036	
87	0	32856	32820	36021	
88	0	33016	32844	35992	
89	0	32997	32856	36025	
90	0	32980	32866	36012	
91	0	32972	32816	36008	
92	0	32960	32740	35972	
93	0	32952	32774	35952	
94	0	32994	32802	35948	
95	0	32880	32814	35982	
96	0	32864	32794	35994	
97	0	32728	32773	35980	
98	0	32680	32816	36000	
99	0	32620	32895	36012	
100	0	32576	32986	35994	
101	0	32532	32897	35986	
102	0	32525	32802	35992	
103	0	32604	32796	35996	
104	0	32570	32885	36000	
105	0	32664	32800	35984	
106	0	32797	32836	35976	
107	0	32857	32838	35984	
108	0	32940	32788	35996	
109	0	32976	32696	35996	
110	0	32948	32846	35988	
111	0	33009	32890	35974	
112	0	33038	32724	35982	
113	0	33032	32726	35985	
114	0	33012	32784	35980	
115	0	32868	32824	35992	
116	0	32760	32930	35992	
117	0	32736	33038	36023	
118	0	32648	32920	36020	
119	0	32553	32765	36036	
120	0	32516	32849	36060	
121	0	32525	32905	36052	
122	0	32541	32908	36036	
123	0	32588	32820	36008	
124	0	32648	32890	36021	
125	0	32740	32708	36020	
126	0	32765	32543	35990	
127	0	32834	32688	35985	
128	0	32906	32813	36004	
129	0	32948	32816	36004	
130	0	33020	32773	36020	
131	0	33082	32822	36021	
132	0	32984	32817	36005	
133	0	33016	32812	35990	
134	0	32972	32782	36000	
135	0	32924	32831	35992	
136	0	32816	32943	35992	
137	0	32832	32956	36016	
138	0	32760	32920	36021	
139	0	32506	32846	36016	
140	0	32452	33040	36006	
141	0	32300	32954	36004	
142	0	32324	32864	35998	
143	0	32530	32864	35988	
144	0	32768	32805	35988	
145	0	32792	32600	35976	
146	0	32804	32704	35984	
147	0	32830	32804	35993	
148	0	32872	32764	35996	
149	0	32944	32577	35996	
150	0	33068	32933	36009	
151	0	33088	32744	36001	
152	0	33049	32728	35962	
153	0	33000	32752	35968	
154	0	32932	32800	35968	
155	0	32920	32824	35976	
156	0	32904	32842	35992	
157	0	32800	32996	35980	
158	0	32640	32908	35988	
159	0	32536	33050	36010	
160	0	32552	32897	36001	
161	0	32527	32901	36001	
162	0	32520	32885	36020	
163	0	32596	32745	36000	
164	0	32648	32825	35980	
165	0	32628	32860	35992	
166	0	32796	32765	35980	
167	0	32870	32732	35988	
168	0	32906	32772	36004	
169	0	33050	32775	36020	
170	0	33004	32854	36020	
171	0	32989	32939	35996	
172	0	33000	32860	35973	
173	0	32996	32813	35958	
174	0	33013	32733	35964	
175	0	32844	32871	35971	
176	0	32770	32741	35979	
177	0	32677	32857	35989	
178	0	32577	32833	35992	
179	0	32596	32830	36008	
180	0	32545	33005	35996	
181	0	32485	33004	35986	
182	0	32569	32862	35992	
183	0	32520	32864	35988	
184	0	32648	32945	35998	
185	0	32764	32821	36020	
186	0	32822	32669	36005	
187	0	32888	32732	36037	
188	0	32940	32742	36036	
189	0	33052	32750	36020	
190	0	33024	32744	36009	
191	0	33133	32804	36016	
192	0	33074	32845	36024	
193	0	33056	32836	36016	
194	0	32992	32768	36020	
195	0	32850	32796	36001	
196	0	32784	32852	36000	
197	0	32780	32968	36006	
198	0	32636	33053	36012	
199	0	32636	33008	36024	
200	0	32570	32852	36018	
201	0	32436	32953	36014	
202	0	32484	32862	35996	
203	0	32624	32797	35976	
204	0	32632	32637	35998	
205	0	32728	32640	35985	
206	0	32668	32581	35980	
207	0	32804	32741	35988	
208	0	32900	32782	35988	
209	0	32976	32856	35988	
210	0	33005	32852	35984	
211	0	33112	32856	35988	
212	0	33056	32866	35986	
213	0	33016	32800	35969	
214	0	32928	32792	35986	
215	0	32909	32888	35996	
216	0	32816	32935	35984	
217	0	32844	32972	35996	
218	0	32640	32980	36010	
219	0	32588	32808	36000	
220	0	32576	33012	35988	
221	0	32608	33016	36000	
222	0	32500	32815	36005	
223	0	32589	32668	36000	
224	0	32584	32769	36008	
225	0	32628	32646	36016	
226	0	32736	32628	36006	
227	0	32752	32680	36001	
228	0	32822	32740	36004	
229	0	33038	32873	35976	
230	0	32973	32772	35988	
231	0	33101	32796	35972	
232	0	33016	32783	35976	
233	0	33140	32814	35992	
234	0	33032	32934	35992	
235	0	32905	32937	36004	
236	0	32816	32808	35997	
237	0	32716	32809	35989	
238	0	32598	32940	36001	
239	0	32580	32788	35992	
240	0	32494	32941	36000	
241	0	32410	32881	35975	
242	0	32432	32840	35966	
243	0	32533	32753	35992	
244	0	32621	32736	35984	
245	0	32728	32720	35984	
246	0	32744	32786	35993	
247	0	32748	32895	35986	
248	0	32975	32892	35986	
249	0	32976	32925	35952	
250	0	33028	32925	35978	
251	0	33156	32954	35976	
252	0	33068	32913	35981	
253	0	33024	32920	36008	
254	0	32952	32884	36009	
255	0	32800	32861	35985	
256	0	32828	32896	35997	
257	0	32617	32794	36020	
258	0	32492	32689	36020	
259	0	32528	32740	36046	
260	0	32714	32874	36046	
261	0	32577	32784	36038	
262	0	32588	32816	36048	
263	0	32552	32789	36036	
264	0	32708	32786	36020	
265	0	32712	32745	36028	
266	0	32700	32689	35996	
267	0	32877	32668	35994	
268	0	33064	32816	36000	
269	0	32952	32876	35996	
270	0	32966	32732	35989	
271	0	32844	32729	35983	
272	0	32896	32792	35996	
273	0	32945	32890	35988	
274	0	32956	32860	35964	
275	0	32948	32816	35952	
276	0	32840	32873	35950	
277	0	32864	32991	35988	
278	0	32644	32875	36012	
279	0	32604	32878	36015	
280	0	32586	32877	36013	
281	0	32553	32830	36033	
282	0	32520	32885	36050	
283	0	32592	32886	36034	
284	0	32660	32837	36030	
285	0	32698	32798	36028	
286	0	32736	32796	36025	
287	0	32776	32880	36036	
288	0	32832	32894	36020	
289	0	32975	32900	36036	
290	0	32976	32809	36040	
291	0	33100	32807	36024	
292	0	33068	32848	36016	
293	0	33024	32796	36016	
294	0	33036	32800	36027	
295	0	32956	32810	36043	
296	0	32833	32940	36037	
297	0	32697	32844	36060	
298	0	32632	32849	36073	
299	0	32516	32959	36053	
300	0	32532	32896	36040	
301	0	32476	32804	36052	
302	0	32521	32832	36064	
303	0	32552	32916	36054	
304	0	32620	32833	36048	
305	0	32712	32748	36004	
306	0	32744	32704	36004	
307	0	32762	32766	36017	
308	0	32932	32740	36024	
309	0	33024	32732	36005	
310	0	32954	32843	35980	
311	0	32948	32832	35980	
312	0	32992	32844	35982	
313	0	32968	32747	35980	
314	0	32957	32784	35975	
315	0	32972	32803	35985	
316	0	32844	32884	35997	
317	0	32925	32893	36018	
318	0	32644	32836	36028	
319	0	32584	32897	36040	
320	0	32504	32962	36044	
321	0	32524	32944	36038	
322	0	32556	32932	36033	
323	0	32616	32844	36028	
324	0	32668	32740	36020	
325	0	32706	32696	36016	
326	0	32824	32856	36007	
327	0	32836	32736	35994	
328	0	32886	32745	35982	
329	0	32976	32844	35991	
330	0	33008	32736	35995	
331	0	32992	32600	35986	
332	0	32984	32662	35974	
333	0	32852	32752	36010	
334	0	32921	32903	36002	
335	0	32885	32869	35984	
336	0	32821	32909	35972	
337	0	32852	32893	35948	
338	0	32671	32937	35960	
339	0	32613	32997	35984	
340	0	32512	32877	35997	
341	0	32494	32920	35992	
342	0	32528	32856	35988	
343	0	32572	32865	35972	
344	0	32668	32904	35952	
345	0	32716	32880	35956	
346	0	32816	32775	35964	
347	0	32876	32793	35966	
348	0	32924	32745	35953	
349	0	32870	32928	35974	
350	0	33000	32884	35988	
351	0	33060	32773	35966	
352	0	32992	32665	35976	
353	0	33010	32624	35976	
354	0	32944	32780	35992	
355	0	32925	32870	35970	
356	0	32816	32780	35984	
357	0	32741	32884	35988	
358	0	32708	32953	35968	
359	0	32564	32945	35972	
360	0	32568	32888	35974	
361	0	32597	32832	35977	
362	0	32492	32881	35996	
363	0	32592	32892	35992	
364	0	32621	32880	36012	
365	0	32681	32872	36033	
366	0	32740	32762	36020	
367	0	32837	32852	36005	
368	0	32932	32775	36006	
369	0	32917	32745	36016	
370	0	32986	32922	36021	
371	0	33102	32844	36000	
372	0	33060	32845	35983	
373	0	32957	32768	35985	
374	0	32912	32788	35974	
375	0	32916	32812	35986	
376	0	32848	32844	36009	
377	0	32788	32841	36007	
378	0	32596	32864	36006	
379	0	32604	32997	35996	
380	0	32592	32934	36016	
381	0	32464	32910	36004	
382	0	32508	32844	36016	
383	0	32632	32830	36036	
384	0	32680	32831	36056	
385	0	32656	32756	36042	
386	0	32716	32681	36040	
387	0	32804	32836	36045	
388	0	32860	32908	36024	
389	0	32960	32798	36040	
390	0	33040	32948	36016	
391	0	33044	32781	36014	
392	0	33060	32701	36004	
393	0	32940	32700	36013	
394	0	32920	32640	36020	
395	0	32884	32666	36016	
396	0	32772	32700	36001	
397	0	32748	32796	36013	
398	0	32817	32830	36041	
399	0	32772	32884	36039	
400	0	32408	32797	36028	
401	0	32432	32968	36012	
402	0	32556	32911	36023	
403	0	32564	32857	36029	
404	0	32688	32853	36028	
405	0	32732	32872	36020	
406	0	32692	32825	36042	
407	0	32849	32703	36036	
408	0	32936	32712	36009	
409	0	32900	32807	36012	
410	0	33119	32704	36013	
411	0	33056	32671	36008	
412	0	33041	32752	36004	
413	0	32989	32752	35996	
414	0	32956	32900	35988	
415	0	32808	32916	35980	
416	0	32716	32935	35973	
417	0	32720	32897	35972	
418	0	32652	32996	35960	
419	0	32564	33009	35956	
420	0	32556	32970	35984	
421	0	32484	32845	36002	
422	0	32568	32775	35992	
423	0	32608	32888	36005	
424	0	32608	32833	36000	
425	0	32709	32820	36001	
426	0	32749	32775	35985	
427	0	32851	32732	35980	
428	0	32984	32834	36004	
429	0	32966	32876	35996	
430	0	32924	32800	35976	
431	0	33060	32800	35990	
432	0	33104	32736	36028	
433	0	33012	32836	36008	
434	0	32996	32880	36014	
435	0	32936	32810	36028	
436	0	32784	32846	36036	
437	0	32680	32970	36030	
438	0	32700	32888	36032	
439	0	32640	32827	36016	
440	0	32601	32721	36009	
441	0	32504	32884	36028	
442	0	32448	32916	36028	
443	0	32540	32904	36028	
444	0	32606	32753	36028	
445	0	32580	32724	36028	
446	0	32728	32712	36032	
447	0	32876	32730	36032	
448	0	32954	32745	36008	
449	0	32956	32942	35993	
450	0	33048	32974	35996	
451	0	33036	32832	35978	
452	0	33076	32726	35970	
453	0	33084	32700	35966	
454	0	33045	32756	35971	
455	0	32880	32793	35960	
456	0	32828	32985	36000	
457	0	32708	32981	36010	
458	0	32728	32931	36004	
459	0	32564	32896	36008	
460	0	32536	32836	36004	
461	0	32524	33017	36008	
462	0	32488	32896	36013	
463	0	32573	32892	36028	
464	0	32668	32838	36016	
465	0	32685	32801	36016	
466	0	32700	32784	36012	
467	0	32768	32813	36012	
468	0	32832	32850	36012	
469	0	32845	32793	36016	
470	0	32942	32806	36004	
471	0	32924	32724	35988	
472	0	32952	32672	35984	
473	0	33040	32532	35998	
474	0	33056	32597	36010	
475	0	32992	32620	36006	
476	0	32880	32756	36021	
477	0	32834	32869	36024	
478	0	32720	32854	36033	
479	0	32596	33001	36026	
480	0	32512	33040	36013	
481	0	32496	32949	36017	
482	0	32584	32851	36036	
483	0	32600	32940	36049	
484	0	32665	32808	36044	
485	0	32650	32924	36045	
486	0	32792	32888	36005	
487	0	32848	32828	36002	
488	0	32848	32702	36004	
489	0	32976	32716	36008	
490	0	32932	32825	36012	
491	0	32968	32910	35998	
492	0	32988	32818	36012	
493	0	33040	32813	36008	
494	0	32952	32758	36000	
495	0	32956	32822	36001	
496	0	32920	32848	36005	
497	0	32764	32879	36006	
498	0	32744	32918	36037	
499	0	32624	32877	36020	
500	0	32604	32711	36009	
501	0	32460	32704	36010	
502	0	32512	32982	36006	
503	0	32524	32912	36012	
504	0	32545	32872	36022	
505	0	32708	32816	36036	
506	0	32760	32775	36037	
507	0	32820	32860	36038	
508	0	32920	32808	36034	
509	0	32928	32743	36036	
510	0	32984	32703	36024	
511	0	33001	32697	36020	
512	0	33014	32854	36028	
513	0	32980	32800	36013	
514	0	33000	32837	35988	
515	0	32932	32896	35982	
516	0	32840	32925	36000	
517	0	32832	32862	36002	
518	0	32736	32852	36002	
519	0	32597	32980	36022	
520	0	32540	33000	36044	
521	0	32606	32909	36029	
522	0	32524	32876	36021	
523	0	32629	32704	36014	
524	0	32620	32613	36028	
525	0	32713	32698	36024	
526	0	32752	32796	36036	
527	0	32916	32881	36018	
528	0	32940	32708	36000	
529	0	32840	32752	35996	
530	0	32834	32921	36012	
531	0	32920	32900	36015	
532	0	32820	32845	36025	
533	0	32840	32836	36032	
534	0	32904	32864	36005	
535	0	32984	32796	36004	
536	0	33013	32789	35996	
537	0	32880	32793	36004	
538	0	32732	32824	36020	
539	0	32680	32836	36012	
540	0	32680	32911	36012	
541	0	32453	33000	36020	
542	0	32444	32971	36005	
543	0	32560	32948	36031	
544	0	32644	32812	36036	
545	0	32704	32749	36017	
546	0	32756	32772	36008	
547	0	32804	32806	36012	
548	0	32876	32780	35984	
549	0	33004	32758	35984	
550	0	33036	32964	35980	
551	0	33068	32921	35996	
552	0	33057	32898	36004	
553	0	32996	32860	35997	
554	0	33039	32908	35988	
555	0	32972	32924	35988	
556	0	32854	32758	35997	
557	0	32736	32885	35999	
558	0	32661	32848	36016	
559	0	32613	32712	36002	
560	0	32586	32804	36024	
561	0	32538	32853	36016	
562	0	32564	32761	36020	
563	0	32600	32704	36030	
564	0	32392	32658	36044	
565	0	32554	32622	36050	
566	0	32772	32732	36037	
567	0	32836	32837	36048	
568	0	32880	32908	36028	
569	0	32933	32838	36020	
570	0	33120	32861	36008	
571	0	33049	32868	36016	
572	0	33060	32791	36017	
573	0	33032	32854	36006	
574	0	32992	32904	35975	
575	0	32914	32712	35973	
576	0	32884	32689	35992	
577	0	32756	32741	35999	
578	0	32705	32796	35988	
579	0	32584	32936	36000	
580	0	32530	32904	36023	
581	0	32519	32796	36028	
582	0	32497	32833	36021	
583	0	32540	32814	35996	
584	0	32640	32852	35978	
585	0	32714	32840	35996	
586	0	32764	32832	35992	
587	0	32770	32880	35992	
588	0	32952	32876	36008	
589	0	32924	32802	36017	
590	0	33076	32766	35992	
591	0	33004	32792	36000	
592	0	33068	32764	36000	
593	0	33028	32658	36000	
594	0	32908	32753	35988	
595	0	32985	32824	35988	
596	0	32924	32914	36000	
597	0	32836	32924	36012	
598	0	32680	32896	36004	
599	0	32528	32935	36024	
600	0	32484	32882	36024	
601	0	32548	32941	36049	
602	0	32525	32906	36063	
603	0	32600	32896	36056	
604	0	32596	32781	36052	
605	0	32680	32793	36060	
606	0	32684	32697	36033	
607	0	32748	32804	36020	
608	0	32888	32780	35996	
609	0	32944	32772	35996	
610	0	32980	32876	36000	
611	0	33068	32928	36032	
612	0	33024	32813	36016	
613	0	32936	32838	36012	
614	0	33000	32708	36008	
615	0	32988	32740	35992	
616	0	32908	32797	35988	
617	0	32756	32824	36002	
618	0	32706	32780	36012	
619	0	32600	32892	36004	
620	0	32520	32892	36004	
621	0	32472	32804	35991	
622	0	32536	32832	36018	
623	0	32624	32852	36017	
624	0	32672	32895	36024	
625	0	32700	32933	36020	
626	0	32736	32771	35984	
627	0	32784	32804	35976	
628	0	32924	32726	35969	
629	0	32944	32748	35980	
630	0	32961	32744	36004	
631	0	33029	32835	36008	
632	0	33004	32856	36013	
633	0	33000	32928	36002	
634	0	32964	32788	35997	
635	0	32956	32720	35996	
636	0	32768	32784	35983	
637	0	32724	32848	35988	
638	0	32628	33022	35982	
639	0	32656	32916	35984	
640	0	32572	32929	35976	
641	0	32578	32809	35984	
642	0	32502	32936	36004	
643	0	32546	32812	36005	
644	0	32584	32870	36009	
645	0	32596	32841	36009	
646	0	32814	32950	36028	
647	0	32780	32793	36000	
648	0	32840	32740	35998	
649	0	32944	32721	35996	
650	0	32972	32860	36004	
651	0	33006	32820	35992	
652	0	33080	32652	36004	
653	0	33013	32680	36002	
654	0	33025	32685	36004	
655	0	32956	32807	36008	
656	0	32840	32954	36004	
657	0	32712	32944	35996	
658	0	32608	33001	36004	
659	0	32568	32894	36024	
660	0	32628	32880	36004	
661	0	32604	32908	36037	
662	0	32484	32833	36034	
663	0	32568	32860	36044	
664	0	32588	32908	36036	
665	0	32694	32900	36032	
666	0	32648	32844	36037	
667	0	32797	32813	36044	
668	0	32852	32879	36048	
669	0	32988	32833	36034	
670	0	32976	32783	36025	
671	0	33036	32905	36042	
672	0	33054	32816	36056	
673	0	32957	32668	36039	
674	0	33008	32548	36036	
675	0	32956	32621	36028	
676	0	32893	32608	36033	
677	0	32802	32728	36038	
678	0	32752	32834	36036	
679	0	32561	32941	36024	
680	0	32544	32900	36008	
681	0	32453	32876	36012	
682	0	32490	32908	36004	
683	0	32576	32852	36007	
684	0	32668	32906	36009	
685	0	32656	32884	36028	
686	0	32748	32798	36021	
687	0	32838	32834	36040	
688	0	32920	32840	36016	
689	0	32982	32820	36015	
690	0	32968	32744	36028	
691	0	32980	32824	36025	
692	0	33008	32904	36031	
693	0	33012	32903	36028	
694	0	33005	32968	36051	
695	0	32932	32924	36017	
696	0	32932	32877	36032	
697	0	32696	32848	36036	
698	0	32680	32854	36044	
699	0	32620	32837	36045	
700	0	32552	32878	36036	
701	0	32580	32732	36042	
702	0	32524	32753	36037	
703	0	32584	32774	36029	
704	0	32640	32789	36032	
705	0	32644	32854	36032	
706	0	32748	32874	36032	
707	0	32812	32762	36040	
708	0	32792	32752	36039	
709	0	32956	32755	36044	
710	0	32908	32800	36040	
711	0	33022	32796	36044	
712	0	33040	32652	36047	
713	0	32936	32660	36024	
714	0	33052	32662	36044	
715	0	32961	32895	36064	
716	0	32882	32876	36076	
717	0	32792	32872	36069	
718	0	32784	32928	36062	
719	0	32676	32917	36101	
720	0	32496	33064	36120	
721	0	32505	33021	36111	
722	0	32492	32950	36109	
723	0	32568	32940	36095	
724	0	32592	32902	36070	
725	0	32625	32725	36064	
726	0	32782	32805	36052	
727	0	32848	32852	36033	
728	0	32868	32846	36032	
729	0	32897	32844	36036	
730	0	32986	32765	36025	
731	0	32936	32648	36045	
732	0	33008	32728	36044	
733	0	32980	32895	36034	
734	0	32972	32764	36023	
735	0	32980	32756	36000	
736	0	32884	32736	35988	
737	0	32860	32948	35980	
738	0	32844	32968	35986	
739	0	32645	32983	36005	
740	0	32508	33060	36010	
741	0	32420	33028	36022	
742	0	32444	32954	36021	
743	0	32574	32813	36024	
744	0	32601	32793	36000	
745	0	32577	32954	36004	
746	0	32664	32941	36008	
747	0	32808	32772	36005	
748	0	32892	32736	36008	
749	0	32944	32744	36012	
750	0	33117	32834	35996	
751	0	33024	32802	35980	
752	0	33024	32688	35980	
753	0	32957	32716	35974	
754	0	32949	32697	35948	
755	0	33080	32816	35934	
756	0	32898	32836	35920	
757	0	32612	32796	35914	
758	0	32688	32906	35912	
759	0	32592	32950	35944	
760	0	32589	33016	35948	
761	0	32572	32922	35941	
762	0	32520	32836	35945	
763	0	32528	32912	35924	
764	0	32512	32822	35944	
765	0	32588	32717	35952	
766	0	32730	32756	35974	
767	0	32884	32806	36009	
768	0	32880	32692	36010	
769	0	32876	32706	36004	
770	0	32976	33002	36008	
771	0	33120	32848	36020	
772	0	33238	32760	36034	
773	0	33175	32775	36069	
774	0	33076	32836	36065	
775	0	32976	32820	36080	
776	0	32916	32723	36096	
777	0	32804	32773	36124	
778	0	32708	32834	36113	
779	0	32616	32892	36136	
780	0	32452	32906	36150	
781	0	32436	33098	36156	
782	0	32377	32958	36184	
783	0	32516	32873	36196	
784	0	32532	32734	36192	
785	0	32564	32849	36192	
786	0	32660	32838	36184	
787	0	32720	32801	36208	
788	0	32932	32772	36213	
789	0	33004	32670	36220	
790	0	33084	32677	36212	
791	0	33136	32749	36188	
792	0	33032	32738	36209	
793	0	32933	32748	36256	
794	0	33052	32804	36304	
795	0	32967	32793	36296	
796	0	32833	32844	36310	
797	0	32748	32841	36329	
798	0	32705	32920	36316	
799	0	32668	33050	36286	
800	0	32608	33044	36252	
801	0	32628	33048	36224	
802	0	32484	32918	36180	
803	0	32528	32794	36173	
804	0	32620	32864	36142	
805	0	32584	32800	36112	
806	0	32640	32836	36073	
807	0	32676	32904	36037	
808	0	32840	32854	36036	
809	0	32945	32775	36009	
810	0	33034	32888	35988	
811	0	33052	32785	35980	
812	0	33060	32690	36000	
813	0	33229	32775	36000	
814	0	33172	32904	36024	
815	0	33109	32808	36048	
816	0	32960	32836	36056	
817	0	32752	32759	36056	
818	0	32682	32836	36056	
819	0	32520	32985	36056	
820	0	32544	33030	36072	
821	0	32502	32920	36076	
822	0	32548	32868	36124	
823	0	32560	32856	36117	
824	0	32596	32852	36144	
825	0	32625	32808	36156	
826	0	32708	32696	36144	
827	0	32852	32692	36136	
828	0	32916	32717	36150	
829	0	32936	32836	36136	
830	0	33088	32964	36136	
831	0	33116	32892	36144	
832	0	33088	32815	36132	
833	0	33056	32804	36100	
834	0	32964	32775	36117	
835	0	32926	32888	36105	
836	0	32880	32894	36096	
837	0	32712	32854	36077	
838	0	32688	32854	36069	
839	0	32592	32805	36049	
840	0	32580	32772	36050	
841	0	32622	32886	36036	
842	0	32464	32824	36034	
843	0	32445	32628	36040	
844	0	32645	32584	36056	
845	0	32576	32484	36120	
846	0	32696	32385	36176	
847	0	32732	32485	36196	
848	0	32928	32560	36188	
849	0	33028	32484	36170	
850	0	33012	32585	36162	
851	0	32928	32540	36145	
852	0	32988	32388	36177	
853	0	32996	32569	36206	
854	0	32940	32564	36252	
855	0	33024	32439	36312	
856	0	33016	32328	36369	
857	0	32797	32128	36424	
858	0	32810	32332	36486	
859	0	32576	32591	36528	
860	0	32640	32612	36569	
861	0	32584	32600	36564	
862	0	32396	32616	36580	
863	0	32468	32605	36604	
864	0	32449	32644	36607	
865	0	32572	32729	36608	
866	0	32724	32884	36656	
867	0	32760	33074	36716	
868	0	32816	33036	36749	
869	0	32884	32876	36768	
870	0	33064	32972	36751	
871	0	32992	33069	36672	
872	0	32976	32941	36576	
873	0	32960	32916	36460	
874	0	32952	32724	36325	
875	0	32908	32838	36199	
876	0	32810	32949	36104	
877	0	32686	33092	36025	
878	0	32676	33066	35954	
879	0	32552	33313	35925	
880	0	32480	33376	35902	
881	0	32408	33389	35892	
882	0	32324	33081	35879	
883	0	32336	32834	35892	
884	0	32440	32744	35901	
885	0	32544	32839	35893	
886	0	32604	32736	35900	
887	0	32704	32604	35896	
888	0	32920	32537	35934	
889	0	33104	32460	35945	
890	0	33244	32406	35989	
891	0	33198	32650	36024	
892	0	33212	32477	36078	
893	0	33248	32444	36162	
894	0	33336	32517	36256	
895	0	33232	32572	36335	
896	0	32996	32782	36448	
897	0	32792	33030	36615	
898	0	32652	33010	36813	
899	0	32442	32929	36831	
900	0	32340	32956	36784	
901	0	32300	33124	36740	
902	0	32280	33028	36712	
903	0	32332	32739	36728	
904	0	32420	32712	36794	
905	0	32472	32888	36882	
906	0	32548	32936	36978	
907	0	32840	32844	37084	
908	0	32956	32928	37188	
909	0	33048	32992	37268	
910	0	33104	32891	37328	
911	0	33229	32820	37377	
912	0	33264	32844	37436	
913	0	33213	32826	37518	
914	0	33284	33000	37592	
915	0	33224	32990	37660	
916	0	32940	32988	37728	
917	0	32832	32932	37788	
918	0	32692	32925	37858	
919	0	32440	33062	37916	
920	0	32332	33108	37972	
921	0	32204	32992	38012	
922	0	32072	32916	38007	
923	0	32092	32960	37989	
924	0	32285	32945	38008	
925	0	32308	32934	37992	
926	0	32552	32723	37953	
927	0	32704	32756	37908	
928	0	32944	32948	37852	
929	0	33256	32978	37788	
930	0	33464	33199	37708	
931	0	33612	33320	37656	
932	0	33724	33378	37588	
933	0	33588	33051	37504	
934	0	33356	32908	37400	
935	0	33182	32927	37302	
936	0	32952	33044	37204	
937	0	32712	33108	37086	
938	0	32629	32850	36932	
939	0	32292	32536	36773	
940	0	32116	32649	36620	
941	0	31912	32780	36412	
942	0	31740	32668	36221	
943	0	31708	32681	36020	
944	0	32092	33012	35833	
945	0	32316	32936	35638	
946	0	32560	32378	35444	
947	0	32815	32207	35309	
948	0	32960	32091	35156	
949	0	33237	32328	34919	
950	0	33612	32636	34661	
951	0	33781	32662	34604	
952	0	33860	32935	34591	
953	0	33840	33076	34612	
954	0	33701	33148	34711	
955	0	33592	33152	34808	
956	0	33396	33065	34948	
957	0	32820	32924	35085	
958	0	32420	32980	35208	
959	0	32007	33076	35324	
960	0	31744	33252	35424	
961	0	31528	33412	35508	
962	0	31612	33348	35590	
963	0	31720	33420	35657	
964	0	31992	33230	35751	
965	0	32100	33162	35800	
966	0	32492	33055	35888	
967	0	32769	33174	35964	
968	0	33153	33116	36048	
969	0	33417	33021	36136	
970	0	33560	32895	36212	
971	0	33560	32960	36296	
972	0	33680	32940	36372	
973	0	33836	32894	36424	
974	0	34128	32815	36473	
975	0	33992	32756	36494	
976	0	33476	32647	36516	
977	0	32904	32568	36552	
978	0	32329	32368	36632	
979	0	31592	32236	36675	
980	0	31156	32229	36713	
981	0	30848	32548	36756	
982	0	30572	32437	36764	
983	0	30784	32606	36772	
984	0	31153	32870	36729	
985	0	31620	32880	36675	
986	0	32304	32905	36508	
987	0	32988	32807	36300	
988	0	33364	32890	36000	
989	0	33812	32888	35608	
990	0	34625	32956	35180	
991	0	35336	32958	34721	
992	0	35314	33025	34249	
993	0	35932	32964	33785	
994	0	36620	33056	33320	
995	0	35972	32988	32864	
996	0	34488	32908	32464	
997	0	32952	32893	32129	
998	0	32000	33030	31839	
999	0	30952	33076	31609	
1000	0	30234	33148	31498	
1001	0	30148	33031	31472	
1002	0	30068	33032	31500	
1003	0	30384	33056	31629	
1004	0	31008	32839	31826	
1005	0	31416	32604	32060	
1006	0	31832	32412	32376	
1007	0	32412	32356	32729	
1008	0	32948	32444	33102	
1009	0	33388	32415	33519	
1010	0	33788	32553	33968	
1011	0	34033	32404	34442	
1012	0	34148	32495	34892	
1013	0	34140	32599	35361	
1014	0	33960	32865	35844	
1015	0	33792	32908	36320	
1016	0	33472	32866	36740	
1017	0	33048	32761	37148	
1018	0	32708	33031	37548	
1019	0	32332	33223	38050	
1020	0	31964	33348	38172	
1021	0	31808	33188	38300	
1022	0	31764	32840	38489	
1023	0	31892	32676	38637	
1024	0	32012	32612	38736	
1025	0	32192	32644	38784	
1026	0	32352	32576	38784	
1027	0	32703	32468	38740	
1028	0	32960	32432	38692	
1029	0	33256	32594	38636	
1030	0	33380	32758	38592	
1031	0	33600	32841	38528	
1032	0	33652	32988	38456	
1033	0	33548	32916	38376	
1034	0	33588	32888	38310	
1035	0	33489	32968	38228	
1036	0	33264	32953	38136	
1037	0	32984	32976	38053	
1038	0	32866	32956	37956	
1039	0	32553	32962	37839	
1040	0	32285	32916	37712	
1041	0	32136	33000	37572	
1042	0	32128	32787	37400	
1043	0	32100	32768	37204	
1044	0	32036	32768	36962	
1045	0	32157	32760	36620	
1046	0	32530	32868	36112	
1047	0	32764	32856	35452	
1048	0	32508	32796	34664	
1049	0	32304	32889	33784	
1050	0	33084	32932	32869	
1051	0	33472	33066	31938	
1052	0	33448	33065	30940	
1053	0	32448	33216	30210	
1054	0	32320	33296	29746	
1055	0	33148	33256	29551	
1056	0	33796	33220	29630	
1057	0	33532	32877	29912	
1058	0	32916	32945	30368	
1059	0	31909	32876	30860	
1060	0	30900	32464	31285	
1061	0	30742	31896	31648	
1062	0	30946	31644	31901	
1063	0	31920	31700	32076	
1064	0	32509	31908	32153	
1065	0	32524	32500	32214	
1066	0	33232	32921	32261	
1067	0	34440	32964	32296	
1068	0	35312	32660	32306	
1069	0	36304	32696	32352	
1070	0	36952	32808	32440	
1071	0	36324	33144	32540	
1072	0	35400	33186	32673	
1073	0	34000	32802	32868	
1074	0	32520	32756	33136	
1075	0	32348	32871	33342	
1076	0	32514	33088	33532	
1077	0	32249	32906	33720	
1078	0	31700	32720	33914	
1079	0	31110	32708	34095	
1080	0	30890	33064	34244	
1081	0	31080	33429	34412	
1082	0	30880	33308	34591	
1083	0	30813	32620	34752	
1084	0	31117	32500	34944	
1085	0	32262	32528	35122	
1086	0	33020	32793	35305	
1087	0	33165	32916	35452	
1088	0	32768	32821	35588	
1089	0	32140	32788	35702	
1090	0	31668	32784	35844	
1091	0	31704	32933	35948	
1092	0	32092	32849	36060	
1093	0	32780	32952	36156	
1094	0	33685	33024	36236	
1095	0	34184	32948	36304	
1096	0	34665	32993	36356	
1097	0	34980	32772	36440	
1098	0	34656	32849	36568	
1099	0	33452	32772	36708	
1100	0	32412	32756	36812	
1101	0	31768	32734	36948	
1102	0	31596	32726	37048	
1103	0	31493	32757	36982	
1104	0	31348	32831	36796	
1105	0	31516	32775	36528	
1106	0	32252	32757	36864	
1107	0	32485	32853	36504	
1108	0	32745	32874	35876	
1109	0	32391	32837	35524	
1110	0	32708	32844	35389	
1111	0	33088	32918	35168	
1112	0	33140	32948	34965	
1113	0	33324	32932	34464	
1114	0	32997	32932	33952	
1115	0	33104	32882	33633	
1116	0	33600	32964	33372	
1117	0	33456	32880	33264	
1118	0	33433	32760	33272	
1119	0	33216	32726	33456	
1120	0	32548	32792	33709	
1121	0	31380	32613	34049	
1122	0	31668	32662	34376	
1123	0	32672	32669	34610	
1124	0	33188	32550	34704	
1125	0	32909	32480	34716	
1126	0	32609	32712	34695	
1127	0	32808	32912	34616	
1128	0	32888	33135	34529	
1129	0	33153	33192	34460	
1130	0	33820	32788	34447	
1131	0	33984	32812	34479	
1132	0	33964	32898	34549	
1133	0	32420	33045	34644	
1134	0	31892	32989	34720	
1135	0	29844	33100	34808	
1136	0	24040	33252	34872	
1137	0	21952	33057	34929	
1138	0	26025	33292	35056	
1139	0	30342	32951	35221	
1140	0	32136	32775	35004	
1141	0	33639	32916	34860	
1142	0	36680	32816	34778	
1143	0	40496	33044	34728	
1144	0	43612	32700	34688	
1145	0	45156	32388	34748	
1146	0	45468	32548	34778	
1147	0	44621	32784	34581	
1148	0	41456	32774	34407	
1149	0	36044	32864	34281	
1150	0	31065	33125	34148	
1151	0	27940	33124	33972	
1152	0	27876	33295	33692	
1153	0	27668	33054	33437	
1154	0	26744	32856	32940	
1155	0	24684	32972	32318	
1156	0	25508	33256	31828	
1157	0	27204	33248	31416	
1158	0	27868	33082	31096	
1159	0	27645	32958	30974	
1160	0	29436	33031	30784	
1161	0	31582	32844	30696	
1162	0	33812	32924	30730	
1163	0	36032	33204	30869	
1164	0	37240	33476	31029	
1165	0	36732	33476	31184	
1166	0	36222	33462	31348	
1167	0	36457	33516	31528	
1168	0	36726	33222	31748	
1169	0	37342	32690	31952	
1170	0	37080	33364	32152	
1171	0	35496	33604	32322	
1172	0	33240	33405	32464	
1173	0	31144	33525	32581	
1174	0	28968	33605	32702	
1175	0	29340	33497	32788	
1176	0	30048	32680	32844	
1177	0	30470	32360	32900	
1178	0	30944	32955	32968	
1179	0	31312	33492	33015	
1180	0	31492	33258	33068	
1181	0	31425	32937	33088	
1182	0	31221	32628	33116	
1183	0	31604	32090	33136	
1184	0	31976	31108	33193	
1185	0	32016	31166	33208	
1186	0	32172	31776	33232	
1187	0	32764	31773	33289	
1188	0	32760	32018	33316	
1189	0	32592	32169	33391	
1190	0	32945	32262	33477	
1191	0	33492	32247	33608	
1192	0	33860	32400	33756	
1193	0	34116	32253	33937	
1194	0	33936	32596	34085	
1195	0	32968	32584	34228	
1196	0	33016	31942	34360	
1197	0	32088	31216	34456	
1198	0	31016	32313	34484	
1199	0	29968	32952	34500	
1200	0	28961	32817	34472	
1201	0	28754	32552	34390	
1202	0	23912	32448	34254	
1203	0	18510	32652	34160	
1204	0	19268	32956	34093	
1205	0	24324	33033	34066	
1206	0	32132	32948	34028	
1207	0	37252	32932	33992	
1208	0	41476	32692	33980	
1209	0	44352	32924	33892	
1210	0	46856	33172	33772	
1211	0	51644	33572	33586	
1212	0	51960	33228	33420	
1213	0	51824	33240	33212	
1214	0	51296	32680	32964	
1215	0	44057	32474	32788	
1216	0	35024	32840	32673	
1217	0	30904	33441	32589	
1218	0	28376	33281	32500	
1219	0	26281	33144	32424	
1220	0	24484	33301	32377	
1221	0	25020	32956	32396	
1222	0	25036	32909	32452	
1223	0	26276	33012	32504	
1224	0	27036	33068	32538	
1225	0	26818	33248	32565	
1226	0	27980	32864	32629	
1227	0	28648	32686	32724	
1228	0	29437	32857	32820	
1229	0	30200	32280	32945	
1230	0	30762	32000	33018	
1231	0	31221	31908	33080	
1232	0	31828	31589	33124	
1233	0	32428	31084	33159	
1234	0	32704	31260	33189	
1235	0	32852	31941	33209	
1236	0	32944	32084	33164	
1237	0	32717	32287	33063	
1238	0	32856	32354	32996	
1239	0	33502	32456	33020	
1240	0	33948	32752	33136	
1241	0	33846	33156	33308	
1242	0	33628	33325	33444	
1243	0	32640	33196	33505	
1244	0	32096	32652	33500	
1245	0	32417	32711	33340	
1246	0	32844	32916	33112	
1247	0	33108	32892	32832	
1248	0	33548	32928	32582	
1249	0	33680	32724	32384	
1250	0	34000	32848	32262	
1251	0	34052	33044	32170	
1252	0	33100	32986	32132	
1253	0	32448	32973	32176	
1254	0	31569	32988	32262	
1255	0	30756	33082	32404	
1256	0	30774	33720	32551	
1257	0	31416	33105	32696	
1258	0	31876	32732	32832	
1259	0	31465	33276	32940	
1260	0	32088	32780	33014	
1261	0	34648	32676	33061	
1262	0	35146	32407	33052	
1263	0	35156	32556	32998	
1264	0	36072	32620	32928	
1265	0	35372	32810	32824	
1266	0	34112	33022	32688	
1267	0	32480	33133	32580	
1268	0	32556	33157	32471	
1269	0	33824	33149	32392	
1270	0	33525	33408	32352	
1271	0	32368	33348	32348	
1272	0	31844	32828	32365	
1273	0	33092	32930	32380	
1274	0	33300	33172	32720	
1275	0	32764	33249	32446	
1276	0	31624	33481	32412	
1277	0	30180	33344	32456	
1278	0	29000	32740	32536	
1279	0	28080	33196	32567	
1280	0	28736	33416	32580	
1281	0	30740	33216	32596	
1282	0	32385	32536	32596	
1283	0	33692	32224	32580	
1284	0	35841	32596	32545	
1285	0	37000	33244	32528	
1286	0	38580	32936	32516	
1287	0	37816	32926	32476	
1288	0	36648	32653	32448	
1289	0	37652	32852	32436	
1290	0	34804	32704	32415	
1291	0	31536	32041	32424	
1292	0	30644	32780	32398	
1293	0	30670	32942	32404	
1294	0	30585	32732	32391	
1295	0	31044	32684	32376	
1296	0	31508	33189	32384	
1297	0	31706	33264	32384	
1298	0	31646	33799	32396	
1299	0	31516	33016	32421	
1300	0	31556	32967	32434	
1301	0	31670	32936	32438	
1302	0	31848	33052	32468	
1303	0	32188	32954	32452	
1304	0	32260	32970	32416	
1305	0	32120	32860	32398	
1306	0	33156	32762	32367	
1307	0	33924	32892	32329	
1308	0	33640	32792	32320	
1309	0	32800	32703	32326	
1310	0	32528	32943	32334	
1311	0	32532	32716	32337	
1312	0	32816	32604	32321	
1313	0	33304	32769	32344	
1314	0	33813	32812	32372	
1315	0	33448	32980	32378	
1316	0	33088	32732	32385	
1317	0	31903	32848	32396	
1318	0	31312	33502	32389	
1319	0	31056	32865	32391	
1320	0	31344	32878	32374	
1321	0	31676	33108	32329	
1322	0	29532	33120	32278	
1323	0	29828	32961	32224	
1324	0	32736	32796	32196	
1325	0	34924	32680	32160	
1326	0	36464	32769	32164	
1327	0	37108	32775	32148	
1328	0	37556	32768	32169	
1329	0	38268	32354	32172	
1330	0	36912	32978	32173	
1331	0	35952	33192	32173	
1332	0	33872	33040	32172	
1333	0	31236	33140	32170	
1334	0	29501	33008	32165	
1335	0	30408	32900	32146	
1336	0	31693	33132	32135	
1337	0	31488	32714	32129	
1338	0	31200	32774	32154	
1339	0	30789	32952	32212	
1340	0	30860	33060	32324	
1341	0	31392	32927	32118	
1342	0	31596	33329	32128	
1343	0	32314	32756	32158	
1344	0	32836	32676	32204	
1345	0	33016	32564	32206	
1346	0	32256	32560	32224	
1347	0	30726	32484	32246	
1348	0	29920	32432	32256	
1349	0	30528	32652	32244	
1350	0	33084	32672	32212	
1351	0	35288	32304	32169	
1352	0	36128	32448	32128	
1353	0	35228	32715	32116	
1354	0	34044	32775	32064	
1355	0	33940	32937	32013	
1356	0	33456	32640	31968	
1357	0	33376	32816	31912	
1358	0	32652	32676	31890	
1359	0	32456	33071	31879	
1360	0	32458	33260	31884	
1361	0	32300	32557	31887	
1362	0	32432	32612	31896	
1363	0	32460	32716	31912	
1364	0	32320	32794	31924	
1365	0	32824	33030	31950	
1366	0	32632	33288	31972	
1367	0	30832	33259	31985	
1368	0	30046	33484	32016	
1369	0	31044	32825	32001	
1370	0	32354	32720	32007	
1371	0	33504	32664	31968	
1372	0	33964	32736	31964	
1373	0	33960	32909	31953	
1374	0	33996	32903	31936	
1375	0	33912	32373	31896	
1376	0	34101	32750	31881	
1377	0	33796	32560	31879	
1378	0	32162	32437	31848	
1379	0	31556	32352	31841	
1380	0	34200	33036	31825	
1381	0	34368	32660	31820	
1382	0	34900	32120	31804	
1383	0	34049	32505	31814	
1384	0	31568	33005	31824	
1385	0	28640	33164	31810	
1386	0	27833	32816	31812	
1387	0	28535	32492	31792	
1388	0	30726	32886	31784	
1389	0	33908	33741	31782	
1390	0	34584	33352	31788	
1391	0	35908	32936	31788	
1392	0	38400	32664	31786	
1393	0	38504	33312	31771	
1394	0	37028	32636	31772	
1395	0	34144	32798	31764	
1396	0	32360	33294	31764	
1397	0	31058	32760	31780	
1398	0	32080	32644	31792	
1399	0	31208	32612	31817	
1400	0	30412	32560	31800	
1401	0	30750	32983	31808	
1402	0	31396	32994	31805	
1403	0	31720	33222	31780	
1404	0	31910	32717	31754	
1405	0	31961	33125	31749	
1406	0	32037	33264	31732	
1407	0	32480	33148	31720	
1408	0	32590	32662	31708	
1409	0	32793	32587	31672	
1410	0	33148	32928	31668	
1411	0	33640	32801	31652	
1412	0	33276	32768	31647	
1413	0	32445	32797	31660	
1414	0	32289	32782	31657	
1415	0	32112	32901	31648	
1416	0	32088	33181	31646	
1417	0	32524	32698	31653	
1418	0	33968	32614	31668	
1419	0	34245	33056	31692	
1420	0	33144	33008	31689	
1421	0	32192	33188	31728	
1422	0	33500	32999	31738	
1423	0	33176	33132	31754	
1424	0	32924	32682	31772	
1425	0	33572	32653	31780	
1426	0	32002	32625	31780	
1427	0	31648	32430	31784	
1428	0	31516	32879	31786	
1429	0	31282	32832	31776	
1430	0	31332	32784	31785	
1431	0	32480	33024	31796	
1432	0	33064	33017	31785	
1433	0	33476	32740	31768	
1434	0	33348	32606	31780	
1435	0	33309	32720	31784	
1436	0	33224	32680	31756	
1437	0	34568	32796	31776	
1438	0	34788	32882	31792	
1439	0	32321	32948	31776	
1440	0	32400	32774	31829	
1441	0	32528	32939	31753	
1442	0	33342	32828	31676	
1443	0	34302	33028	31668	
1444	0	33730	32737	31697	
1445	0	33356	32550	31772	
1446	0	32280	32708	31780	
1447	0	32169	32808	31765	
1448	0	32576	32844	31716	
1449	0	32440	33174	31694	
1450	0	32196	33256	31676	
1451	0	32504	32545	31636	
1452	0	32908	32532	31584	
1453	0	32956	33150	31559	
1454	0	33590	33266	31542	
1455	0	33078	33304	31508	
1456	0	32076	33159	31508	
1457	0	31629	33100	31492	
1458	0	30852	33308	31480	
1459	0	31168	32785	31472	
1460	0	32048	32826	31456	
1461	0	31900	32672	31468	
1462	0	32216	32196	31480	
1463	0	32572	32724	31472	
1464	0	33510	33204	31448	
1465	0	35444	32416	31460	
1466	0	35780	32415	31462	
1467	0	34480	32490	31436	
1468	0	33977	32731	31412	
1469	0	32725	32416	31396	
1470	0	32461	32545	31360	
1471	0	32460	33004	31336	
1472	0	32166	32676	31313	
1473	0	32356	32087	31296	
1474	0	32481	32740	31304	
1475	0	32200	33401	31312	
1476	0	32356	33207	31332	
1477	0	33304	33814	31328	
1478	0	32538	33100	31336	
1479	0	31088	33001	31356	
1480	0	30060	33010	31367	
1481	0	28596	32737	31392	
1482	0	28916	32685	31420	
1483	0	31704	32648	31405	
1484	0	34308	32596	31384	
1485	0	35540	32519	31372	
1486	0	34504	32568	31380	
1487	0	32648	32624	31401	
1488	0	32868	32461	31417	
1489	0	33320	32690	31412	
1490	0	34744	32685	31404	
1491	0	34796	32598	31396	
1492	0	36341	32868	31392	
1493	0	36396	32728	31378	
1494	0	35560	32952	31393	
1495	0	34944	32848	31401	
1496	0	35684	33156	31429	
1497	0	34832	33300	31453	
1498	0	31888	32885	31465	
1499	0	29640	32989	31466	
1500	0	30133	33205	31505	
1501	0	30388	33756	31535	
1502	0	30580	33248	31548	
1503	0	30516	32833	31575	
1504	0	29362	32968	31576	
1505	0	28794	32576	31597	
1506	0	30676	32072	31604	
1507	0	33336	32276	31608	
1508	0	34454	32528	31592	
1509	0	35128	32744	31588	
1510	0	34420	32772	31572	
1511	0	33761	32745	31556	
1512	0	33392	32820	31552	
1513	0	33314	32612	31556	
1514	0	33156	32421	31524	
1515	0	32648	32888	31492	
1516	0	33440	33240	31472	
1517	0	33364	32954	31452	
1518	0	32664	32584	31432	
1519	0	32416	32952	31460	
1520	0	32545	33109	31476	
1521	0	32601	33118	31480	
1522	0	32664	33576	31470	
1523	0	32790	33862	31489	
1524	0	32410	32770	31500	
1525	0	32276	32568	31544	
1526	0	32548	32997	31568	
1527	0	32676	32490	31575	
1528	0	32096	31708	31588	
1529	0	31156	32097	31620	
1530	0	31296	32532	31613	
1531	0	32132	33014	31630	
1532	0	33190	32917	31628	
1533	0	34164	33000	31616	
1534	0	34330	33252	31640	
1535	0	35272	32660	31647	
1536	0	35012	32372	31644	
1537	0	34276	32684	31616	
1538	0	33720	33132	31621	
1539	0	32718	33012	31638	
1540	0	31593	33064	31644	
1541	0	32134	33052	31653	
1542	0	32180	33156	31676	
1543	0	31224	32869	31716	
1544	0	31354	32774	31704	
1545	0	31112	32816	31708	
1546	0	31540	32694	31716	
1547	0	32360	32982	31724	
1548	0	32750	33148	31717	
1549	0	32757	32884	31740	
1550	0	33184	32839	31734	
1551	0	33565	32921	31745	
1552	0	32324	33505	31756	
1553	0	31936	33124	31724	
1554	0	32080	33204	31724	
1555	0	32173	32970	31740	
1556	0	32372	32984	31737	
1557	0	33572	32637	31726	
1558	0	35648	32412	31736	
1559	0	35756	32500	31713	
1560	0	33568	32612	31708	
1561	0	33108	32793	31688	
1562	0	33492	32605	31673	
1563	0	32696	32498	31652	
1564	0	31405	32459	31608	
1565	0	31569	32513	31568	
1566	0	32538	32661	31534	
1567	0	33270	32701	31512	
1568	0	33396	33248	31489	
1569	0	32532	33324	31477	
1570	0	32024	32632	31484	
1571	0	32340	32510	31484	
1572	0	33096	32981	31472	
1573	0	33420	33070	31452	
1574	0	34261	32780	31405	
1575	0	33636	32700	31390	
1576	0	32213	32860	31376	
1577	0	32240	32728	31381	
1578	0	31374	32916	31372	
1579	0	31745	32802	31399	
1580	0	32068	32798	31410	
1581	0	32192	32796	31412	
1582	0	32997	32625	31406	
1583	0	32300	33166	31429	
1584	0	33241	32836	31412	
1585	0	32100	33056	31412	
1586	0	31537	32688	31401	
1587	0	33184	32852	31400	
1588	0	34292	32935	31384	
1589	0	33602	32772	31370	
1590	0	33976	33194	31380	
1591	0	33405	32833	31392	
1592	0	30492	32752	31372	
1593	0	29244	32676	31352	
1594	0	31132	32568	31352	
1595	0	32466	33064	31373	
1596	0	33402	33052	31372	
1597	0	37656	33002	31354	
1598	0	39392	32500	31377	
1599	0	36900	32913	31396	
1600	0	33390	33212	31420	
1601	0	31796	32748	31421	
1602	0	30972	32900	31436	
1603	0	30472	32880	31436	
1604	0	29916	32532	31400	
1605	0	30796	32641	31380	
1606	0	31384	32918	31353	
1607	0	31620	32586	31340	
1608	0	31920	33193	31332	
1609	0	31524	32962	31313	
1610	0	31892	32821	31272	
1611	0	33428	33100	31277	
1612	0	34357	32664	31296	
1613	0	35117	32722	31294	
1614	0	35620	32804	31288	
1615	0	35150	32572	31308	
1616	0	32900	32374	31334	
1617	0	32804	32454	31337	
1618	0	33268	33000	31368	
1619	0	32876	33356	31396	
1620	0	32544	32616	31412	
1621	0	32380	32892	31460	
1622	0	31460	32902	31472	
1623	0	31476	32773	31479	
1624	0	31468	33105	31480	
1625	0	31784	33184	31490	
1626	0	32148	32617	31504	
1627	0	32132	32660	31484	
1628	0	32156	33508	31452	
1629	0	32696	33334	31416	
1630	0	32940	33055	31381	
1631	0	33014	32121	31391	
1632	0	33900	32148	31392	
1633	0	34232	32454	31391	
1634	0	34512	32272	31385	
1635	0	34021	32519	31391	
1636	0	32956	32868	31390	
1637	0	32048	32801	31404	
1638	0	32576	33300	31428	
1639	0	32584	32950	31464	
1640	0	32460	33056	31488	
1641	0	32185	33060	31492	
1642	0	32252	32799	31520	
1643	0	31976	33244	31548	
1644	0	31720	33494	31552	
1645	0	31816	32964	31581	
1646	0	32104	32354	31588	
1647	0	32596	32808	31588	
1648	0	33244	32592	31595	
1649	0	32440	32620	31609	
1650	0	32412	32456	31596	
1651	0	33712	32816	31600	
1652	0	33052	33102	31630	
1653	0	33138	32960	31632	
1654	0	34548	32978	31592	
1655	0	32812	33096	31577	
1656	0	33249	32753	31562	
1657	0	33526	32964	31558	
1658	0	33581	32636	31536	
1659	0	33704	33228	31524	
1660	0	32716	32906	31522	
1661	0	32980	32353	31508	
1662	0	33084	32932	31512	
1663	0	33464	33067	31486	
1664	0	32681	32132	31462	
1665	0	31720	32492	31452	
1666	0	31594	33637	31466	
1667	0	32136	33380	31455	
1668	0	30821	33312	31436	
1669	0	30228	33160	31412	
1670	0	30294	33676	31388	
1671	0	31356	33580	31388	
1672	0	32352	32668	31372	
1673	0	33614	32742	31360	
1674	0	33856	32504	31366	
1675	0	34210	32156	31348	
1676	0	35316	31836	31325	
1677	0	35848	31848	31344	
1678	0	36028	32508	31366	
1679	0	35136	32455	31376	
1680	0	32424	32224	31392	
1681	0	31368	31940	31382	
1682	0	33912	32220	31396	
1683	0	32890	32410	31376	
1684	0	32065	32645	31360	
1685	0	31857	32836	31340	
1686	0	31416	33004	31344	
1687	0	31960	32950	31320	
1688	0	31649	32836	31310	
1689	0	31556	33031	31304	
1690	0	31740	33381	31276	
1691	0	32420	33420	31266	
1692	0	33548	33120	31240	
1693	0	33860	32764	31228	
1694	0	33598	32949	31238	
1695	0	33452	33098	31261	
1696	0	32733	32984	31256	
1697	0	32860	33088	31268	
1698	0	32768	33016	31304	
1699	0	32180	33036	31297	
1700	0	31789	33044	31300	
1701	0	30204	33060	31308	
1702	0	29980	32934	31322	
1703	0	31108	32948	31332	
1704	0	32468	33208	31333	
1705	0	33244	32912	31322	
1706	0	34356	32485	31304	
1707	0	34118	32526	31324	
1708	0	34144	32436	31316	
1709	0	33694	32680	31316	
1710	0	33076	32703	31304	
1711	0	33764	32928	31317	
1712	0	34652	32728	31324	
1713	0	35036	33054	31316	
1714	0	34376	32774	31328	
1715	0	34008	32856	31360	
1716	0	32272	33140	31360	
1717	0	30924	32676	31396	
1718	0	30304	32674	31376	
1719	0	30288	33318	31396	
1720	0	29696	32933	31398	
1721	0	29620	32904	31428	
1722	0	32096	32748	31436	
1723	0	34676	32469	31450	
1724	0	35676	31796	31440	
1725	0	35680	32136	31452	
1726	0	32460	32936	31449	
1727	0	31190	33425	31456	
1728	0	31228	33036	31476	
1729	0	31608	32780	31460	
1730	0	34348	32630	31461	
1731	0	34688	32892	31444	
1732	0	34680	32456	31453	
1733	0	33992	32958	31440	
1734	0	34108	32574	31424	
1735	0	34288	33048	31416	
1736	0	34404	33134	31432	
1737	0	33710	33200	31434	
1738	0	32632	33008	31428	
1739	0	32296	32921	31432	
1740	0	31652	33252	31428	
1741	0	31084	32630	31440	
1742	0	31328	33082	31472	
1743	0	31104	33029	31460	
1744	0	31736	32868	31461	
1745	0	31684	33146	31469	
1746	0	32180	32684	31476	
1747	0	32780	32856	31460	
1748	0	32932	33468	31464	
1749	0	32656	33174	31452	
1750	0	32950	33165	31465	
1751	0	33660	32516	31440	
1752	0	34240	32188	31432	
1753	0	34220	31508	31442	
1754	0	33588	31721	31460	
1755	0	33188	32760	31456	
1756	0	32168	32936	31440	
1757	0	31036	32720	31441	
1758	0	31332	32933	31440	
1759	0	31864	32929	31452	
1760	0	32076	33031	31461	
1761	0	32092	33068	31461	
1762	0	32538	32805	31456	
1763	0	32684	32902	31452	
1764	0	30678	33361	31420	
1765	0	28680	33480	31432	
1766	0	28661	33025	31420	
1767	0	33102	32534	31420	
1768	0	36206	32432	31392	
1769	0	37185	32732	31376	
1770	0	37520	32631	31358	
1771	0	37644	32720	31346	
1772	0	36560	32686	31341	
1773	0	35084	32801	31348	
1774	0	33078	32962	31341	
1775	0	31945	32686	31360	
1776	0	30741	32624	31381	
1777	0	30220	33204	31402	
1778	0	30696	33604	31422	
1779	0	32038	33144	31444	
1780	0	32296	32886	31416	
1781	0	30660	32700	31410	
1782	0	29368	33016	31428	
1783	0	31532	33137	31428	
1784	0	34340	32561	31456	
1785	0	35177	33081	31466	
1786	0	35124	33100	31452	
1787	0	34604	32805	31458	
1788	0	33004	32696	31468	
1789	0	31700	32592	31464	
1790	0	31682	32584	31438	
1791	0	31320	32582	31456	
1792	0	31733	32689	31460	
1793	0	32983	32676	31437	
1794	0	33508	32677	31444	
1795	0	34316	32408	31432	
1796	0	33884	32461	31420	
1797	0	34060	32828	31440	
1798	0	33312	32409	31449	
1799	0	33312	32722	31456	
1800	0	34344	32990	31450	
1801	0	32628	33359	31452	
1802	0	30660	32996	31460	
1803	0	30042	32998	31460	
1804	0	31032	32662	31448	
1805	0	32476	33864	31428	
1806	0	31516	32488	31424	
1807	0	32085	32880	31400	
1808	0	32908	32701	31382	
1809	0	33644	32005	31393	
1810	0	33468	32840	31381	
1811	0	31412	32774	31396	
1812	0	29564	32736	31398	
1813	0	30172	33114	31415	
1814	0	32800	33320	31412	
1815	0	34925	33026	31408	
1816	0	37168	32616	31404	
1817	0	37125	32680	31420	
1818	0	36244	32798	31401	
1819	0	34072	32928	31420	
1820	0	32778	33280	31428	
1821	0	33177	32929	31446	
1822	0	32120	32970	31458	
1823	0	31552	32933	31460	
1824	0	31149	32681	31433	
1825	0	31228	32849	31440	
1826	0	31606	32485	31452	
1827	0	31880	32712	31431	
1828	0	31828	32676	31456	
1829	0	32062	32608	31449	
1830	0	33124	33036	31454	
1831	0	33204	33174	31460	
1832	0	32676	33264	31482	
1833	0	32156	32788	31489	
1834	0	32417	32741	31512	
1835	0	32881	32688	31526	
1836	0	33207	32788	31516	
1837	0	33256	33197	31536	
1838	0	33324	33152	31568	
1839	0	33316	32812	31572	
1840	0	32357	32756	31562	
1841	0	32516	32889	31588	
1842	0	32402	32572	31616	
1843	0	31668	32253	31616	
1844	0	31288	32427	31614	
1845	0	31272	32738	31592	
1846	0	32036	32438	31597	
1847	0	33852	32864	31596	
1848	0	34596	32714	31584	
1849	0	34760	33052	31600	
1850	0	35080	32677	31590	
1851	0	35176	32996	31590	
1852	0	33912	32933	31582	
1853	0	31860	33352	31576	
1854	0	31814	32814	31569	
1855	0	32604	32575	31576	
1856	0	33408	32632	31552	
1857	0	33980	32740	31564	
1858	0	33800	33093	31568	
1859	0	33914	32965	31533	
1860	0	30852	33012	31540	
1861	0	30337	32980	31549	
1862	0	30248	33344	31532	
1863	0	29752	33518	31536	
1864	0	30465	33337	31516	
1865	0	31880	32332	31504	
1866	0	32860	32625	31509	
1867	0	32720	32441	31503	
1868	0	34392	32125	31506	
1869	0	35044	32236	31488	
1870	0	35660	32640	31473	
1871	0	36053	32932	31462	
1872	0	34896	32991	31448	
1873	0	33600	32710	31414	
1874	0	32701	33078	31388	
1875	0	31064	32892	31345	
1876	0	30504	33096	31352	
1877	0	31112	33312	31332	
1878	0	31896	32984	31294	
1879	0	31004	33224	31317	
1880	0	32324	32725	31322	
1881	0	32196	32572	31310	
1882	0	31297	33012	31332	
1883	0	33098	33088	31392	
1884	0	32708	33309	31400	
1885	0	32444	33775	31396	
1886	0	34352	33446	31389	
1887	0	34144	32006	31360	
1888	0	34268	31128	31360	
1889	0	35092	31245	31355	
1890	0	34425	31988	31351	
1891	0	34376	32584	31344	
1892	0	33324	33318	31328	
1893	0	32524	33272	31312	
1894	0	32540	33281	31296	
1895	0	32740	32558	31320	
1896	0	32460	32745	31292	
1897	0	32460	32988	31308	
1898	0	31966	33430	31332	
1899	0	32140	33241	31338	
1900	0	32140	32414	31364	
1901	0	32472	32616	31369	
1902	0	32228	33176	31400	
1903	0	32217	33128	31373	
1904	0	31855	32834	31364	
1905	0	31920	32824	31364	
1906	0	32736	32953	31356	
1907	0	31962	32697	31348	
1908	0	31728	32748	31352	
1909	0	32500	32841	31357	
1910	0	33172	33515	31376	
1911	0	33368	33620	31373	
1912	0	33256	33384	31408	
1913	0	34124	32361	31441	
1914	0	35296	32406	31448	
1915	0	34888	32805	31460	
1916	0	33128	32148	31470	
1917	0	31744	32684	31492	
1918	0	31200	32748	31492	
1919	0	31104	32736	31500	
1920	0	31092	32758	31524	
1921	0	30570	33120	31522	
1922	0	29168	33169	31533	
1923	0	29196	33132	31524	
1924	0	31340	32940	31504	
1925	0	33245	33432	31488	
1926	0	36564	32220	31476	
1927	0	37860	32220	31456	
1928	0	38888	32741	31423	
1929	0	36704	32964	31414	
1930	0	33964	32508	31388	
1931	0	33692	32668	31414	
1932	0	32492	32305	31432	
1933	0	31976	32359	31420	
1934	0	30902	32986	31460	
1935	0	31376	33130	31436	
1936	0	31768	33045	31442	
1937	0	33196	33200	31445	
1938	0	32692	32885	31436	
1939	0	32748	32592	31436	
1940	0	33360	32750	31440	
1941	0	32976	33178	31436	
1942	0	32020	32980	31460	
1943	0	31144	33253	31462	
1944	0	31408	32508	31485	
1945	0	32036	32649	31480	
1946	0	32284	32852	31468	
1947	0	32393	32712	31478	
1948	0	32564	33216	31472	
1949	0	32816	32985	31468	
1950	0	32698	32673	31464	
1951	0	32180	32832	31470	
1952	0	32764	33016	31460	
1953	0	33620	33088	31449	
1954	0	33976	33608	31432	
1955	0	32884	32456	31428	
1956	0	32669	32808	31452	
1957	0	33728	32443	31453	
1958	0	33758	32772	31468	
1959	0	32500	32494	31472	
1960	0	30472	32784	31493	
1961	0	28752	33205	31484	
1962	0	30104	32996	31495	
1963	0	33356	32848	31495	
1964	0	35068	32390	31452	
1965	0	35228	32320	31441	
1966	0	34192	32681	31408	
1967	0	34768	32558	31403	
1968	0	34317	32759	31368	
1969	0	32932	32793	31356	
1970	0	32608	32533	31359	
1971	0	31796	32668	31372	
1972	0	31452	32700	31389	
1973	0	31164	32898	31386	
1974	0	31980	32960	31376	
1975	0	33577	33120	31396	
1976	0	33728	33060	31416	
1977	0	35216	32770	31444	
1978	0	34684	32908	31418	
1979	0	33166	33325	31404	
1980	0	32984	32856	31421	
1981	0	31596	33064	31436	
1982	0	30828	33112	31442	
1983	0	32129	33000	31437	
1984	0	32577	32861	31436	
1985	0	32068	32405	31432	
1986	0	32144	32772	31428	
1987	0	31664	32808	31396	
1988	0	31964	33192	31404	
1989	0	33640	32661	31428	
1990	0	33464	32493	31425	
1991	0	34346	32832	31400	
1992	0	33320	33373	31422	
1993	0	32524	33276	31404	
1994	0	32324	32137	31414	
1995	0	32780	32660	31408	
1996	0	33481	32970	31406	
1997	0	33708	32690	31424	
1998	0	31608	32848	31422	
1999	0	32720	32729	31452	
2000	0	32216	32537	31462	
2001	0	32244	32468	31465	
2002	0	32876	32728	31484	
2003	0	33144	33008	31488	
2004	0	32940	33742	31480	
2005	0	32808	33485	31460	
2006	0	33504	33208	31461	
2007	0	33904	32448	31458	
2008	0	33628	31982	31476	
2009	0	32380	31922	31476	
2010	0	32111	32413	31470	
2011	0	32116	32480	31468	
2012	0	31612	32936	31478	
2013	0	33140	33112	31442	
2014	0	32736	33117	31436	
2015	0	33456	33045	31428	
2016	0	33808	32980	31446	
2017	0	34096	33088	31448	
2018	0	33724	33126	31444	
2019	0	31676	32968	31434	
2020	0	31144	32738	31456	
2021	0	30660	32904	31456	
2022	0	31192	33074	31448	
2023	0	32568	33002	31444	
2024	0	33348	32766	31436	
2025	0	34767	32756	31420	
2026	0	34648	33292	31442	
2027	0	34624	32580	31436	
2028	0	34518	32404	31433	
2029	0	33220	32348	31422	
2030	0	31172	32941	31441	
2031	0	30256	33222	31444	
2032	0	30128	32852	31428	
2033	0	31777	32444	31412	
2034	0	33516	32542	31408	
2035	0	33324	33896	31404	
2036	0	33784	31652	31429	
2037	0	33748	32804	31430	
2038	0	32996	32756	31448	
2039	0	31560	33100	31444	
2040	0	32348	33236	31446	
2041	0	31376	33252	31444	
2042	0	31632	33040	31448	
2043	0	32469	32668	31452	
2044	0	32956	32478	31456	
2045	0	33252	32684	31470	
2046	0	33332	32839	31472	
2047	0	32452	33173	31477	
2048	0	32424	32810	31473	
2049	0	33024	32449	31460	
2050	0	32552	32306	31446	
2051	0	32028	33188	31401	
2052	0	35716	32812	31424	
2053	0	37272	32792	31424	
2054	0	34666	32447	31441	
2055	0	32560	33028	31426	
2056	0	32260	33168	31432	
2057	0	31841	33250	31424	
2058	0	32597	32949	31434	
2059	0	32832	32476	31466	
2060	0	33108	32358	31484	
2061	0	32440	32661	31490	
2062	0	30805	33066	31492	
2063	0	30844	33092	31524	
2064	0	30672	32928	31508	
2065	0	31320	32684	31500	
2066	0	32686	32736	31480	
2067	0	33468	32793	31492	
2068	0	34180	32884	31484	
2069	0	33896	32700	31472	
2070	0	32724	32528	31473	
2071	0	32692	32704	31447	
2072	0	33080	33236	31432	
2073	0	33032	33094	31428	
2074	0	33760	33000	31428	
2075	0	33770	32484	31428	
2076	0	33750	32153	31446	
2077	0	33488	32472	31446	
2078	0	33197	32860	31476	
2079	0	33197	33042	31505	
2080	0	32436	33004	31508	
2081	0	31824	33201	31502	
2082	0	31080	32985	31488	
2083	0	31682	32940	31476	
2084	0	32296	32912	31458	
2085	0	31846	32828	31462	
2086	0	31100	32688	31462	
2087	0	31656	32880	31464	
2088	0	32612	32949	31460	
2089	0	33600	32633	31461	
2090	0	32893	32772	31434	
2091	0	32116	32848	31452	
2092	0	32908	32432	31436	
2093	0	33560	32800	31428	
2094	0	35100	32916	31420	
2095	0	34948	32652	31436	
2096	0	34564	33440	31440	
2097	0	34096	32832	31460	
2098	0	33408	32468	31437	
2099	0	33668	32598	31436	
2100	0	32436	33088	31456	
2101	0	31999	33164	31468	
2102	0	32548	33293	31500	
2103	0	31412	32933	31493	
2104	0	31748	32773	31480	
2105	0	32636	32876	31476	
2106	0	31649	32724	31472	
2107	0	31352	32874	31472	
2108	0	31084	33217	31440	
2109	0	30006	32369	31436	
2110	0	31156	32784	31414	
2111	0	31684	32812	31390	
2112	0	32713	33580	31374	
2113	0	32342	33056	31396	
2114	0	31909	32832	31405	
2115	0	33296	31948	31404	
2116	0	35840	32072	31388	
2117	0	37280	32925	31399	
2118	0	37324	32656	31407	
2119	0	36536	32949	31394	
2120	0	34728	32864	31382	
2121	0	33756	33347	31384	
2122	0	32628	32834	31396	
2123	0	32481	32852	31372	
2124	0	31404	32757	31392	
2125	0	30920	33104	31428	
2126	0	31100	32908	31417	
2127	0	31142	32556	31393	
2128	0	31145	32415	31396	
2129	0	31756	32900	31392	
2130	0	32329	33092	31408	
2131	0	32433	32809	31420	
2132	0	33053	32493	31413	
2133	0	33224	32590	31412	
2134	0	31904	33184	31381	
2135	0	31712	32924	31376	
2136	0	31898	33044	31381	
2137	0	31196	32930	31361	
2138	0	31492	32768	31369	
2139	0	33556	32900	31368	
2140	0	33300	32916	31386	
2141	0	35644	33004	31384	
2142	0	35912	33050	31396	
2143	0	32256	32855	31400	
2144	0	32529	32879	31396	
2145	0	33076	32628	31396	
2146	0	33125	32889	31406	
2147	0	33128	32728	31388	
2148	0	32984	32775	31398	
2149	0	33404	32984	31400	
2150	0	32824	33108	31408	
2151	0	32793	32738	31401	
2152	0	31984	33072	31405	
2153	0	31700	32725	31408	
2154	0	31648	32648	31408	
2155	0	31524	32439	31413	
2156	0	32964	32252	31416	
2157	0	33140	32672	31424	
2158	0	32329	33149	31422	
2159	0	32532	33209	31404	
2160	0	33281	32988	31436	
2161	0	35608	33152	31472	
2162	0	34972	32877	31484	
2163	0	32557	33096	31470	
2164	0	31397	32632	31472	
2165	0	30972	32592	31460	
2166	0	30692	32388	31456	
2167	0	30364	32609	31446	
2168	0	32241	32822	31426	
2169	0	33384	32788	31405	
2170	0	34732	32765	31418	
2171	0	36136	32817	31424	
2172	0	36096	33132	31409	
2173	0	34808	33336	31430	
2174	0	32664	33272	31420	
2175	0	32012	33108	31430	
2176	0	30688	32834	31432	
2177	0	31148	32670	31420	
2178	0	31964	32864	31429	
2179	0	33144	32268	31436	
2180	0	33545	32100	31433	
2181	0	32876	33018	31436	
2182	0	32083	32919	31436	
2183	0	30991	32940	31430	
2184	0	29760	33772	31444	
2185	0	31560	34264	31440	
2186	0	33588	35582	31448	
2187	0	34124	34548	31448	
2188	0	33880	32824	31436	
2189	0	33340	30452	31442	
2190	0	32420	29229	31452	
2191	0	32352	30460	31452	
2192	0	32324	31000	31448	
2193	0	33400	31489	31453	
2194	0	32853	32045	31452	
2195	0	32464	32488	31454	
2196	0	33420	33814	31456	
2197	0	32420	33766	31464	
2198	0	29338	33704	31441	
2199	0	29500	33152	31433	
2200	0	31768	33340	31460	
2201	0	35197	33404	31436	
2202	0	35650	33628	31440	
2203	0	35048	33137	31432	
2204	0	34933	33136	31434	
2205	0	35921	33036	31452	
2206	0	34572	33140	31461	
2207	0	35148	32548	31448	
2208	0	34348	32740	31416	
2209	0	30376	33065	31405	
2210	0	32164	32598	31415	
2211	0	30652	32708	31400	
2212	0	30980	32668	31384	
2213	0	31995	32982	31388	
2214	0	32420	32936	31397	
2215	0	32700	32990	31393	
2216	0	32565	33232	31385	
2217	0	32296	33248	31393	
2218	0	32872	33062	31421	
2219	0	34748	33276	31412	
2220	0	34520	32901	31416	
2221	0	33544	32280	31415	
2222	0	32903	32560	31401	
2223	0	31413	32876	31400	
2224	0	31308	32785	31406	
2225	0	31936	32847	31416	
2226	0	31941	32518	31416	
2227	0	31628	32756	31408	
2228	0	32125	32993	31413	
2229	0	32420	33020	31424	
2230	0	32164	32988	31416	
2231	0	31704	32820	31414	
2232	0	32104	32728	31422	
2233	0	32912	32400	31436	
2234	0	32740	32768	31422	
2235	0	33416	32769	31404	
2236	0	32964	32852	31416	
2237	0	33352	33085	31414	
2238	0	34428	32972	31432	
2239	0	34540	33533	31416	
2240	0	34741	33321	31404	
2241	0	34085	32492	31436	
2242	0	31724	32304	31432	
2243	0	31744	32480	31424	
2244	0	31200	32692	31398	
2245	0	32117	33044	31416	
2246	0	33726	32680	31412	
2247	0	33740	32880	31397	
2248	0	33676	32976	31396	
2249	0	33504	33036	31380	
2250	0	33224	32809	31384	
2251	0	32392	32582	31384	
2252	0	31649	32759	31396	
2253	0	31752	33048	31404	
2254	0	31352	32844	31380	
2255	0	32848	32919	31377	
2256	0	32233	32774	31384	
2257	0	31296	32720	31389	
2258	0	34388	32877	31376	
2259	0	34324	33332	31375	
2260	0	32124	32882	31388	
2261	0	31536	32872	31364	
2262	0	31164	32669	31384	
2263	0	30695	32628	31396	
2264	0	31257	32424	31400	
2265	0	33748	32612	31416	
2266	0	34648	32702	31440	
2267	0	32874	32820	31440	
2268	0	32494	32574	31428	
2269	0	33196	32880	31416	
2270	0	34273	33060	31422	
2271	0	34689	33154	31412	
2272	0	35564	33336	31416	
2273	0	36500	33477	31414	
2274	0	35088	33041	31405	
2275	0	32896	32304	31400	
2276	0	31798	32520	31414	
2277	0	31152	32720	31425	
2278	0	30420	33028	31452	
2279	0	29620	33106	31480	
2280	0	30356	32834	31477	
2281	0	32276	32630	31478	
2282	0	33033	32906	31488	
2283	0	33110	32952	31486	
2284	0	32904	32750	31480	
2285	0	33089	32577	31474	
2286	0	31862	32728	31461	
2287	0	31396	32898	31444	
2288	0	31901	32462	31444	
2289	0	33680	32617	31427	
2290	0	35002	32708	31410	
2291	0	34484	32658	31397	
2292	0	33432	32716	31420	
2293	0	33144	33022	31430	
2294	0	33828	32913	31421	
2295	0	33476	33232	31424	
2296	0	32693	32788	31401	
2297	0	32624	32308	31416	
2298	0	31176	32912	31418	
2299	0	31198	33220	31432	
2300	0	33013	33104	31431	
2301	0	34028	33252	31452	
2302	0	32910	32368	31444	
2303	0	32908	32518	31421	
2304	0	31980	33108	31409	
2305	0	30564	32799	31425	
2306	0	30716	32557	31392	
2307	0	32762	32620	31384	
2308	0	34944	32561	31374	
2309	0	35616	32460	31400	
2310	0	33956	32873	31377	
2311	0	32232	33060	31357	
2312	0	32024	33177	31348	
2313	0	32528	33308	31360	
2314	0	33068	33158	31336	
2315	0	33368	33088	31328	
2316	0	33144	32296	31334	
2317	0	33240	32258	31360	
2318	0	33044	33080	31392	
2319	0	32940	33370	31417	
2320	0	32148	33312	31416	
2321	0	31656	33276	31417	
2322	0	31876	32644	31449	
2323	0	31276	32301	31464	
2324	0	32296	32584	31476	
2325	0	33128	32597	31468	
2326	0	31556	32784	31444	
2327	0	31157	32686	31476	
2328	0	32116	32660	31479	
2329	0	33232	33100	31480	
2330	0	33788	32944	31508	
2331	0	33840	32876	31482	
2332	0	34008	33056	31481	
2333	0	34164	33304	31452	
2334	0	33512	32744	31464	
2335	0	34076	33084	31445	
2336	0	32504	32468	31409	
2337	0	31220	32629	31430	
2338	0	34062	32378	31428	
2339	0	35652	32732	31422	
2340	0	34888	32728	31444	
2341	0	32884	33016	31459	
2342	0	31524	32985	31457	
2343	0	31237	33084	31456	
2344	0	31904	32832	31437	
2345	0	31484	32824	31409	
2346	0	31508	32878	31404	
2347	0	32448	32880	31398	
2348	0	32644	32730	31400	
2349	0	31960	32896	31396	
2350	0	32268	32557	31382	
2351	0	31852	32576	31381	
2352	0	30961	32780	31366	
2353	0	30730	32564	31353	
2354	0	33024	32916	31340	
2355	0	34360	33342	31352	
2356	0	36448	33225	31345	
2357	0	35787	32988	31348	
2358	0	34740	32850	31382	
2359	0	33882	32864	31388	
2360	0	33652	33412	31404	
2361	0	32816	32517	31424	
2362	0	32428	32716	31405	
2363	0	31382	32616	31409	
2364	0	30968	33070	31405	
2365	0	31364	32538	31403	
2366	0	31780	32401	31397	
2367	0	32228	32719	31384	
2368	0	32460	32741	31397	
2369	0	32880	32902	31405	
2370	0	33692	33089	31428	
2371	0	33436	33216	31426	
2372	0	33313	33301	31408	
2373	0	33232	33073	31404	
2374	0	32925	32452	31392	
2375	0	32360	32364	31385	
2376	0	32004	32530	31404	
2377	0	30600	33074	31401	
2378	0	32458	32920	31421	
2379	0	33012	32737	31428	
2380	0	31388	32344	31442	
2381	0	32665	32941	31434	
2382	0	31948	33106	31432	
2383	0	31686	33228	31417	
2384	0	32352	32256	31441	
2385	0	34080	32040	31440	
2386	0	33928	32584	31464	
2387	0	32760	33068	31484	
2388	0	33204	33216	31505	
2389	0	33360	33252	31502	
2390	0	33653	33924	31480	
2391	0	34244	32733	31484	
2392	0	34201	32349	31481	
2393	0	33529	32940	31445	
2394	0	33720	32653	31422	
2395	0	33340	32812	31432	
2396	0	33072	32904	31414	
2397	0	33088	32954	31421	
2398	0	32380	33030	31440	
2399	0	31822	32329	31445	
2400	0	31012	32552	31456	
2401	0	31240	32892	31476	
2402	0	33605	33054	31482	
2403	0	33964	33138	31460	
2404	0	32541	32804	31437	
2405	0	31720	32916	31431	
2406	0	32532	32964	31437	
2407	0	32345	32638	31429	
2408	0	31449	32696	31418	
2409	0	31302	32897	31404	
2410	0	33048	32536	31396	
2411	0	33045	32521	31397	
2412	0	33256	32768	31402	
2413	0	33525	32900	31394	
2414	0	35088	32864	31400	
2415	0	32884	32860	31414	
2416	0	31964	33216	31396	
2417	0	33128	32057	31413	
2418	0	32746	32893	31387	
2419	0	32712	32977	31396	
2420	0	32280	32936	31401	
2421	0	32068	33008	31410	
2422	0	33636	32814	31417	
2423	0	35436	32940	31448	
2424	0	35624	33132	31444	
2425	0	34288	33100	31452	
2426	0	31808	32960	31452	
2427	0	31092	32757	31451	
2428	0	30904	32877	31448	
2429	0	30920	32594	31444	
2430	0	31873	32612	31441	
2431	0	32360	32626	31428	
2432	0	33324	32840	31432	
2433	0	33200	32480	31420	
2434	0	33268	32845	31408	
2435	0	33853	32884	31412	
2436	0	34062	32865	31412	
2437	0	32752	32858	31406	
2438	0	31088	32738	31424	
2439	0	31336	32950	31431	
2440	0	31492	33128	31412	
2441	0	32022	33012	31408	
2442	0	32880	32892	31420	
2443	0	33108	32432	31429	
2444	0	32564	32532	31433	
2445	0	32252	32714	31426	
2446	0	32180	32676	31423	
2447	0	32504	32618	31430	
2448	0	32948	32996	31406	
2449	0	33224	33024	31424	
2450	0	32924	32925	31426	
2451	0	34001	33044	31393	
2452	0	33124	32825	31404	
2453	0	31844	33052	31412	
2454	0	31316	32640	31422	
2455	0	30652	32650	31415	
2456	0	31168	32775	31393	
2457	0	32972	32900	31416	
2458	0	34888	33101	31416	
2459	0	35204	33333	31432	
2460	0	35016	32808	31436	
2461	0	34460	32652	31444	
2462	0	34504	32940	31456	
2463	0	33557	32972	31452	
2464	0	33984	32528	31456	
2465	0	35480	32596	31460	
2466	0	34736	32881	31449	
2467	0	33160	33287	31460	
2468	0	32308	33190	31452	
2469	0	31344	32800	31458	
2470	0	30868	32816	31434	
2471	0	30432	32400	31408	
2472	0	30592	32180	31396	
2473	0	30136	32868	31396	
2474	0	31240	32916	31382	
2475	0	33439	32754	31380	
2476	0	33728	32788	31364	
2477	0	33796	32964	31380	
2478	0	33977	32870	31404	
2479	0	31049	32689	31432	
2480	0	31516	32720	31424	
2481	0	33420	32871	31413	
2482	0	34361	32940	31436	
2483	0	33260	33428	31436	
2484	0	31404	32556	31446	
2485	0	31824	32405	31436	
2486	0	32629	32508	31440	
2487	0	33104	32960	31436	
2488	0	33476	33029	31440	
2489	0	33072	32996	31444	
2490	0	33640	32956	31428	
2491	0	33928	32852	31430	
2492	0	33100	33265	31434	
2493	0	32361	33109	31424	
2494	0	31876	33236	31429	
2495	0	31688	33216	31437	
2496	0	33608	32846	31446	
2497	0	33574	32519	31445	
2498	0	33136	32457	31453	
2499	0	32404	32740	31436	
2500	0	30817	32952	31464	
2501	0	30960	32855	31444	
2502	0	30840	32948	31444	
2503	0	32584	32810	31456	
2504	0	34088	32872	31460	
2505	0	32509	32830	31462	
2506	0	31300	33036	31460	
2507	0	31464	32940	31472	
2508	0	33404	32878	31490	
2509	0	34088	32520	31472	
2510	0	34712	32344	31462	
2511	0	34460	32708	31448	
2512	0	33288	33076	31424	
2513	0	33760	33216	31412	
2514	0	35744	32540	31404	
2515	0	35508	32226	31408	
2516	0	33754	32752	31416	
2517	0	32752	32976	31426	
2518	0	31008	32888	31420	
2519	0	29088	32742	31426	
2520	0	30252	33160	31444	
2521	0	31356	33287	31436	
2522	0	32196	32304	31438	
2523	0	33009	32564	31436	
2524	0	34032	32653	31432	
2525	0	34092	32934	31431	
2526	0	33328	33001	31432	
2527	0	33196	32751	31433	
2528	0	32658	32656	31430	
2529	0	32032	32892	31416	
2530	0	32908	32888	31414	
2531	0	34800	32862	31400	
2532	0	34300	33501	31396	
2533	0	32480	32516	31396	
2534	0	32401	32549	31388	
2535	0	33316	32677	31386	
2536	0	33292	33304	31400	
2537	0	33117	32530	31382	
2538	0	33284	32526	31406	
2539	0	32188	32710	31414	
2540	0	31856	32677	31414	
2541	0	31502	32968	31388	
2542	0	31484	33184	31378	
2543	0	31656	33040	31381	
2544	0	32536	32582	31404	
2545	0	32632	32761	31400	
2546	0	32580	33159	31399	
2547	0	32504	33268	31388	
2548	0	32828	33056	31368	
2549	0	33536	32514	31368	
2550	0	32934	32646	31376	
2551	0	32220	32500	31380	
2552	0	31742	32566	31348	
2553	0	32165	32766	31332	
2554	0	32018	33125	31342	
2555	0	33034	32856	31343	
2556	0	33664	33117	31337	
2557	0	34572	32850	31341	
2558	0	35646	32816	31362	
2559	0	34168	33088	31381	
2560	0	32237	32868	31388	
2561	0	30658	32615	31396	
2562	0	30940	32501	31392	
2563	0	32788	33272	31408	
2564	0	32948	33543	31416	
2565	0	33360	33080	31415	
2566	0	31932	32824	31424	
2567	0	31020	32245	31400	
2568	0	32052	32525	31415	
2569	0	32856	32124	31404	
2570	0	33876	32452	31389	
2571	0	35280	32628	31396	
2572	0	34920	32574	31389	
2573	0	33328	33120	31384	
2574	0	32532	32871	31356	
2575	0	31865	32674	31367	
2576	0	31664	33045	31370	
2577	0	30280	33665	31360	
2578	0	30308	33712	31372	
2579	0	33424	32936	31381	
2580	0	34972	32388	31388	
2581	0	34466	32315	31386	
2582	0	33520	32572	31398	
2583	0	33328	32900	31386	
2584	0	34245	32860	31381	
2585	0	32952	32830	31386	
2586	0	32018	32873	31376	
2587	0	31196	32890	31372	
2588	0	31048	32888	31375	
2589	0	30088	32804	31381	
2590	0	28961	32688	31392	
2591	0	30016	32438	31400	
2592	0	33404	33032	31400	
2593	0	36364	32528	31392	
2594	0	35668	32439	31390	
2595	0	36316	32593	31373	
2596	0	36256	32844	31350	
2597	0	35536	33369	31374	
2598	0	34752	33044	31361	
2599	0	33949	32570	31383	
2600	0	32430	32653	31404	
2601	0	30740	33052	31428	
2602	0	31224	33241	31436	
2603	0	30720	33076	31428	
2604	0	30868	33244	31434	
2605	0	30764	32598	31432	
2606	0	31584	32678	31404	
2607	0	33136	32852	31409	
2608	0	30792	32822	31420	
2609	0	30856	33000	31422	
2610	0	31396	32920	31416	
2611	0	32030	32852	31424	
2612	0	34292	32316	31414	
2613	0	34892	32475	31404	
2614	0	35012	32790	31421	
2615	0	35250	32959	31404	
2616	0	34080	32899	31424	
2617	0	33928	32735	31426	
2618	0	32668	32648	31412	
2619	0	32044	32824	31420	
2620	0	31844	33100	31412	
2621	0	31480	32752	31432	
2622	0	31208	32832	31440	
2623	0	33080	33008	31456	
2624	0	33700	33124	31460	
2625	0	33920	33057	31460	
2626	0	32236	32648	31480	
2627	0	30144	32789	31468	
2628	0	32916	32685	31462	
2629	0	35012	32591	31461	
2630	0	33360	32548	31437	
2631	0	32432	32412	31429	
2632	0	31704	32489	31432	
2633	0	31236	32684	31441	
2634	0	32236	32976	31433	
2635	0	34860	33002	31433	
2636	0	35497	33036	31444	
2637	0	34324	33252	31440	
2638	0	32965	32668	31468	
2639	0	31372	33060	31469	
2640	0	31833	32884	31474	
2641	0	32060	32978	31478	
2642	0	31685	33309	31482	
2643	0	31902	33264	31484	
2644	0	32464	32562	31469	
2645	0	32357	32352	31465	
2646	0	32272	32236	31431	
2647	0	32322	32472	31400	
2648	0	32648	32737	31418	
2649	0	33096	33151	31424	
2650	0	33184	33139	31416	
2651	0	33829	33080	31400	
2652	0	34568	33180	31412	
2653	0	34252	33056	31424	
2654	0	32984	33516	31408	
2655	0	31993	32805	31376	
2656	0	31680	32644	31367	
2657	0	32372	32716	31340	
2658	0	32424	32804	31365	
2659	0	32072	32700	31380	
2660	0	32674	32894	31396	
2661	0	32753	32016	31404	
2662	0	31776	32551	31412	
2663	0	31828	33629	31432	
2664	0	31996	32322	31437	
2665	0	34396	32840	31452	
2666	0	34338	32872	31473	
2667	0	33498	32845	31466	
2668	0	32972	33324	31448	
2669	0	32128	33445	31458	
2670	0	32093	32988	31444	
2671	0	31481	32637	31457	
2672	0	32404	32608	31460	
2673	0	32708	32737	31461	
2674	0	32657	32880	31456	
2675	0	33829	32790	31460	
2676	0	34148	32708	31444	
2677	0	32720	32694	31430	
2678	0	32828	32660	31408	
2679	0	34080	32621	31405	
2680	0	34112	32756	31421	
2681	0	34326	32885	31428	
2682	0	34256	33253	31440	
2683	0	32300	32919	31456	
2684	0	32238	32962	31454	
2685	0	32624	32769	31437	
2686	0	31868	32353	31429	
2687	0	31872	32544	31392	
2688	0	32396	32652	31404	
2689	0	33880	32824	31396	
2690	0	33777	32775	31410	
2691	0	31976	32844	31400	
2692	0	31096	33385	31396	
2693	0	31168	32908	31394	
2694	0	31440	32732	31356	
2695	0	31670	33284	31372	
2696	0	32676	32700	31377	
2697	0	33792	32699	31392	
2698	0	34116	32537	31405	
2699	0	34452	32624	31417	
2700	0	32136	32831	31413	
2701	0	30005	32992	31428	
2702	0	31712	33433	31434	
2703	0	33492	32856	31418	
2704	0	33348	33069	31420	
2705	0	32313	33100	31408	
2706	0	32720	32942	31422	
2707	0	33762	33116	31406	
2708	0	34408	32676	31411	
2709	0	33016	32350	31414	
2710	0	33132	32090	31460	
2711	0	33588	32744	31433	
2712	0	32353	32684	31429	
2713	0	32452	33053	31428	
2714	0	32672	32838	31410	
2715	0	32676	32545	31402	
2716	0	32564	32416	31380	
2717	0	31864	32911	31400	
2718	0	33018	33269	31392	
2719	0	33812	33496	31397	
2720	0	34252	32050	31392	
2721	0	33728	32577	31398	
2722	0	33216	33152	31424	
2723	0	32244	33057	31428	
2724	0	31344	32988	31432	
2725	0	30357	33092	31444	
2726	0	30380	32868	31438	
2727	0	31249	32844	31448	
2728	0	31376	32760	31460	
2729	0	33428	32597	31462	
2730	0	34644	32578	31468	
2731	0	32862	32752	31445	
2732	0	30452	33184	31433	
2733	0	32224	32988	31445	
2734	0	36137	33316	31428	
2735	0	36176	32741	31428	
2736	0	35908	32996	31424	
2737	0	35444	32660	31430	
2738	0	34316	32496	31428	
2739	0	33420	32536	31431	
2740	0	33040	32519	31444	
2741	0	32780	33164	31464	
2742	0	32228	32784	31496	
2743	0	31500	32608	31501	
2744	0	31269	32752	31528	
2745	0	31512	32900	31520	
2746	0	31744	33052	31484	
2747	0	31492	32712	31481	
2748	0	31866	32945	31463	
2749	0	31941	32952	31469	
2750	0	31844	32972	31452	
2751	0	31640	33224	31428	
2752	0	32552	32808	31420	
2753	0	33312	32900	31428	
2754	0	32012	32482	31392	
2755	0	31317	32442	31412	
2756	0	32918	32580	31413	
2757	0	33294	32574	31396	
2758	0	35032	33033	31416	
2759	0	35324	33084	31432	
2760	0	34754	32832	31428	
2761	0	33276	33222	31448	
2762	0	32052	33408	31426	
2763	0	32248	33044	31428	
2764	0	31988	32903	31436	
2765	0	31665	32636	31428	
2766	0	31897	32767	31448	
2767	0	32026	32420	31468	
2768	0	31921	32437	31472	
2769	0	32152	32701	31457	
2770	0	32244	32991	31463	
2771	0	32276	32960	31472	
2772	0	31749	33268	31468	
2773	0	34297	32878	31444	
2774	0	34196	32716	31444	
2775	0	32992	32855	31430	
2776	0	34092	33167	31428	
2777	0	33532	32925	31424	
2778	0	35000	32620	31408	
2779	0	34808	32632	31408	
2780	0	32337	32768	31404	
2781	0	32140	33044	31409	
2782	0	32056	32916	31412	
2783	0	31516	32832	31412	
2784	0	31700	32959	31412	
2785	0	32480	32565	31404	
2786	0	32436	32576	31404	
2787	0	32866	32348	31381	
2788	0	33300	32454	31391	
2789	0	32776	32868	31372	
2790	0	32548	32232	31364	
2791	0	32919	32276	31369	
2792	0	32070	32952	31364	
2793	0	31205	33050	31332	
2794	0	29944	33236	31317	
2795	0	30652	33669	31329	
2796	0	32041	33240	31312	
2797	0	33610	32932	31317	
2798	0	35548	32724	31318	
2799	0	36152	32708	31334	
2800	0	33860	32572	31344	
2801	0	32893	32837	31357	
2802	0	33241	33660	31336	
2803	0	33480	33396	31334	
2804	0	34084	32668	31320	
2805	0	33172	32704	31321	
2806	0	32648	33680	31312	
2807	0	32390	32780	31320	
2808	0	32388	32545	31324	
2809	0	33280	32621	31342	
2810	0	33440	32148	31312	
2811	0	32492	32474	31300	
2812	0	32775	32493	31324	
2813	0	33880	32152	31320	
2814	0	33724	32480	31302	
2815	0	32964	32750	31304	
2816	0	31892	33140	31288	
2817	0	31565	33196	31304	
2818	0	31257	33142	31318	
2819	0	31844	33132	31304	
2820	0	32754	32996	31302	
2821	0	32241	33056	31301	
2822	0	32024	32984	31316	
2823	0	32245	32860	31333	
2824	0	32266	32616	31334	
2825	0	32664	32549	31350	
2826	0	32960	32820	31364	
2827	0	33120	32500	31362	
2828	0	32968	32736	31356	
2829	0	32328	32760	31365	
2830	0	31569	33036	31380	
2831	0	33188	32944	31381	
2832	0	33704	32896	31350	
2833	0	33912	32976	31357	
2834	0	33470	32545	31349	
2835	0	32080	32357	31350	
2836	0	31840	32813	31352	
2837	0	32017	33161	31359	
2838	0	32297	33016	31356	
2839	0	33180	32820	31390	
2840	0	33760	32769	31412	
2841	0	34468	32872	31401	
2842	0	35248	33016	31408	
2843	0	33390	33035	31420	
2844	0	31648	32864	31441	
2845	0	31200	32338	31444	
2846	0	31646	32740	31420	
2847	0	32036	32870	31414	
2848	0	32560	32712	31405	
2849	0	32572	32829	31413	
2850	0	32533	32660	31401	
2851	0	33462	32820	31421	
2852	0	33380	32948	31417	
2853	0	33524	33287	31392	
2854	0	33506	32970	31397	
2855	0	33240	32749	31381	
2856	0	33380	33229	31366	
2857	0	33448	32873	31375	
2858	0	33013	32708	31376	
2859	0	31872	32387	31398	
2860	0	31533	32628	31416	
2861	0	31049	32672	31422	
2862	0	32448	32808	31429	
2863	0	33956	32662	31438	
2864	0	32340	33360	31447	
2865	0	31472	33054	31437	
2866	0	31132	32753	31428	
2867	0	32390	33022	31425	
2868	0	33520	33506	31397	
2869	0	33176	33580	31380	
2870	0	32996	32981	31376	
2871	0	33132	32032	31374	
2872	0	33665	32064	31400	
2873	0	33420	32529	31406	
2874	0	32743	32478	31424	
2875	0	34048	32452	31424	
2876	0	34696	33072	31428	
2877	0	34074	32408	31434	
2878	0	33444	32924	31437	
2879	0	33180	33292	31424	
2880	0	32812	33169	31408	
2881	0	32120	33264	31400	
2882	0	31836	32901	31404	
2883	0	30860	32628	31428	
2884	0	30292	32862	31406	
2885	0	31392	32532	31400	
2886	0	32520	32472	31408	
2887	0	33140	32859	31396	
2888	0	33533	32892	31392	
2889	0	32864	32763	31382	
2890	0	32372	32804	31368	
2891	0	32176	32900	31380	
2892	0	32932	33013	31366	
2893	0	34032	33028	31376	
2894	0	35152	32648	31383	
2895	0	34460	32402	31377	
2896	0	33422	32888	31389	
2897	0	32780	33188	31381	
2898	0	33814	33256	31389	
2899	0	34932	33207	31385	
2900	0	33680	32890	31380	
2901	0	31988	32832	31388	
2902	0	30016	32925	31386	
2903	0	30500	32628	31405	
2904	0	30508	32680	31398	
2905	0	30504	33320	31388	
2906	0	31800	32648	31356	
2907	0	33012	32937	31349	
2908	0	33814	32796	31344	
2909	0	33536	32420	31356	
2910	0	32772	32544	31361	
2911	0	32500	32656	31364	
2912	0	32604	32628	31364	
2913	0	33178	33196	31364	
2914	0	32984	32768	31336	
2915	0	33048	32788	31330	
2916	0	33148	32892	31332	
2917	0	32596	33080	31349	
2918	0	33241	33002	31353	
2919	0	32026	32656	31377	
2920	0	30740	32556	31384	
2921	0	32348	32844	31393	
2922	0	32814	33297	31401	
2923	0	34717	33169	31420	
2924	0	34504	32846	31420	
2925	0	34457	32682	31416	
2926	0	34728	32153	31404	
2927	0	34216	32142	31372	
2928	0	33080	32558	31382	
2929	0	32184	32593	31370	
2930	0	32004	32853	31368	
2931	0	32208	32676	31365	
2932	0	32444	32801	31357	
2933	0	32600	33004	31353	
2934	0	31510	32967	31352	
2935	0	31788	33092	31366	
2936	0	32428	32942	31360	
2937	0	33096	32848	31364	
2938	0	33932	32837	31378	
2939	0	33942	33096	31386	
2940	0	33414	33242	31412	
2941	0	32696	33044	31412	
2942	0	32148	32705	31421	
2943	0	32865	32968	31457	
2944	0	32208	32824	31449	
2945	0	30696	32657	31448	
2946	0	30757	32296	31436	
2947	0	30274	32602	31424	
2948	0	33439	32824	31432	
2949	0	34376	32647	31428	
2950	0	33960	33036	31400	
2951	0	34260	32890	31392	
2952	0	34148	33052	31380	
2953	0	33400	33462	31391	
2954	0	32568	32900	31384	
2955	0	32268	32821	31398	
2956	0	32500	32613	31392	
2957	0	33224	32463	31378	
2958	0	32692	32871	31380	
2959	0	32752	32582	31398	
2960	0	33292	33136	31401	
2961	0	33240	32732	31405	
2962	0	33408	32775	31408	
2963	0	32452	33000	31408	
2964	0	30364	32973	31408	
2965	0	30524	33100	31421	
2966	0	32916	33392	31413	
2967	0	34048	32569	31411	
2968	0	32337	32388	31406	
2969	0	32048	31989	31381	
2970	0	33976	32732	31352	
2971	0	33944	33064	31357	
2972	0	33329	32976	31340	
2973	0	32629	32866	31340	
2974	0	33184	32660	31345	
2975	0	33452	32664	31348	
2976	0	33096	32518	31338	
2977	0	31912	33124	31348	
2978	0	32585	32964	31365	
2979	0	33258	32784	31356	
2980	0	33832	32192	31392	
2981	0	32820	32102	31408	
2982	0	32432	32684	31425	
2983	0	32164	33081	31457	
2984	0	32018	32980	31448	
2985	0	31612	33121	31441	
2986	0	31236	33244	31456	
2987	0	31116	32918	31452	
2988	0	32730	32682	31435	
2989	0	32756	32722	31423	
2990	0	32938	32821	31441	
2991	0	33540	32776	31416	
2992	0	34168	32771	31422	
2993	0	34512	32797	31429	
2994	0	34364	32912	31415	
2995	0	34272	32997	31408	
2996	0	33920	32709	31428	
2997	0	33560	32898	31437	
2998	0	32668	33285	31438	
2999	0	31132	33232	31440	
3000	0	31586	33020	31449	
3001	0	32036	32983	31452	
3002	0	31845	33028	31460	
3003	0	31968	33154	31487	
3004	0	30653	32740	31492	
3005	0	31068	32736	31516	
3006	0	33156	32534	31484	
3007	0	33540	32764	31494	
3008	0	34236	32529	31477	
3009	0	34190	32597	31474	
3010	0	34148	32722	31456	
3011	0	33580	32722	31465	
3012	0	33010	32832	31460	
3013	0	33228	32978	31440	
3014	0	32980	32796	31436	
3015	0	32826	33124	31434	
3016	0	32756	33284	31433	
3017	0	32032	33134	31454	
3018	0	31260	32728	31434	
3019	0	32000	32385	31432	
3020	0	32872	32293	31434	
3021	0	32960	32686	31448	
3022	0	32552	32964	31460	
3023	0	31696	32952	31460	
3024	0	31992	32884	31479	
3025	0	31997	32943	31484	
3026	0	32409	32764	31494	
3027	0	33204	32583	31489	
3028	0	33488	32530	31445	
3029	0	33236	33404	31430	
3030	0	33377	32132	31418	
3031	0	33498	32692	31396	
3032	0	33492	32712	31385	
3033	0	33268	33096	31367	
3034	0	33040	33012	31366	
3035	0	33788	32420	31366	
3036	0	33700	32896	31349	
3037	0	33380	33132	31368	
3038	0	33164	33006	31348	
3039	0	32288	32952	31368	
3040	0	33020	32721	31380	
3041	0	31948	32964	31398	
3042	0	31812	32669	31421	
3043	0	31426	33017	31428	
3044	0	30580	32844	31428	
3045	0	31408	32840	31432	
3046	0	31314	33164	31424	
3047	0	31681	32745	31380	
3048	0	32202	31877	31367	
3049	0	33136	32494	31356	
3050	0	33184	32532	31329	
3051	0	34412	32554	31336	
3052	0	35220	32880	31421	
3053	0	34649	32708	31244	
3054	0	34020	32986	31268	
3055	0	34390	33164	31343	
3056	0	33556	33040	31334	
3057	0	32672	32886	31320	
3058	0	33256	32867	31301	
3059	0	31753	33281	31320	
3060	0	33444	33004	31320	
3061	0	32604	32490	31356	
3062	0	31032	32848	31364	
3063	0	29960	32417	31357	
3064	0	30184	32801	31376	
3065	0	31084	33244	31376	
3066	0	33233	33048	31385	
3067	0	34452	33437	31400	
3068	0	36413	32592	31372	
3069	0	34964	32580	31356	
3070	0	34420	32184	31364	
3071	0	33836	32252	31360	
3072	0	33016	32970	31351	
3073	0	32360	32576	31377	
3074	0	31778	32732	31368	
3075	0	31892	32686	31390	
3076	0	32030	32796	31386	
3077	0	32172	33064	31396	
3078	0	32220	33069	31401	
3079	0	32232	32966	31412	
3080	0	32924	32865	31416	
3081	0	32148	32888	31408	
3082	0	31416	32905	31401	
3083	0	31608	32824	31416	
3084	0	32040	32897	31436	
3085	0	32872	32852	31425	
3086	0	33364	32774	31404	
3087	0	34324	32892	31398	
3088	0	33436	33004	31408	
3089	0	32736	33063	31408	
3090	0	32744	32698	31402	
3091	0	32740	32684	31402	
3092	0	32654	32825	31394	
3093	0	32457	32496	31409	
3094	0	33276	32980	31408	
3095	0	33140	32858	31402	
3096	0	33564	32712	31380	
3097	0	33375	33256	31384	
3098	0	33536	32724	31398	
3099	0	33464	32698	31405	
3100	0	33328	32613	31404	
3101	0	32680	32168	31423	
3102	0	31800	32948	31450	
3103	0	31244	33308	31460	
3104	0	31424	32738	31494	
3105	0	31884	32696	31484	
3106	0	31864	32816	31445	
3107	0	31256	32577	31440	
3108	0	31382	32612	31438	
3109	0	31984	32644	31428	
3110	0	32597	33088	31406	
3111	0	34760	33108	31376	
3112	0	35700	32720	31377	
3113	0	34648	32872	31354	
3114	0	34156	32840	31348	
3115	0	34817	33220	31348	
3116	0	34302	32768	31344	
3117	0	34400	32366	31340	
3118	0	32604	32448	31350	
3119	0	31256	32400	31365	
3120	0	31556	32796	31361	
3121	0	31312	33100	31376	
3122	0	31194	33308	31416	
3123	0	30452	33255	31408	
3124	0	31556	32860	31406	
3125	0	32380	32648	31406	
3126	0	32700	32486	31410	
3127	0	33048	32864	31408	
3128	0	33589	33073	31404	
3129	0	33880	33072	31404	
3130	0	33272	32724	31417	
3131	0	33165	32295	31396	
3132	0	33508	32648	31420	
3133	0	33612	32606	31428	
3134	0	32520	32756	31417	
3135	0	32344	32850	31412	
3136	0	31865	32929	31408	
3137	0	32410	33290	31400	
3138	0	32908	33660	31392	
3139	0	33624	32812	31401	
3140	0	32958	32655	31408	
3141	0	33446	32628	31429	
3142	0	33756	32652	31430	
3143	0	33856	32972	31444	
3144	0	33524	33324	31452	
3145	0	32081	32786	31447	
3146	0	31868	32937	31436	
3147	0	30684	33292	31425	
3148	0	30953	32736	31423	
3149	0	31612	32304	31405	
3150	0	33164	32152	31361	
3151	0	34204	32640	31356	
3152	0	33984	32982	31348	
3153	0	33122	32720	31367	
3154	0	32072	32622	31372	
3155	0	32500	32857	31368	
3156	0	32740	32668	31392	
3157	0	33324	32834	31398	
3158	0	33232	33097	31408	
3159	0	32796	33060	31397	
3160	0	32597	33000	31424	
3161	0	32252	32612	31420	
3162	0	31956	32548	31400	
3163	0	31654	32717	31405	
3164	0	32497	32952	31412	
3165	0	33100	32800	31407	
3166	0	33058	32696	31394	
3167	0	32508	32753	31404	
3168	0	31136	32308	31408	
3169	0	31876	32716	31384	
3170	0	33181	32857	31373	
3171	0	33869	32961	31378	
3172	0	34440	32892	31364	
3173	0	35421	33036	31353	
3174	0	35160	33160	31350	
3175	0	34148	32746	31348	
3176	0	34340	32732	31342	
3177	0	33332	32533	31336	
3178	0	32697	33174	31364	
3179	0	31404	32842	31370	
3180	0	31017	32829	31364	
3181	0	32144	33200	31402	
3182	0	32352	33070	31408	
3183	0	32500	32775	31408	
3184	0	32220	32912	31424	
3185	0	31796	32608	31408	
3186	0	31528	32593	31400	
3187	0	31180	32632	31408	
3188	0	31312	32714	31397	
3189	0	32224	32917	31402	
3190	0	32928	32970	31375	
3191	0	33796	32961	31369	
3192	0	34425	33081	31365	
3193	0	34344	32711	31368	
3194	0	33844	32664	31376	
3195	0	33366	32806	31376	
3196	0	33068	32820	31388	
3197	0	32849	32960	31373	
3198	0	32424	32978	31384	
3199	0	32357	32576	31404	
3200	0	32364	32688	31414	
3201	0	32300	32951	31401	
3202	0	32048	32903	31420	
3203	0	31844	33077	31426	
3204	0	32452	32646	31431	
3205	0	32752	32528	31437	
3206	0	32896	32682	31457	
3207	0	33933	32924	31428	
3208	0	33808	32776	31404	
3209	0	32860	32636	31392	
3210	0	32320	33008	31364	
3211	0	31148	32864	31357	
3212	0	31060	33121	31364	
3213	0	32320	32957	31368	
3214	0	32032	32728	31364	
3215	0	32672	32812	31353	
3216	0	33976	32804	31365	
3217	0	34991	32847	31372	
3218	0	34668	32685	31364	
3219	0	35585	32644	31372	
3220	0	33016	32676	31376	
3221	0	32816	33076	31356	
3222	0	32408	33541	31376	
3223	0	31032	32788	31374	
3224	0	30856	32602	31368	
3225	0	31556	32770	31365	
3226	0	32736	32672	31365	
3227	0	33980	32502	31354	
3228	0	34260	32593	31345	
3229	0	33664	33049	31365	
3230	0	32228	32892	31336	
3231	0	31861	32564	31320	
3232	0	32989	32488	31300	
3233	0	33352	32885	31290	
3234	0	33284	32898	31288	
3235	0	34252	33016	31284	
3236	0	34049	32678	31285	
3237	0	32776	32808	31284	
3238	0	32252	32709	31276	
3239	0	32350	32818	31292	
3240	0	32320	32962	31285	
3241	0	31852	32894	31324	
3242	0	31928	32993	31370	
3243	0	31872	33060	31380	
3244	0	31604	32660	31388	
3245	0	31400	33034	31388	
3246	0	31870	32788	31383	
3247	0	32646	32660	31368	
3248	0	32876	32830	31364	
3249	0	32781	32913	31360	
3250	0	32872	32513	31342	
3251	0	33378	32519	31360	
3252	0	33912	32902	31352	
3253	0	33612	33308	31377	
3254	0	33576	33142	31380	
3255	0	34189	33117	31356	
3256	0	32284	32288	31372	
3257	0	31477	32585	31364	
3258	0	32100	32764	31364	
3259	0	33376	32904	31392	
3260	0	33856	33408	31405	
3261	0	33725	33100	31416	
3262	0	34436	32640	31456	
3263	0	34114	32644	31477	
3264	0	32304	32754	31468	
3265	0	31668	32536	31454	
3266	0	30340	32352	31453	
3267	0	30988	32719	31470	
3268	0	32296	33079	31460	
3269	0	32804	32972	31440	
3270	0	33164	32905	31432	
3271	0	32968	33014	31421	
3272	0	32844	32950	31433	
3273	0	33212	32816	31428	
3274	0	33420	32709	31394	
3275	0	33226	32888	31414	
3276	0	33280	32784	31417	
3277	0	33140	32468	31425	
3278	0	32900	32780	31416	
3279	0	32228	32904	31392	
3280	0	31841	32813	31397	
3281	0	32136	33196	31397	
3282	0	33200	32964	31432	
3283	0	32956	33100	31443	
3284	0	32344	32965	31468	
3285	0	32057	32758	31452	
3286	0	31568	32796	31429	
3287	0	31952	32866	31428	
3288	0	32144	32942	31428	
3289	0	34724	32905	31420	
3290	0	34486	32809	31426	
3291	0	33884	33220	31404	
3292	0	33456	33025	31412	
3293	0	33476	32450	31424	
3294	0	32871	32076	31420	
3295	0	33007	32440	31433	
3296	0	32752	32336	31422	
3297	0	32905	32632	31428	
3298	0	33465	32869	31452	
3299	0	33200	32940	31449	
3300	0	32792	33098	31436	
3301	0	32680	33222	31436	
3302	0	32556	33342	31442	
3303	0	32076	32929	31441	
3304	0	31388	32636	31429	
3305	0	31922	32916	31448	
3306	0	31752	32692	31444	
3307	0	31229	32716	31440	
3308	0	31396	33040	31452	
3309	0	30517	33076	31448	
3310	0	29581	32910	31441	
3311	0	31804	33242	31425	
3312	0	34629	33090	31404	
3313	0	36744	32744	31428	
3314	0	36429	32440	31427	
3315	0	36833	32128	31392	
3316	0	35808	32364	31408	
3317	0	34378	32704	31388	
3318	0	33397	32740	31379	
3319	0	32040	32756	31384	
3320	0	31272	32836	31396	
3321	0	31158	32752	31412	
3322	0	31032	32808	31428	
3323	0	30540	32816	31446	
3324	0	31068	32965	31436	
3325	0	30892	33166	31448	
3326	0	30996	32817	31449	
3327	0	32148	32536	31436	
3328	0	33030	32692	31435	
3329	0	34288	32805	31438	
3330	0	34108	33151	31436	
3331	0	34588	33160	31412	
3332	0	34532	32464	31424	
3333	0	33294	32580	31428	
3334	0	32220	33440	31413	
3335	0	32004	33452	31397	
3336	0	33564	33092	31408	
3337	0	34348	32112	31397	
3338	0	33600	32593	31414	
3339	0	33012	32881	31432	
3340	0	32836	32904	31440	
3341	0	32189	32684	31446	
3342	0	32932	32624	31440	
3343	0	33110	33036	31428	
3344	0	32156	33084	31429	
3345	0	31568	32836	31414	
3346	0	31388	32868	31405	
3347	0	32048	32968	31398	
3348	0	32432	33032	31420	
3349	0	32053	32954	31412	
3350	0	32696	32624	31420	
3351	0	33056	32839	31388	
3352	0	32344	32682	31366	
3353	0	33280	32547	31352	
3354	0	32212	32656	31374	
3355	0	32412	32640	31367	
3356	0	32740	32844	31381	
3357	0	33305	32900	31374	
3358	0	33957	33092	31384	
3359	0	33786	33013	31390	
3360	0	33709	33154	31384	
3361	0	33244	32933	31380	
3362	0	32680	32960	31388	
3363	0	33062	32877	31417	
3364	0	32720	33064	31420	
3365	0	32252	32785	31400	
3366	0	31600	32568	31383	
3367	0	30844	32528	31381	
3368	0	32698	32614	31404	
3369	0	33848	32724	31406	
3370	0	34020	33252	31392	
3371	0	33552	33197	31388	
3372	0	33300	32744	31390	
3373	0	32292	32648	31384	
3374	0	32124	32464	31376	
3375	0	32405	32612	31381	
3376	0	32392	32796	31368	
3377	0	32620	32462	31361	
3378	0	33104	32568	31353	
3379	0	33054	32932	31366	
3380	0	33004	33059	31364	
3381	0	33222	33088	31408	
3382	0	33140	32660	31428	
3383	0	32356	33080	31420	
3384	0	31460	33041	31427	
3385	0	30908	32748	31436	
3386	0	30980	33138	31428	
3387	0	31318	33276	31421	
3388	0	33696	33296	31412	
3389	0	34062	33016	31404	
3390	0	35100	32724	31397	
3391	0	36320	32634	31381	
3392	0	34092	32414	31376	
3393	0	34494	32260	31388	
3394	0	33261	32613	31370	
3395	0	31824	33010	31352	
3396	0	31586	32780	31366	
3397	0	31749	32896	31350	
3398	0	32346	32772	31356	
3399	0	32456	32685	31365	
3400	0	32668	32668	31376	
3401	0	32316	32912	31396	
3402	0	31940	32669	31409	
3403	0	31961	32836	31418	
3404	0	31720	33829	31440	
3405	0	31452	32817	31444	
3406	0	31536	32844	31452	
3407	0	31913	32340	31440	
3408	0	32302	32173	31424	
3409	0	33492	32880	31422	
3410	0	34720	33252	31409	
3411	0	35164	32944	31414	
3412	0	35204	32800	31398	
3413	0	33420	32804	31388	
3414	0	32772	32949	31372	
3415	0	32012	33112	31358	
3416	0	31976	33122	31344	
3417	0	33237	32838	31340	
3418	0	33612	32772	31333	
3419	0	34277	32750	31352	
3420	0	33292	32684	31327	
3421	0	31988	32762	31346	
3422	0	31657	32740	31365	
3423	0	33140	32764	31368	
3424	0	32686	32506	31380	
3425	0	32468	32733	31386	
3426	0	32208	33228	31356	
3427	0	31684	33184	31350	
3428	0	31852	33108	31334	
3429	0	31426	32825	31340	
3430	0	31253	32742	31320	
3431	0	30385	32511	31328	
3432	0	30808	32576	31336	
3433	0	32524	32712	31304	
3434	0	34616	32568	31314	
3435	0	35656	32564	31316	
3436	0	36476	32620	31310	
3437	0	35628	32709	31311	
3438	0	34456	32870	31300	
3439	0	33216	32940	31328	
3440	0	32129	33001	31334	
3441	0	29924	33177	31329	
3442	0	30033	33268	31336	
3443	0	31524	33120	31342	
3444	0	32792	32967	31328	
3445	0	34720	32606	31320	
3446	0	34668	32788	31325	
3447	0	33392	32836	31332	
3448	0	32720	32426	31344	
3449	0	31976	32476	31364	
3450	0	32560	32856	31357	
3451	0	32757	33157	31367	
3452	0	33108	33157	31349	
3453	0	33648	33230	31352	
3454	0	33181	32928	31338	
3455	0	32712	31978	31326	
3456	0	32354	32112	31358	
3457	0	32760	32446	31388	
3458	0	33476	32752	31422	
3459	0	33188	33096	31412	
3460	0	31896	33080	31420	
3461	0	31376	33048	31413	
3462	0	31489	33396	31430	
3463	0	32036	32980	31416	
3464	0	32884	32364	31420	
3465	0	32988	32726	31420	
3466	0	32737	32932	31417	
3467	0	33722	32954	31405	
3468	0	32740	32888	31397	
3469	0	31580	32589	31400	
3470	0	32392	32244	31417	
3471	0	32510	32494	31404	
3472	0	32640	33464	31412	
3473	0	32732	32624	31412	
3474	0	32025	32840	31404	
3475	0	32772	32966	31396	
3476	0	33256	32956	31401	
3477	0	33556	32693	31404	
3478	0	33796	32952	31402	
3479	0	34364	33040	31412	
3480	0	34104	33169	31422	
3481	0	33524	33107	31432	
3482	0	32988	32768	31438	
3483	0	31084	32463	31452	
3484	0	31500	32680	31441	
3485	0	32688	32752	31444	
3486	0	33060	32740	31453	
3487	0	32905	32690	31453	
3488	0	32324	32672	31436	
3489	0	32596	32808	31424	
3490	0	32540	32864	31425	
3491	0	32836	32900	31408	
3492	0	33082	33236	31400	
3493	0	33304	32860	31408	
3494	0	33100	33316	31416	
3495	0	32772	33103	31407	
3496	0	32188	32676	31391	
3497	0	32376	32450	31376	
3498	0	33001	32656	31366	
3499	0	33576	32892	31349	
3500	0	33432	32784	31376	
3501	0	33476	32826	31396	
3502	0	32788	32860	31400	
3503	0	31873	33110	31416	
3504	0	30904	32816	31400	
3505	0	31008	32564	31396	
3506	0	31777	32690	31369	
3507	0	32800	32957	31364	
3508	0	33441	32924	31349	
3509	0	34032	32864	31316	
3510	0	34148	32917	31320	
3511	0	32654	32976	31308	
3512	0	33332	32991	31308	
3513	0	32420	32512	31302	
3514	0	32568	32735	31324	
3515	0	32888	33061	31304	
3516	0	32474	32952	31300	
3517	0	33456	32582	31296	
3518	0	34848	32292	31320	
3519	0	34516	32009	31320	
3520	0	33980	32760	31332	
3521	0	32340	32718	31324	
3522	0	31252	32903	31328	
3523	0	32402	33370	31332	
3524	0	32110	33100	31357	
3525	0	32068	33064	31368	
3526	0	32532	32872	31361	
3527	0	31773	32471	31373	
3528	0	31864	32868	31361	
3529	0	31340	32654	31346	
3530	0	31569	32509	31344	
3531	0	31988	32652	31317	
3532	0	32636	32868	31317	
3533	0	32500	32784	31329	
3534	0	32754	32773	31308	
3535	0	34208	32920	31302	
3536	0	35180	33159	31292	
3537	0	34330	33168	31284	
3538	0	34016	33200	31284	
3539	0	33850	33254	31300	
3540	0	33700	32270	31288	
3541	0	34072	32533	31300	
3542	0	33316	33000	31318	
3543	0	32040	33572	31313	
3544	0	30676	32820	31336	
3545	0	31032	32387	31336	
3546	0	31712	32516	31328	
3547	0	32240	33088	31329	
3548	0	32664	32973	31328	
3549	0	32622	32712	31344	
3550	0	32716	32760	31341	
3551	0	32677	32799	31320	
3552	0	32755	32916	31326	
3553	0	32036	32860	31332	
3554	0	32248	32752	31329	
3555	0	32824	32859	31304	
3556	0	33392	32762	31293	
3557	0	34020	32836	31306	
3558	0	34036	32810	31303	
3559	0	34196	32817	31333	
3560	0	33714	32880	31336	
3561	0	33046	32919	31336	
3562	0	33520	32924	31358	
3563	0	32317	33288	31360	
3564	0	30770	32896	31362	
3565	0	30384	32929	31378	
3566	0	31436	32852	31356	
3567	0	33240	32865	31364	
3568	0	33204	32626	31357	
3569	0	32408	32745	31337	
3570	0	31388	32950	31338	
3571	0	32704	32960	31317	
3572	0	33744	32440	31324	
3573	0	33436	33213	31320	
3574	0	33432	32953	31313	
3575	0	33256	32124	31327	
3576	0	33384	32217	31348	
3577	0	34000	32608	31380	
3578	0	33804	32655	31386	
3579	0	32413	33188	31370	
3580	0	32037	33444	31372	
3581	0	33312	33201	31384	
3582	0	33168	32780	31378	
3583	0	31676	32720	31376	
3584	0	31341	33218	31380	
3585	0	30796	32856	31388	
3586	0	32716	32788	31399	
3587	0	33488	32638	31380	
3588	0	34156	32676	31399	
3589	0	33532	32705	31383	
3590	0	32918	32509	31362	
3591	0	31472	32629	31348	
3592	0	30929	32876	31328	
3593	0	31466	33152	31360	
3594	0	32304	32801	31339	
3595	0	33504	32464	31345	
3596	0	35356	32657	31356	
3597	0	34428	32837	31354	
3598	0	33825	33047	31356	
3599	0	33276	33125	31348	
3600	0	33320	33220	31363	
3601	0	32910	33188	31369	
3602	0	31832	33237	31358	
3603	0	31668	32921	31381	
3604	0	32964	32884	31396	
3605	0	32144	32856	31380	
3606	0	31300	32892	31364	
3607	0	31732	33108	31372	
3608	0	32636	32684	31385	
3609	0	34194	32886	31368	
3610	0	34652	32273	31350	
3611	0	32974	32468	31356	
3612	0	32970	32586	31348	
3613	0	32824	32840	31332	
3614	0	32696	32881	31317	
3615	0	33002	32775	31317	
3616	0	33068	33122	31316	
3617	0	32492	32607	31324	
3618	0	32708	32998	31312	
3619	0	33164	33038	31328	
3620	0	33041	33022	31353	
3621	0	33356	33028	31376	
3622	0	32762	33360	31388	
3623	0	31297	32877	31356	
3624	0	32176	32377	31368	
3625	0	32556	33016	31373	
3626	0	33132	33103	31364	
3627	0	32304	32525	31348	
3628	0	31380	33106	31335	
3629	0	31812	33569	31312	
3630	0	33448	32868	31296	
3631	0	33264	31813	31282	
3632	0	33066	31980	31292	
3633	0	33454	32600	31294	
3634	0	32588	32580	31289	
3635	0	33557	32816	31288	
3636	0	33372	33190	31276	
3637	0	32604	32732	31280	
3638	0	32520	32864	31274	
3639	0	33660	33252	31292	
3640	0	33249	33177	31288	
3641	0	32813	32963	31341	
3642	0	32453	33004	31349	
3643	0	31144	32846	31353	
3644	0	32196	32544	31372	
3645	0	32444	32791	31353	
3646	0	32124	32760	31354	
3647	0	32698	32836	31345	
3648	0	33400	32902	31349	
3649	0	33773	32672	31358	
3650	0	33276	32784	31356	
3651	0	32852	32856	31362	
3652	0	32808	32809	31367	
3653	0	32568	33100	31344	
3654	0	32924	33124	31342	
3655	0	33540	32753	31328	
3656	0	33157	33016	31324	
3657	0	32220	33028	31320	
3658	0	30080	32593	31328	
3659	0	30668	32692	31340	
3660	0	32204	32789	31328	
3661	0	33720	32472	31340	
3662	0	34528	32316	31364	
3663	0	36252	32866	31360	
3664	0	35748	33430	31380	
3665	0	33292	33252	31376	
3666	0	31928	32628	31365	
3667	0	30919	32601	31373	
3668	0	31114	32663	31333	
3669	0	32943	32804	31330	
3670	0	33397	32752	31308	
3671	0	32404	32837	31312	
3672	0	32124	33216	31312	
3673	0	32160	33106	31332	
3674	0	32368	33167	31348	
3675	0	32376	32989	31348	
3676	0	33064	32753	31344	
3677	0	34284	32916	31343	
3678	0	33556	32836	31352	
3679	0	32900	32833	31372	
3680	0	32800	32673	31380	
3681	0	32740	32764	31393	
3682	0	33184	33052	31412	
3683	0	33112	32788	31396	
3684	0	32660	32802	31399	
3685	0	32894	32928	31404	
3686	0	33072	33117	31398	
3687	0	32284	33007	31396	
3688	0	31673	33184	31364	
3689	0	31156	32620	31365	
3690	0	32264	32406	31349	
3691	0	33025	32780	31333	
3692	0	32868	32712	31334	
3693	0	32968	32878	31332	
3694	0	32760	32024	31336	
3695	0	33264	32008	31327	
3696	0	35460	32796	31345	
3697	0	35276	32544	31333	
3698	0	33221	33018	31324	
3699	0	31536	32952	31344	
3700	0	29608	32856	31360	
3701	0	30934	32892	31376	
3702	0	31517	33084	31364	
3703	0	32968	33348	31374	
3704	0	33926	32980	31393	
3705	0	33321	33257	31369	
3706	0	32592	33277	31357	
3707	0	32341	33151	31350	
3708	0	32048	32920	31365	
3709	0	31844	32775	31361	
3710	0	32236	32778	31357	
3711	0	32628	32644	31348	
3712	0	32968	32568	31356	
3713	0	33136	32476	31364	
3714	0	35764	32508	31364	
3715	0	35132	32668	31350	
3716	0	33660	32924	31336	
3717	0	33272	32733	31335	
3718	0	32896	32581	31336	
3719	0	32680	32870	31348	
3720	0	32480	32804	31356	
3721	0	32288	33049	31372	
3722	0	31725	33216	31381	
3723	0	31886	32972	31396	
3724	0	31008	32886	31397	
3725	0	31140	33085	31428	
3726	0	32118	33081	31428	
3727	0	32168	32732	31414	
3728	0	32524	33054	31404	
3729	0	33320	32518	31394	
3730	0	33668	32512	31372	
3731	0	33592	32862	31342	
3732	0	34228	32968	31332	
3733	0	34680	32556	31343	
3734	0	33756	32819	31338	
3735	0	33452	32668	31336	
3736	0	33260	32518	31336	
3737	0	33056	32601	31332	
3738	0	33764	32924	31336	
3739	0	33184	33172	31328	
3740	0	32262	33160	31312	
3741	0	32376	33058	31301	
3742	0	31632	33024	31306	
3743	0	31894	32697	31328	
3744	0	31960	32784	31349	
3745	0	31741	32860	31373	
3746	0	32188	32654	31356	
3747	0	32196	32284	31359	
3748	0	31884	32420	31361	
3749	0	32120	32784	31352	
3750	0	33028	32964	31358	
3751	0	33066	33037	31356	
3752	0	33120	32782	31334	
3753	0	33044	32944	31302	
3754	0	32956	32720	31327	
3755	0	33802	33102	31300	
3756	0	34856	32909	31301	
3757	0	34424	32747	31316	
3758	0	32692	32714	31300	
3759	0	31640	33040	31308	
3760	0	31100	32960	31290	
3761	0	32312	33086	31300	
3762	0	32840	32836	31310	
3763	0	32616	32676	31304	
3764	0	32440	32406	31321	
3765	0	32561	32436	31329	
3766	0	32832	32644	31318	
3767	0	32768	32964	31344	
3768	0	32388	33060	31367	
3769	0	31728	32536	31349	
3770	0	31472	32926	31322	
3771	0	31948	32910	31308	
3772	0	33264	33264	31313	
3773	0	34746	33004	31308	
3774	0	35052	32953	31310	
3775	0	34908	32812	31312	
3776	0	35524	32890	31321	
3777	0	33592	32775	31324	
3778	0	31689	32960	31324	
3779	0	31404	32760	31345	
3780	0	31780	32774	31360	
3781	0	32068	32874	31364	
3782	0	31684	32929	31367	
3783	0	31268	33262	31376	
3784	0	31992	33176	31392	
3785	0	32161	32892	31372	
3786	0	32636	32808	31355	
3787	0	32512	32582	31345	
3788	0	32312	32576	31328	
3789	0	31682	32712	31328	
3790	0	31069	32996	31320	
3791	0	31636	33041	31320	
3792	0	32592	32561	31336	
3793	0	34704	32664	31322	
3794	0	35545	32773	31328	
3795	0	35624	32584	31327	
3796	0	33868	32900	31332	
3797	0	34176	32856	31336	
3798	0	34325	32808	31342	
3799	0	34312	32720	31341	
3800	0	33744	32852	31354	
3801	0	33164	33061	31348	
3802	0	31780	33376	31344	
3803	0	31230	33278	31383	
3804	0	31296	33124	31368	
3805	0	32092	32484	31348	
3806	0	32096	32384	31346	
3807	0	31945	32518	31352	
3808	0	31752	32704	31358	
3809	0	32392	32660	31337	
3810	0	32932	32568	31352	
3811	0	31977	33275	31341	
3812	0	32484	32932	31333	
3813	0	33529	32954	31308	
3814	0	32892	32768	31320	
3815	0	32604	32844	31340	
3816	0	32900	33046	31325	
3817	0	33336	32740	31326	
3818	0	33248	32584	31324	
3819	0	33201	32868	31330	
3820	0	33784	33466	31344	
3821	0	33524	32724	31335	
3822	0	32700	32890	31337	
3823	0	32072	33168	31364	
3824	0	31733	33400	31368	
3825	0	32308	33292	31382	
3826	0	32476	32817	31372	
3827	0	31560	32538	31340	
3828	0	31388	32429	31356	
3829	0	31520	32324	31352	
3830	0	32296	32292	31352	
3831	0	32804	32684	31318	
3832	0	33712	32757	31337	
3833	0	34096	32757	31316	
3834	0	34028	32808	31291	
3835	0	34200	32926	31300	
3836	0	34333	33406	31318	
3837	0	33144	32629	31296	
3838	0	32376	32820	31308	
3839	0	31767	33126	31284	
3840	0	32256	33117	31286	
3841	0	32788	33205	31302	
3842	0	33180	32886	31326	
3843	0	32772	33218	31311	
3844	0	33021	33045	31308	
3845	0	33500	32720	31300	
3846	0	33068	32868	31282	
3847	0	32620	33024	31276	
3848	0	31816	32700	31252	
3849	0	32160	32346	31260	
3850	0	32638	32177	31246	
3851	0	32724	32564	31264	
3852	0	32781	32948	31282	
3853	0	32484	32716	31276	
3854	0	32861	32692	31264	
3855	0	33240	32932	31258	
3856	0	32378	32877	31258	
3857	0	31669	32760	31238	
3858	0	31112	33026	31249	
3859	0	32172	33148	31268	
3860	0	33308	32788	31290	
3861	0	34548	32941	31316	
3862	0	34028	32772	31312	
3863	0	33744	32652	31320	
3864	0	34788	32868	31316	
3865	0	32704	32936	31309	
3866	0	31817	32836	31310	
3867	0	32244	33362	31300	
3868	0	31412	32845	31284	
3869	0	32776	32528	31288	
3870	0	33328	32517	31312	
3871	0	33572	32393	31322	
3872	0	33220	32624	31301	
3873	0	33544	33224	31296	
3874	0	32184	32876	31286	
3875	0	32108	32483	31288	
3876	0	34248	32557	31276	
3877	0	33132	33033	31304	
3878	0	32588	33173	31309	
3879	0	32328	33296	31300	
3880	0	31784	33105	31312	
3881	0	32032	32476	31328	
3882	0	32008	32773	31356	
3883	0	32256	32728	31374	
3884	0	32676	32793	31388	
3885	0	32700	32932	31372	
3886	0	32324	32716	31377	
3887	0	32556	32344	31372	
3888	0	32956	32492	31365	
3889	0	33052	32844	31386	
3890	0	33026	32878	31388	
3891	0	32357	33213	31392	
3892	0	32536	33143	31384	
3893	0	32736	33452	31388	
3894	0	33178	33318	31386	
3895	0	33413	33006	31368	
3896	0	33380	32710	31374	
3897	0	33692	32606	31369	
3898	0	33736	32793	31381	
3899	0	33189	32718	31383	
3900	0	32448	32881	31384	
3901	0	31724	32932	31374	
3902	0	31836	32967	31389	
3903	0	32176	32812	31393	
3904	0	32016	32796	31401	
3905	0	33072	32936	31430	
3906	0	32720	32736	31444	
3907	0	32268	32604	31451	
3908	0	32944	32662	31438	
3909	0	33076	33188	31408	
3910	0	33430	32447	31416	
3911	0	33308	32788	31408	
3912	0	32648	32772	31373	
3913	0	32542	32998	31348	
3914	0	32586	32796	31337	
3915	0	32946	32832	31348	
3916	0	32876	32834	31342	
3917	0	33072	33080	31336	
3918	0	33190	33426	31348	
3919	0	33392	32966	31364	
3920	0	33620	32494	31367	
3921	0	33476	32604	31388	
3922	0	33242	32352	31410	
3923	0	33180	32134	31424	
3924	0	32381	32508	31425	
3925	0	30522	32562	31432	
3926	0	31104	32940	31420	
3927	0	32012	33127	31432	
3928	0	32544	32844	31434	
3929	0	32292	33584	31424	
3930	0	32060	32896	31404	
3931	0	34068	32320	31396	
3932	0	33596	32670	31396	
3933	0	34074	32848	31384	
3934	0	34648	32961	31381	
3935	0	33932	32756	31383	
3936	0	33270	33376	31357	
3937	0	32752	32872	31356	
3938	0	32201	33058	31325	
3939	0	32136	33093	31312	
3940	0	31848	32932	31321	
3941	0	32269	32720	31325	
3942	0	33392	32604	31317	
3943	0	33724	32613	31328	
3944	0	33145	32496	31348	
3945	0	32212	32884	31353	
3946	0	32292	33260	31348	
3947	0	32770	33344	31349	
3948	0	32524	32949	31332	
3949	0	31900	32490	31324	
3950	0	32249	32148	31320	
3951	0	32556	32272	31296	
3952	0	33048	32232	31296	
3953	0	33908	32832	31302	
3954	0	33148	33252	31280	
3955	0	33120	33154	31271	
3956	0	32182	32952	31249	
3957	0	31584	32948	31260	
3958	0	33128	33024	31262	
3959	0	33288	32584	31262	
3960	0	32681	32771	31273	
3961	0	33044	33082	31284	
3962	0	32117	33097	31298	
3963	0	31762	32952	31321	
3964	0	33160	33158	31340	
3965	0	32893	32937	31356	
3966	0	32648	32972	31359	
3967	0	33128	32778	31367	
3968	0	32564	32708	31390	
3969	0	32629	32407	31395	
3970	0	32714	32574	31389	
3971	0	32688	32728	31373	
3972	0	32392	32864	31370	
3973	0	31948	32955	31348	
3974	0	32556	33065	31364	
3975	0	32800	33082	31348	
3976	0	33680	32912	31356	
3977	0	34981	32464	31368	
3978	0	34044	32534	31368	
3979	0	33204	32647	31372	
3980	0	33132	32465	31368	
3981	0	32936	32636	31364	
3982	0	32848	33004	31412	
3983	0	31764	33514	31413	
3984	0	30872	32526	31428	
3985	0	30196	32344	31428	
3986	0	31060	32749	31404	
3987	0	32885	33112	31410	
3988	0	33568	33060	31396	
3989	0	34079	32780	31384	
3990	0	34227	32862	31374	
3991	0	33720	32784	31360	
3992	0	33505	32868	31364	
3993	0	33248	32740	31352	
3994	0	32248	32792	31364	
3995	0	32172	32912	31360	
3996	0	32676	33084	31375	
3997	0	33360	32958	31360	
3998	0	33052	32552	31356	
3999	0	32428	32645	31343	
4000	0	32320	32236	31380	
4001	0	31420	33158	31394	
4002	0	32505	33413	31404	
4003	0	32724	33148	31384	
4004	0	32752	33101	31397	
4005	0	32744	32655	31396	
4006	0	32872	32488	31384	
4007	0	32588	32570	31372	
4008	0	32892	32613	31367	
4009	0	33060	32596	31384	
4010	0	34074	32726	31387	
4011	0	35076	32622	31409	
4012	0	34340	32664	31381	
4013	0	33300	32780	31372	
4014	0	32604	33108	31400	
4015	0	31972	32903	31398	
4016	0	32308	32657	31372	
4017	0	32272	32824	31364	
4018	0	32369	32799	31342	
4019	0	32302	32809	31332	
4020	0	32305	33036	31344	
4021	0	32408	33104	31351	
4022	0	32672	33209	31348	
4023	0	32728	33510	31380	
4024	0	32068	32644	31378	
4025	0	32556	32740	31364	
4026	0	32160	32544	31356	
4027	0	31945	32570	31346	
4028	0	31625	32784	31334	
4029	0	32073	32864	31312	
4030	0	33652	32763	31317	
4031	0	33732	32868	31290	
4032	0	33635	32540	31281	
4033	0	33508	32484	31285	
4034	0	33656	32460	31293	
4035	0	33560	32822	31284	
4036	0	33348	32929	31285	
4037	0	33028	32911	31282	
4038	0	32897	32748	31264	
4039	0	32604	33048	31281	
4040	0	32208	32960	31296	
4041	0	31356	32960	31310	
4042	0	30790	33040	31338	
4043	0	30148	32884	31360	
4044	0	31080	32788	31354	
4045	0	34104	33224	31344	
4046	0	34932	33132	31350	
4047	0	34028	32720	31337	
4048	0	34388	32420	31336	
4049	0	34436	32969	31325	
4050	0	34332	32745	31324	
4051	0	33796	33008	31312	
4052	0	33000	33120	31309	
4053	0	31221	32801	31301	
4054	0	32288	32946	31304	
4055	0	34538	32364	31284	
4056	0	34821	32519	31282	
4057	0	31952	33090	31268	
4058	0	30464	32852	31270	
4059	0	30673	33257	31284	
4060	0	32292	32636	31302	
4061	0	32976	32364	31308	
4062	0	32868	32362	31314	
4063	0	32624	32848	31328	
4064	0	33104	33156	31346	
4065	0	32214	32976	31360	
4066	0	31916	32684	31352	
4067	0	32220	32909	31332	
4068	0	32192	32892	31338	
4069	0	31528	32716	31340	
4070	0	32680	33105	31340	
4071	0	33282	33256	31336	
4072	0	33300	32901	31332	
4073	0	33236	33132	31348	
4074	0	34520	32973	31351	
4075	0	35148	32376	31361	
4076	0	34956	32140	31344	
4077	0	33557	32644	31328	
4078	0	32644	32518	31351	
4079	0	31852	32797	31371	
4080	0	32224	32725	31372	
4081	0	32356	32780	31368	
4082	0	32232	32684	31348	
4083	0	32028	32720	31356	
4084	0	31720	33182	31391	
4085	0	31764	33088	31396	
4086	0	31804	33002	31373	
4087	0	32372	32802	31364	
4088	0	32792	32852	31389	
4089	0	32784	32588	31378	
4090	0	33160	32556	31358	
4091	0	32808	32444	31324	
4092	0	33108	33017	31329	
4093	0	33264	33430	31317	
4094	0	33244	33416	31328	
4095	0	33336	33464	31330	
4096	0	33014	33366	31316	
4097	0	33064	33181	31334	
4098	0	33504	32774	31340	
4099	0	32991	32692	31324	
4100	0	32560	32933	31334	
4101	0	32140	32764	31336	
4102	0	32112	32556	31356	
4103	0	32912	33145	31348	
4104	0	32276	33128	31352	
4105	0	31696	32633	31364	
4106	0	32008	32276	31367	
4107	0	32234	32429	31365	
4108	0	32184	32805	31369	
4109	0	33656	32776	31350	
4110	0	32990	32754	31365	
4111	0	33529	33012	31369	
4112	0	34254	32760	31360	
4113	0	34412	32773	31320	
4114	0	33464	33166	31304	
4115	0	32072	32933	31294	
4116	0	32807	33088	31278	
4117	0	33320	32861	31292	
4118	0	33420	32648	31304	
4119	0	32940	32800	31319	
4120	0	32278	32512	31335	
4121	0	32032	32636	31335	
4122	0	31760	32677	31320	
4123	0	31908	33076	31325	
4124	0	31780	33120	31337	
4125	0	31476	33024	31361	
4126	0	31336	33088	31360	
4127	0	31580	32257	31356	
4128	0	32560	32400	31377	
4129	0	34217	32680	31344	
4130	0	34737	32662	31324	
4131	0	34388	32968	31320	
4132	0	34024	32961	31308	
4133	0	34072	33087	31310	
4134	0	33940	33108	31316	
4135	0	31964	32568	31305	
4136	0	31724	32504	31313	
4137	0	33144	32676	31300	
4138	0	33385	32572	31285	
4139	0	33744	32753	31272	
4140	0	32604	33269	31288	
4141	0	32637	33022	31304	
4142	0	32980	33064	31320	
4143	0	32821	32920	31292	
4144	0	32616	32957	31298	
4145	0	31548	33294	31306	
4146	0	31420	33054	31319	
4147	0	32928	32756	31324	
4148	0	32212	32720	31300	
4149	0	30380	32709	31298	
4150	0	30752	32746	31300	
4151	0	31564	32940	31301	
4152	0	32928	32684	31300	
4153	0	35036	32864	31308	
4154	0	35894	32838	31306	
4155	0	34732	32688	31308	
4156	0	32852	32936	31304	
4157	0	32760	32977	31304	
4158	0	33180	32998	31306	
4159	0	32672	32861	31317	
4160	0	33504	32816	31310	
4161	0	33860	32556	31296	
4162	0	32308	32674	31302	
4163	0	32008	33300	31340	
4164	0	32224	33044	31340	
4165	0	31949	32894	31356	
4166	0	32056	32744	31322	
4167	0	32392	33124	31316	
4168	0	30236	32864	31320	
4169	0	31086	32586	31309	
4170	0	33524	32306	31322	
4171	0	33300	32750	31324	
4172	0	33548	32746	31313	
4173	0	33804	33112	31329	
4174	0	32748	33169	31322	
4175	0	33328	32925	31308	
4176	0	34072	33233	31297	
4177	0	34104	32624	31308	
4178	0	34396	32480	31320	
4179	0	33336	32620	31342	
4180	0	32320	32752	31330	
4181	0	31976	32836	31345	
4182	0	32080	32940	31377	
4183	0	32116	32824	31400	
4184	0	32164	32866	31424	
4185	0	32272	33158	31409	
4186	0	32590	32960	31393	
4187	0	32676	32552	31380	
4188	0	32334	32962	31360	
4189	0	32164	33039	31332	
4190	0	32217	32628	31313	
4191	0	32484	32834	31328	
4192	0	32760	32724	31290	
4193	0	33086	32861	31290	
4194	0	33309	33060	31310	
4195	0	33236	32687	31320	
4196	0	33096	32650	31310	
4197	0	32789	33097	31288	
4198	0	33240	33006	31304	
4199	0	32829	32774	31332	
4200	0	32194	32963	31328	
4201	0	31616	32408	31329	
4202	0	32188	32788	31332	
4203	0	33596	33456	31358	
4204	0	33956	33084	31360	
4205	0	34256	33264	31386	
4206	0	33376	32652	31380	
4207	0	32884	32463	31389	
4208	0	32852	32670	31396	
4209	0	30576	32840	31372	
4210	0	30456	32728	31367	
4211	0	30016	32903	31376	
4212	0	30232	32749	31370	
4213	0	32189	32512	31368	
4214	0	36680	32632	31328	
4215	0	37365	33033	31305	
4216	0	36740	33221	31298	
4217	0	35976	33106	31285	
4218	0	33713	32196	31281	
4219	0	32344	32422	31260	
4220	0	32680	32789	31268	
4221	0	31632	32780	31277	
4222	0	31220	32900	31276	
4223	0	31456	32759	31299	
4224	0	31468	33074	31318	
4225	0	31610	33132	31320	
4226	0	31932	32876	31308	
4227	0	32268	32438	31290	
4228	0	32259	32552	31290	
4229	0	32284	33124	31296	
4230	0	32362	33092	31288	
4231	0	32732	33020	31288	
4232	0	32519	33120	31284	
4233	0	32368	32943	31300	
4234	0	32584	32280	31294	
4235	0	33365	32700	31286	
4236	0	34612	32869	31296	
4237	0	34228	32577	31290	
4238	0	33648	32856	31298	
4239	0	33024	33344	31301	
4240	0	31948	33004	31319	
4241	0	31857	32720	31332	
4242	0	31312	32809	31358	
4243	0	32064	33004	31376	
4244	0	33058	32989	31376	
4245	0	33504	32696	31361	
4246	0	33100	32761	31344	
4247	0	33024	32676	31324	
4248	0	32352	32504	31344	
4249	0	32692	32749	31324	
4250	0	33188	32692	31294	
4251	0	33360	32668	31304	
4252	0	32320	32807	31289	
4253	0	32440	32868	31284	
4254	0	33748	32804	31288	
4255	0	34020	33020	31306	
4256	0	33604	32996	31288	
4257	0	32956	32885	31257	
4258	0	33468	32919	31272	
4259	0	33472	32808	31288	
4260	0	32948	33150	31281	
4261	0	32372	32568	31308	
4262	0	32102	32850	31292	
4263	0	31425	32762	31292	
4264	0	31439	33088	31296	
4265	0	31200	33052	31314	
4266	0	31692	32772	31322	
4267	0	31536	33080	31296	
4268	0	31652	33096	31286	
4269	0	33988	32066	31300	
4270	0	33732	32547	31318	
4271	0	33716	33117	31324	
4272	0	32468	33141	31302	
4273	0	31513	32924	31300	
4274	0	33492	32512	31296	
4275	0	33941	32901	31286	
4276	0	34282	33104	31280	
4277	0	35316	33248	31272	
4278	0	34952	32798	31309	
4279	0	33500	32421	31324	
4280	0	32332	32904	31324	
4281	0	31520	32878	31324	
4282	0	30941	32976	31348	
4283	0	31904	32903	31338	
4284	0	32348	32900	31328	
4285	0	32428	33096	31324	
4286	0	32544	33050	31292	
4287	0	32990	32142	31300	
4288	0	32788	32306	31302	
4289	0	32624	32481	31284	
4290	0	32486	32688	31262	
4291	0	32580	32953	31249	
4292	0	33086	32868	31238	
4293	0	32912	32932	31256	
4294	0	32924	32974	31268	
4295	0	32920	33053	31269	
4296	0	32820	33128	31268	
4297	0	33160	33082	31261	
4298	0	33816	32964	31263	
4299	0	33685	32692	31285	
4300	0	32916	32935	31280	
4301	0	32552	32846	31312	
4302	0	32188	33212	31316	
4303	0	31972	33120	31336	
4304	0	31197	32714	31352	
4305	0	30696	32635	31341	
4306	0	31424	32740	31348	
4307	0	32302	32628	31326	
4308	0	33072	32900	31356	
4309	0	33924	32634	31332	
4310	0	34208	32647	31320	
4311	0	33632	32761	31316	
4312	0	33528	32714	31308	
4313	0	32800	32895	31288	
4314	0	33708	33048	31290	
4315	0	33916	32988	31279	
4316	0	33920	32804	31287	
4317	0	32737	32636	31276	
4318	0	32662	32772	31280	
4319	0	32792	33124	31296	
4320	0	31992	33132	31300	
4321	0	30968	32818	31312	
4322	0	31260	32948	31296	
4323	0	32744	32992	31312	
4324	0	32613	32893	31333	
4325	0	32888	32620	31318	
4326	0	33200	32816	31305	
4327	0	32648	32656	31302	
4328	0	33108	32508	31308	
4329	0	32748	32909	31280	
4330	0	33096	32903	31300	
4331	0	33756	32964	31298	
4332	0	34201	32644	31274	
4333	0	33560	32736	31241	
4334	0	31372	33372	31234	
4335	0	30832	32901	31225	
4336	0	31482	33092	31245	
4337	0	32328	33048	31248	
4338	0	32792	32905	31244	
4339	0	34088	32601	31253	
4340	0	33441	32412	31262	
4341	0	34332	32952	31276	
4342	0	34168	33010	31274	
4343	0	33564	32353	31268	
4344	0	32720	32568	31276	
4345	0	32244	32789	31277	
4346	0	31644	33065	31252	
4347	0	32312	32952	31244	
4348	0	32188	32892	31248	
4349	0	32200	32458	31244	
4350	0	31910	32285	31252	
4351	0	32128	32775	31248	
4352	0	32020	32956	31218	
4353	0	31575	33144	31222	
4354	0	33486	33184	31230	
4355	0	34460	32766	31222	
4356	0	33508	32772	31213	
4357	0	33548	33004	31225	
4358	0	32780	32904	31225	
4359	0	32256	33154	31239	
4360	0	33852	33249	31249	
4361	0	33356	32752	31253	
4362	0	33300	32388	31266	
4363	0	32944	32630	31290	
4364	0	32924	32648	31320	
4365	0	32824	32920	31321	
4366	0	32448	32687	31321	
4367	0	32336	33060	31312	
4368	0	32167	32846	31312	
4369	0	32000	33016	31300	
4370	0	32454	32993	31272	
4371	0	32388	32630	31281	
4372	0	32612	32664	31271	
4373	0	33120	32993	31247	
4374	0	33220	32796	31264	
4375	0	33252	32968	31276	
4376	0	33132	32824	31254	
4377	0	33104	32644	31273	
4378	0	32968	32740	31270	
4379	0	32764	32857	31264	
4380	0	31948	32980	31273	
4381	0	31664	32772	31289	
4382	0	32164	32936	31305	
4383	0	32216	32969	31292	
4384	0	32184	33294	31292	
4385	0	32908	32990	31280	
4386	0	34097	32820	31276	
4387	0	34400	32015	31280	
4388	0	34252	32460	31284	
4389	0	33585	33280	31261	
4390	0	32909	32812	31246	
4391	0	31849	32884	31236	
4392	0	31800	32590	31228	
4393	0	32348	33145	31210	
4394	0	32896	33340	31204	
4395	0	32560	32982	31213	
4396	0	32304	32240	31209	
4397	0	32234	32084	31198	
4398	0	32349	32046	31204	
4399	0	32860	32681	31229	
4400	0	33816	33046	31236	
4401	0	34756	32912	31244	
4402	0	33844	33226	31247	
4403	0	33180	33441	31257	
4404	0	32597	33772	31265	
4405	0	32176	32519	31267	
4406	0	31208	32838	31264	
4407	0	30589	32680	31253	
4408	0	31589	32584	31228	
4409	0	32145	32682	31213	
4410	0	32412	33064	31208	
4411	0	32256	32580	31230	
4412	0	33148	32688	31216	
4413	0	33573	32642	31188	
4414	0	34408	32865	31167	
4415	0	35828	32734	31168	
4416	0	35578	32712	31140	
4417	0	32920	32899	31126	
4418	0	31696	32988	31140	
4419	0	32292	33060	31168	
4420	0	32680	33156	31212	
4421	0	32552	32615	31216	
4422	0	33916	32356	31212	
4423	0	33006	32033	31224	
4424	0	31844	32731	31245	
4425	0	31364	33505	31241	
4426	0	31772	33543	31234	
4427	0	32377	33500	31212	
4428	0	32596	33268	31213	
4429	0	32285	32780	31193	
4430	0	32244	32559	31204	
4431	0	32020	32620	31187	
4432	0	31832	32960	31192	
4433	0	32064	33000	31199	
4434	0	32737	32676	31205	
4435	0	33744	32524	31178	
4436	0	34808	32589	31180	
4437	0	34800	32609	31187	
4438	0	34008	33176	31204	
4439	0	33048	32974	31212	
4440	0	32572	32708	31224	
4441	0	33236	32977	31208	
4442	0	31120	32615	31196	
4443	0	31000	33033	31238	
4444	0	32224	33152	31262	
4445	0	33540	32870	31272	
4446	0	33664	32870	31272	
4447	0	33052	32852	31265	
4448	0	32500	32938	31233	
4449	0	31464	33300	31228	
4450	0	32228	32444	31220	
4451	0	32704	32718	31232	
4452	0	32906	32262	31245	
4453	0	34276	32446	31239	
4454	0	33132	32892	31212	
4455	0	31844	32948	31233	
4456	0	32528	32889	31217	
4457	0	32824	32902	31200	
4458	0	33240	32782	31205	
4459	0	34017	32705	31220	
4460	0	34197	33159	31242	
4461	0	32957	32792	31264	
4462	0	32404	32804	31274	
4463	0	32184	32752	31254	
4464	0	31574	32544	31256	
4465	0	32464	32604	31280	
4466	0	33245	32743	31266	
4467	0	32352	33144	31248	
4468	0	31974	33004	31262	
4469	0	31880	32928	31270	
4470	0	31896	32537	31268	
4471	0	32636	32509	31258	
4472	0	33324	32772	31256	
4473	0	33330	33096	31262	
4474	0	33144	33252	31239	
4475	0	34256	32716	31227	
4476	0	34169	32581	31206	
4477	0	33160	32824	31224	
4478	0	32592	32841	31220	
4479	0	31905	32652	31236	
4480	0	32004	32620	31236	
4481	0	32460	33073	31239	
4482	0	33668	33532	31260	
4483	0	33912	33248	31268	
4484	0	33824	32964	31273	
4485	0	33168	32818	31269	
4486	0	31858	32492	31270	
4487	0	30874	32144	31276	
4488	0	31184	32616	31273	
4489	0	31972	32645	31257	
4490	0	32492	32726	31234	
4491	0	32913	32856	31236	
4492	0	33020	32673	31213	
4493	0	33344	32688	31210	
4494	0	33672	33089	31216	
4495	0	33472	32963	31212	
4496	0	32776	32961	31220	
4497	0	32876	33100	31213	
4498	0	33082	33290	31204	
4499	0	33132	33020	31204	
4500	0	33412	32950	31216	
4501	0	32712	32941	31207	
4502	0	32409	32510	31217	
4503	0	32284	32620	31244	
4504	0	30313	32784	31252	
4505	0	30780	32524	31262	
4506	0	32160	32836	31260	
4507	0	33031	32881	31272	
4508	0	33456	33136	31273	
4509	0	33736	32852	31280	
4510	0	34440	32678	31282	
4511	0	34108	32429	31268	
4512	0	33608	32416	31256	
4513	0	33708	32462	31244	
4514	0	33472	32837	31218	
4515	0	32788	32748	31220	
4516	0	32936	32908	31212	
4517	0	33140	32672	31204	
4518	0	32076	32489	31197	
4519	0	31164	32949	31192	
4520	0	31728	33352	31207	
4521	0	31572	33112	31214	
4522	0	32296	33086	31236	
4523	0	33933	32596	31249	
4524	0	33902	32996	31268	
4525	0	33152	32988	31264	
4526	0	32590	33096	31249	
4527	0	32356	33380	31232	
4528	0	32053	33080	31244	
4529	0	31976	32572	31238	
4530	0	32284	32500	31244	
4531	0	33084	32623	31249	
4532	0	34237	32356	31268	
4533	0	34164	32552	31264	
4534	0	33230	33108	31232	
4535	0	32788	33511	31221	
4536	0	32687	32826	31212	
4537	0	33264	32668	31228	
4538	0	33136	32664	31228	
4539	0	32952	32766	31228	
4540	0	33188	32686	31244	
4541	0	32713	33260	31264	
4542	0	32425	33236	31261	
4543	0	31984	33100	31281	
4544	0	31816	32728	31294	
4545	0	31316	32682	31294	
4546	0	31012	32837	31300	
4547	0	30733	32736	31276	
4548	0	31601	32436	31276	
4549	0	33000	32474	31249	
4550	0	34728	32656	31246	
4551	0	34336	32744	31248	
4552	0	33865	32705	31249	
4553	0	33940	32818	31244	
4554	0	33956	33212	31229	
4555	0	33884	32877	31228	
4556	0	33264	32826	31218	
4557	0	32172	32868	31220	
4558	0	32060	32636	31235	
4559	0	32916	32797	31229	
4560	0	33090	32828	31233	
4561	0	32942	33002	31244	
4562	0	32428	32974	31261	
4563	0	31924	32880	31261	
4564	0	31916	32452	31268	
4565	0	32122	32732	31268	
4566	0	31606	32920	31264	
4567	0	30995	33020	31260	
4568	0	31556	32886	31252	
4569	0	32145	33000	31232	
4570	0	33040	33014	31228	
4571	0	33518	32904	31244	
4572	0	34252	32772	31231	
4573	0	34820	32968	31237	
4574	0	34112	33056	31233	
4575	0	33644	33224	31224	
4576	0	34007	33084	31232	
4577	0	33880	32660	31232	
4578	0	33272	32256	31228	
4579	0	32448	32472	31228	
4580	0	32372	32860	31244	
4581	0	32340	32885	31231	
4582	0	32341	33001	31252	
4583	0	32836	32900	31268	
4584	0	32496	32798	31276	
4585	0	31929	32984	31316	
4586	0	31512	32905	31304	
4587	0	31005	32598	31300	
4588	0	31324	32576	31286	
4589	0	32117	32532	31281	
4590	0	33088	32840	31272	
4591	0	33980	33068	31268	
4592	0	34381	32710	31254	
4593	0	34888	32820	31250	
4594	0	33496	33069	31228	
4595	0	32518	33244	31208	
4596	0	32420	32828	31188	
4597	0	32629	32405	31200	
4598	0	32940	33441	31189	
4599	0	32668	32052	31188	
4600	0	33220	32604	31205	
4601	0	33464	32614	31216	
4602	0	33126	32744	31228	
4603	0	33252	32968	31246	
4604	0	31769	33184	31268	
4605	0	31760	33401	31274	
4606	0	32344	33148	31260	
4607	0	32196	32720	31265	
4608	0	32160	32722	31272	
4609	0	32008	33052	31272	
4610	0	31996	32962	31261	
4611	0	32644	32991	31262	
4612	0	33072	32576	31260	
4613	0	33004	32396	31260	
4614	0	33312	32424	31271	
4615	0	33264	32444	31270	
4616	0	33297	32736	31257	
4617	0	33668	32728	31252	
4618	0	32820	32960	31272	
4619	0	32712	33248	31260	
4620	0	33154	32964	31256	
4621	0	32898	32628	31227	
4622	0	32556	32796	31236	
4623	0	32788	33250	31247	
4624	0	32332	32646	31239	
4625	0	32415	32748	31254	
4626	0	32776	33161	31247	
4627	0	32400	32895	31245	
4628	0	31928	32600	31225	
4629	0	32524	32441	31226	
4630	0	32856	32521	31216	
4631	0	32181	32648	31224	
4632	0	32106	32522	31230	
