# OpenSignals Text File Format
# {"00:07:80:4D:2E:AD": {"sensor": ["EMG", "EMG", "XYZ"], "device name": "00:07:80:4D:2E:AD", "column": ["nSeq", "DI", "CH1", "CH2", "CH3"], "sync interval": 2, "time": "15:36:21.58", "comments": "stone | ch1_flexor_digitorum_superficialis ch2_aductor_policis ch3_acc_z [trial 5]", "device connection": "BTH00:07:80:4D:2E:AD", "channels": [1, 2, 3], "keywords": "", "mode": 0, "digital IO": [0, 1], "firmware version": 773, "device": "biosignalsplux", "position": 0, "sampling rate": 1000, "label": ["CH1", "CH2", "CH3"], "resolution": [16, 16, 16], "date": "2019-1-23", "special": [{}, {}, {}]}}
# EndOfHeader
0	0	33008	32724	35324	
1	0	32945	32756	35329	
2	0	32900	32905	35346	
3	0	32744	32912	35361	
4	0	32758	32948	35360	
5	0	32632	32948	35360	
6	0	32629	32967	35364	
7	0	32560	32952	35358	
8	0	32484	32766	35384	
9	0	32610	32782	35370	
10	0	32584	32912	35370	
11	0	32608	32756	35368	
12	0	32728	32769	35351	
13	0	32776	32758	35349	
14	0	32788	32804	35340	
15	0	32900	32833	35328	
16	0	32964	32808	35316	
17	0	33036	32770	35316	
18	0	32986	32764	35319	
19	0	32964	32773	35316	
20	0	32994	32801	35313	
21	0	32985	32716	35321	
22	0	32856	32936	35334	
23	0	32769	32824	35353	
24	0	32784	32969	35338	
25	0	32644	32840	35340	
26	0	32620	33012	35335	
27	0	32648	32882	35381	
28	0	32528	32894	35368	
29	0	32622	32806	35356	
30	0	32564	32822	35360	
31	0	32612	32772	35367	
32	0	32712	32729	35367	
33	0	32744	32726	35365	
34	0	32808	32813	35357	
35	0	33004	32796	35354	
36	0	32996	32764	35351	
37	0	32998	32799	35340	
38	0	32992	32716	35342	
39	0	32992	32896	35324	
40	0	32920	32810	35320	
41	0	32930	32774	35340	
42	0	32894	32760	35336	
43	0	32812	32946	35372	
44	0	32775	32904	35382	
45	0	32716	33084	35372	
46	0	32632	32942	35351	
47	0	32592	33066	35348	
48	0	32508	33009	35367	
49	0	32609	32996	35361	
50	0	32636	32807	35360	
51	0	32708	32822	35372	
52	0	32744	32744	35353	
53	0	32804	32744	35344	
54	0	32864	32794	35365	
55	0	32864	32729	35364	
56	0	32980	32773	35352	
57	0	33004	32693	35340	
58	0	32968	32813	35311	
59	0	33008	32748	35320	
60	0	32888	32808	35324	
61	0	32925	32760	35300	
62	0	32888	32820	35308	
63	0	32828	32924	35320	
64	0	32740	32905	35320	
65	0	32604	32951	35332	
66	0	32640	32948	35360	
67	0	32608	32901	35366	
68	0	32600	32844	35360	
69	0	32576	32740	35369	
70	0	32612	32841	35370	
71	0	32616	32760	35365	
72	0	32684	32897	35356	
73	0	32708	32772	35345	
74	0	32820	32754	35348	
75	0	32940	32840	35356	
76	0	32928	32804	35365	
77	0	32940	32768	35348	
78	0	32964	32825	35352	
79	0	32956	32823	35325	
80	0	33040	32887	35328	
81	0	32950	32765	35335	
82	0	32836	32868	35340	
83	0	32792	32976	35348	
84	0	32776	32856	35352	
85	0	32618	32916	35364	
86	0	32661	32930	35372	
87	0	32648	32999	35360	
88	0	32512	32840	35380	
89	0	32616	32788	35388	
90	0	32620	32897	35372	
91	0	32700	32692	35365	
92	0	32673	32649	35358	
93	0	32829	32720	35360	
94	0	32840	32815	35348	
95	0	32884	32624	35360	
96	0	32976	32824	35354	
97	0	33004	32780	35328	
98	0	33036	32637	35357	
99	0	33056	32685	35335	
100	0	32965	32873	35352	
101	0	32936	32889	35356	
102	0	32896	32825	35356	
103	0	32832	32904	35348	
104	0	32809	33028	35342	
105	0	32748	32996	35340	
106	0	32592	33056	35357	
107	0	32520	33022	35372	
108	0	32538	32860	35367	
109	0	32560	32858	35358	
110	0	32652	32828	35341	
111	0	32572	32816	35352	
112	0	32628	32756	35356	
113	0	32724	32752	35348	
114	0	32824	32692	35364	
115	0	32853	32628	35352	
116	0	33030	32663	35350	
117	0	33000	32838	35352	
118	0	33060	32768	35353	
119	0	32924	32731	35324	
120	0	32968	32792	35318	
121	0	32988	32800	35335	
122	0	32980	32893	35351	
123	0	32768	32952	35363	
124	0	32740	32920	35353	
125	0	32653	32953	35373	
126	0	32652	32964	35366	
127	0	32622	32818	35370	
128	0	32496	32868	35356	
129	0	32632	32780	35364	
130	0	32646	32721	35373	
131	0	32624	32838	35376	
132	0	32684	32817	35360	
133	0	32740	32728	35340	
134	0	32846	32769	35344	
135	0	32849	32760	35312	
136	0	32962	32844	35328	
137	0	32964	32666	35316	
138	0	33024	32806	35344	
139	0	32988	32746	35348	
140	0	33036	32791	35319	
141	0	32940	32775	35327	
142	0	32928	32899	35351	
143	0	32825	32871	35334	
144	0	32744	32837	35348	
145	0	32660	32936	35341	
146	0	32664	32971	35361	
147	0	32585	32993	35364	
148	0	32524	33013	35356	
149	0	32596	32880	35344	
150	0	32668	32888	35348	
151	0	32672	32820	35361	
152	0	32660	32734	35356	
153	0	32772	32788	35361	
154	0	32812	32648	35364	
155	0	32860	32790	35362	
156	0	32988	32849	35356	
157	0	32996	32734	35325	
158	0	32952	32792	35312	
159	0	32977	32824	35312	
160	0	32944	32761	35297	
161	0	32876	32872	35288	
162	0	32848	32890	35304	
163	0	32824	32936	35308	
164	0	32762	32938	35335	
165	0	32669	32869	35336	
166	0	32660	33006	35377	
167	0	32556	33023	35361	
168	0	32585	32900	35340	
169	0	32640	32804	35346	
170	0	32568	32741	35324	
171	0	32602	32705	35328	
172	0	32761	32772	35360	
173	0	32772	32725	35332	
174	0	32796	32785	35349	
175	0	32880	32741	35348	
176	0	32898	32850	35359	
177	0	32964	32657	35328	
178	0	33014	32820	35335	
179	0	32976	32705	35316	
180	0	33001	32696	35324	
181	0	32926	32857	35319	
182	0	32856	32816	35341	
183	0	32796	32932	35364	
184	0	32780	32988	35373	
185	0	32646	32936	35364	
186	0	32644	33013	35344	
187	0	32592	32876	35374	
188	0	32584	32821	35340	
189	0	32625	32952	35346	
190	0	32580	32772	35376	
191	0	32620	32816	35397	
192	0	32712	32858	35380	
193	0	32728	32701	35370	
194	0	32836	32848	35361	
195	0	32916	32639	35364	
196	0	32996	32832	35360	
197	0	32932	32748	35341	
198	0	32996	32758	35349	
199	0	32961	32840	35340	
200	0	32940	32741	35324	
201	0	32940	32772	35327	
202	0	32884	32869	35328	
203	0	32804	32906	35335	
204	0	32748	33009	35365	
205	0	32694	33040	35372	
206	0	32596	32948	35364	
207	0	32488	32872	35370	
208	0	32540	32829	35356	
209	0	32620	32790	35350	
210	0	32616	32855	35348	
211	0	32701	32820	35368	
212	0	32645	32788	35366	
213	0	32732	32664	35357	
214	0	32878	32714	35348	
215	0	32904	32796	35340	
216	0	32988	32748	35335	
217	0	32988	32828	35335	
218	0	33021	32760	35316	
219	0	32940	32761	35321	
220	0	32918	32768	35340	
221	0	33023	32700	35328	
222	0	32880	32798	35317	
223	0	32778	32888	35342	
224	0	32796	32838	35330	
225	0	32662	32988	35334	
226	0	32684	32964	35335	
227	0	32560	32915	35357	
228	0	32632	32936	35357	
229	0	32656	32940	35360	
230	0	32668	32825	35359	
231	0	32652	32861	35372	
232	0	32684	32720	35353	
233	0	32816	32800	35317	
234	0	32872	32782	35320	
235	0	32901	32760	35327	
236	0	32980	32708	35364	
237	0	33056	32705	35354	
238	0	33000	32688	35343	
239	0	32941	32775	35341	
240	0	32948	32775	35351	
241	0	32928	32829	35312	
242	0	32884	32882	35321	
243	0	32876	32844	35336	
244	0	32792	33040	35344	
245	0	32692	32982	35349	
246	0	32520	33136	35365	
247	0	32548	32888	35373	
248	0	32492	33049	35372	
249	0	32613	32903	35352	
250	0	32580	32959	35368	
251	0	32632	32764	35348	
252	0	32776	32876	35344	
253	0	32708	32676	35362	
254	0	32792	32720	35368	
255	0	32896	32653	35364	
256	0	33020	32820	35348	
257	0	32980	32618	35352	
258	0	33060	32756	35344	
259	0	32968	32623	35344	
260	0	33000	32745	35332	
261	0	32952	32796	35304	
262	0	32884	32840	35319	
263	0	32834	32928	35309	
264	0	32742	32956	35328	
265	0	32604	32978	35348	
266	0	32612	32868	35371	
267	0	32553	33008	35364	
268	0	32504	32844	35384	
269	0	32566	32792	35385	
270	0	32588	32815	35376	
271	0	32673	32868	35370	
272	0	32676	32865	35380	
273	0	32740	32817	35380	
274	0	32833	32790	35356	
275	0	32962	32784	35352	
276	0	33024	32720	35345	
277	0	32980	32972	35318	
278	0	33024	32792	35340	
279	0	32992	32861	35348	
280	0	33044	32775	35359	
281	0	32924	32826	35312	
282	0	32892	32805	35312	
283	0	32832	32892	35309	
284	0	32724	32770	35328	
285	0	32633	32888	35358	
286	0	32645	32880	35352	
287	0	32597	32896	35374	
288	0	32540	32936	35335	
289	0	32574	32843	35343	
290	0	32576	32860	35355	
291	0	32620	32892	35369	
292	0	32728	32838	35358	
293	0	32732	32822	35344	
294	0	32850	32696	35344	
295	0	32924	32652	35326	
296	0	32936	32577	35317	
297	0	33036	32872	35308	
298	0	33032	32785	35324	
299	0	32980	32791	35338	
300	0	33020	32824	35322	
301	0	32972	32862	35307	
302	0	32876	32986	35308	
303	0	32760	32872	35320	
304	0	32722	32895	35335	
305	0	32588	32936	35357	
306	0	32680	32820	35344	
307	0	32568	33116	35352	
308	0	32512	32919	35360	
309	0	32589	32892	35343	
310	0	32660	32872	35365	
311	0	32692	32649	35356	
312	0	32744	32736	35317	
313	0	32800	32836	35304	
314	0	32824	32748	35332	
315	0	32901	32785	35351	
316	0	33056	32729	35346	
317	0	32968	32936	35357	
318	0	33016	32718	35352	
319	0	32960	32720	35361	
320	0	32960	32782	35360	
321	0	32948	32760	35372	
322	0	32888	32890	35348	
323	0	32752	32872	35335	
324	0	32680	32940	35346	
325	0	32636	32964	35380	
326	0	32576	32904	35385	
327	0	32620	33060	35376	
328	0	32566	32893	35380	
329	0	32576	32831	35376	
330	0	32618	32760	35358	
331	0	32672	32852	35364	
332	0	32761	32732	35345	
333	0	32748	32740	35320	
334	0	32837	32749	35330	
335	0	32864	32718	35348	
336	0	32948	32786	35360	
337	0	33000	32775	35350	
338	0	33012	32756	35328	
339	0	33041	32825	35312	
340	0	32961	32636	35336	
341	0	32924	32804	35335	
342	0	32912	32742	35349	
343	0	32808	32902	35360	
344	0	32760	32853	35364	
345	0	32620	32936	35381	
346	0	32637	32936	35365	
347	0	32464	33027	35385	
348	0	32521	32872	35381	
349	0	32564	32856	35388	
350	0	32604	32820	35393	
351	0	32768	32728	35399	
352	0	32724	32758	35376	
353	0	32748	32848	35388	
354	0	32878	32712	35357	
355	0	32856	32792	35352	
356	0	32972	32674	35358	
357	0	32988	32848	35400	
358	0	33013	32813	35368	
359	0	33004	32762	35352	
360	0	32924	32758	35356	
361	0	32964	32814	35361	
362	0	32884	32873	35377	
363	0	32772	33028	35376	
364	0	32732	32928	35380	
365	0	32665	32936	35361	
366	0	32608	32927	35374	
367	0	32600	32991	35392	
368	0	32524	32968	35384	
369	0	32620	32888	35340	
370	0	32656	32736	35338	
371	0	32648	32709	35360	
372	0	32740	32737	35358	
373	0	32756	32708	35356	
374	0	32812	32828	35360	
375	0	32952	32708	35337	
376	0	32946	32852	35324	
377	0	33012	32818	35322	
378	0	33008	32712	35332	
379	0	33008	32728	35324	
380	0	33044	32768	35320	
381	0	32956	32757	35327	
382	0	32796	32856	35320	
383	0	32760	32935	35333	
384	0	32692	32888	35363	
385	0	32680	32892	35379	
386	0	32636	32984	35360	
387	0	32536	33008	35365	
388	0	32528	32926	35388	
389	0	32605	32864	35382	
390	0	32592	32785	35377	
391	0	32668	32852	35394	
392	0	32726	32796	35398	
393	0	32754	32785	35392	
394	0	32832	32860	35385	
395	0	32876	32744	35364	
396	0	32928	32838	35369	
397	0	32968	32805	35372	
398	0	32948	32766	35356	
399	0	32930	32790	35361	
400	0	32959	32756	35356	
401	0	32966	32804	35348	
402	0	32896	32820	35356	
403	0	32762	32834	35348	
404	0	32792	32942	35348	
405	0	32616	32777	35345	
406	0	32640	32944	35368	
407	0	32576	33005	35380	
408	0	32498	32914	35393	
409	0	32612	32820	35352	
410	0	32664	32806	35374	
411	0	32706	32668	35356	
412	0	32736	32644	35352	
413	0	32784	32732	35332	
414	0	32852	32699	35328	
415	0	32924	32828	35340	
416	0	32988	32824	35348	
417	0	32975	32877	35312	
418	0	32968	32780	35296	
419	0	33008	32837	35308	
420	0	32976	32846	35294	
421	0	32900	32757	35296	
422	0	32805	32933	35318	
423	0	32788	32961	35324	
424	0	32736	32882	35364	
425	0	32601	32928	35372	
426	0	32645	32928	35364	
427	0	32584	32896	35364	
428	0	32542	32990	35392	
429	0	32602	32836	35396	
430	0	32548	32804	35388	
431	0	32636	32876	35380	
432	0	32728	32816	35368	
433	0	32784	32764	35376	
434	0	32900	32757	35388	
435	0	32882	32817	35375	
436	0	32924	32820	35364	
437	0	32984	32768	35357	
438	0	32985	32730	35360	
439	0	32996	32768	35354	
440	0	33012	32820	35336	
441	0	32940	32704	35373	
442	0	32896	32897	35353	
443	0	32804	32836	35384	
444	0	32752	32928	35386	
445	0	32557	33014	35389	
446	0	32668	32820	35382	
447	0	32594	33060	35389	
448	0	32568	32860	35422	
449	0	32500	32774	35412	
450	0	32609	32754	35404	
451	0	32676	32824	35397	
452	0	32712	32676	35415	
453	0	32816	32756	35384	
454	0	32880	32813	35356	
455	0	32958	32662	35352	
456	0	32932	32836	35361	
457	0	32940	32804	35372	
458	0	32952	32745	35356	
459	0	33020	32750	35348	
460	0	32932	32892	35351	
461	0	32988	32760	35350	
462	0	32872	32806	35352	
463	0	32785	32869	35353	
464	0	32692	32824	35372	
465	0	32640	32952	35398	
466	0	32620	32992	35412	
467	0	32568	32884	35409	
468	0	32544	32972	35393	
469	0	32536	32710	35388	
470	0	32632	32775	35377	
471	0	32676	32768	35364	
472	0	32744	32720	35352	
473	0	32840	32831	35359	
474	0	32841	32772	35356	
475	0	32978	32837	35332	
476	0	32976	32834	35324	
477	0	32972	32834	35336	
478	0	32909	32785	35365	
479	0	32960	32693	35384	
480	0	32994	32728	35364	
481	0	32928	32716	35353	
482	0	32848	32753	35335	
483	0	32832	32796	35340	
484	0	32728	32880	35358	
485	0	32676	33006	35344	
486	0	32620	32976	35353	
487	0	32525	32850	35348	
488	0	32544	32837	35337	
489	0	32484	32764	35336	
490	0	32594	32830	35335	
491	0	32720	32823	35350	
492	0	32736	32932	35346	
493	0	32740	32768	35356	
494	0	32780	32920	35328	
495	0	32936	32687	35333	
496	0	32968	32836	35328	
497	0	32944	32806	35324	
498	0	32989	32766	35335	
499	0	33032	32848	35342	
500	0	33000	32808	35330	
501	0	33012	32872	35317	
502	0	32904	32865	35334	
503	0	32795	32964	35333	
504	0	32740	32826	35352	
505	0	32680	32892	35361	
506	0	32617	32936	35358	
507	0	32620	32936	35370	
508	0	32524	32960	35388	
509	0	32620	32812	35354	
510	0	32580	32841	35368	
511	0	32608	32748	35383	
512	0	32668	32732	35372	
513	0	32712	32736	35350	
514	0	32816	32699	35326	
515	0	32868	32712	35320	
516	0	32972	32865	35348	
517	0	32944	32797	35364	
518	0	33044	32844	35368	
519	0	33016	32716	35370	
520	0	33021	32788	35378	
521	0	32956	32836	35374	
522	0	32904	32856	35364	
523	0	32804	32863	35361	
524	0	32740	32925	35365	
525	0	32657	32976	35346	
526	0	32588	33110	35368	
527	0	32648	33027	35369	
528	0	32573	32830	35384	
529	0	32568	32826	35388	
530	0	32608	32780	35370	
531	0	32668	32697	35382	
532	0	32804	32716	35380	
533	0	32752	32817	35357	
534	0	32900	32820	35335	
535	0	32884	32700	35341	
536	0	32970	32832	35343	
537	0	33064	32785	35328	
538	0	32988	32794	35328	
539	0	32949	32768	35337	
540	0	32940	32792	35335	
541	0	32942	32804	35340	
542	0	32848	32884	35369	
543	0	32768	32925	35368	
544	0	32688	32956	35369	
545	0	32629	33031	35376	
546	0	32672	32944	35368	
547	0	32564	33033	35383	
548	0	32548	32950	35392	
549	0	32609	32772	35376	
550	0	32712	32876	35364	
551	0	32680	32788	35360	
552	0	32704	32682	35356	
553	0	32805	32748	35358	
554	0	32909	32812	35352	
555	0	32944	32705	35352	
556	0	32908	32658	35345	
557	0	33008	32836	35329	
558	0	33008	32735	35328	
559	0	33078	32786	35312	
560	0	33016	32844	35280	
561	0	32920	32769	35280	
562	0	32836	32951	35316	
563	0	32824	32852	35316	
564	0	32692	33030	35324	
565	0	32653	32957	35320	
566	0	32538	32881	35348	
567	0	32576	32989	35376	
568	0	32556	32978	35376	
569	0	32594	32900	35361	
570	0	32608	32796	35356	
571	0	32604	32775	35372	
572	0	32696	32910	35344	
573	0	32796	32800	35324	
574	0	32804	32786	35324	
575	0	32956	32736	35333	
576	0	33006	32672	35343	
577	0	32956	32836	35328	
578	0	32972	32710	35313	
579	0	33016	32693	35334	
580	0	33068	32746	35324	
581	0	32976	32809	35324	
582	0	32848	32809	35341	
583	0	32776	32924	35333	
584	0	32674	32848	35348	
585	0	32632	32928	35364	
586	0	32588	32932	35356	
587	0	32504	32968	35364	
588	0	32546	32944	35361	
589	0	32560	32900	35360	
590	0	32636	32720	35376	
591	0	32716	32757	35366	
592	0	32724	32740	35364	
593	0	32868	32772	35356	
594	0	32912	32792	35353	
595	0	32920	32732	35358	
596	0	32940	32694	35348	
597	0	32904	32800	35344	
598	0	32968	32765	35350	
599	0	32992	32773	35336	
600	0	32940	32732	35332	
601	0	32896	32730	35329	
602	0	32864	32841	35332	
603	0	32773	32866	35328	
604	0	32724	32943	35340	
605	0	32650	32996	35364	
606	0	32640	33160	35336	
607	0	32537	32889	35364	
608	0	32518	32932	35364	
609	0	32572	32836	35373	
610	0	32640	32768	35385	
611	0	32608	32712	35375	
612	0	32740	32801	35348	
613	0	32729	32771	35346	
614	0	32904	32836	35354	
615	0	32936	32725	35344	
616	0	32940	32866	35352	
617	0	32982	32676	35346	
618	0	32960	32728	35344	
619	0	33012	32679	35322	
620	0	33013	32816	35334	
621	0	32960	32761	35316	
622	0	32864	32893	35335	
623	0	32804	32912	35332	
624	0	32738	32949	35332	
625	0	32628	33015	35326	
626	0	32668	32974	35335	
627	0	32488	33020	35364	
628	0	32548	32870	35364	
629	0	32576	32874	35372	
630	0	32620	32764	35356	
631	0	32680	32716	35345	
632	0	32744	32815	35355	
633	0	32781	32645	35368	
634	0	32888	32821	35352	
635	0	32894	32646	35352	
636	0	32952	32869	35366	
637	0	33080	32918	35357	
638	0	32972	32832	35341	
639	0	32930	32800	35321	
640	0	33024	32808	35348	
641	0	32852	32757	35327	
642	0	32932	32772	35324	
643	0	32776	32892	35352	
644	0	32668	32876	35352	
645	0	32646	33004	35377	
646	0	32596	32908	35377	
647	0	32548	33064	35396	
648	0	32594	33012	35400	
649	0	32568	32927	35364	
650	0	32646	32747	35360	
651	0	32636	32724	35356	
652	0	32800	32666	35352	
653	0	32828	32726	35356	
654	0	32836	32738	35368	
655	0	32948	32853	35356	
656	0	32928	32818	35334	
657	0	32964	32828	35356	
658	0	33012	32791	35356	
659	0	32960	32686	35332	
660	0	33004	32740	35332	
661	0	32946	32684	35335	
662	0	32848	32838	35345	
663	0	32832	32884	35356	
664	0	32792	33028	35344	
665	0	32572	32982	35361	
666	0	32600	33040	35354	
667	0	32488	33030	35372	
668	0	32576	32860	35364	
669	0	32608	32959	35344	
670	0	32592	32747	35345	
671	0	32661	32782	35340	
672	0	32700	32732	35356	
673	0	32840	32808	35340	
674	0	32884	32688	35332	
675	0	32912	32692	35335	
676	0	33013	32610	35328	
677	0	32965	32766	35301	
678	0	32980	32748	35320	
679	0	33017	32791	35320	
680	0	33004	32788	35328	
681	0	32997	32750	35308	
682	0	32814	32913	35311	
683	0	32800	32955	35335	
684	0	32694	33008	35352	
685	0	32652	32940	35357	
686	0	32629	32980	35348	
687	0	32528	32879	35362	
688	0	32604	33008	35390	
689	0	32650	32869	35393	
690	0	32685	32792	35372	
691	0	32660	32840	35380	
692	0	32656	32729	35380	
693	0	32801	32744	35376	
694	0	32884	32668	35358	
695	0	32940	32680	35372	
696	0	33012	32809	35366	
697	0	32982	32652	35345	
698	0	32996	32652	35345	
699	0	32955	32856	35356	
700	0	32968	32753	35344	
701	0	32942	32905	35348	
702	0	32812	32804	35334	
703	0	32816	33096	35340	
704	0	32708	32884	35342	
705	0	32624	32957	35364	
706	0	32666	32888	35360	
707	0	32596	33031	35368	
708	0	32546	32940	35362	
709	0	32572	32782	35358	
710	0	32633	32797	35345	
711	0	32733	32687	35334	
712	0	32752	32708	35354	
713	0	32775	32780	35356	
714	0	32856	32784	35337	
715	0	32936	32813	35335	
716	0	32988	32784	35335	
717	0	33013	32672	35332	
718	0	33004	32726	35336	
719	0	32954	32752	35354	
720	0	33008	32785	35357	
721	0	32900	32840	35354	
722	0	32889	32919	35357	
723	0	32748	32945	35385	
724	0	32670	32900	35380	
725	0	32648	32886	35385	
726	0	32657	32957	35372	
727	0	32572	33044	35364	
728	0	32560	33064	35388	
729	0	32594	32876	35388	
730	0	32592	32774	35392	
731	0	32662	32722	35392	
732	0	32724	32812	35357	
733	0	32776	32685	35354	
734	0	32932	32808	35348	
735	0	32880	32673	35317	
736	0	32988	32836	35316	
737	0	32984	32804	35317	
738	0	33045	32823	35308	
739	0	33016	32838	35309	
740	0	32976	32781	35316	
741	0	32960	32886	35308	
742	0	32876	32770	35310	
743	0	32810	32863	35322	
744	0	32744	32883	35334	
745	0	32672	33025	35354	
746	0	32620	33056	35376	
747	0	32512	33044	35380	
748	0	32560	32832	35388	
749	0	32592	32797	35366	
750	0	32592	32676	35380	
751	0	32672	32724	35370	
752	0	32724	32741	35376	
753	0	32740	32692	35381	
754	0	32820	32822	35372	
755	0	32926	32804	35373	
756	0	32978	32836	35362	
757	0	32984	32852	35360	
758	0	33040	32716	35361	
759	0	32965	32746	35348	
760	0	33004	32790	35356	
761	0	32924	32789	35349	
762	0	32884	32770	35340	
763	0	32801	32870	35340	
764	0	32732	32940	35364	
765	0	32660	32941	35376	
766	0	32612	32932	35380	
767	0	32541	32997	35397	
768	0	32596	32996	35392	
769	0	32576	32957	35367	
770	0	32632	32898	35373	
771	0	32668	32844	35384	
772	0	32706	32784	35372	
773	0	32804	32848	35356	
774	0	32840	32765	35352	
775	0	32912	32800	35332	
776	0	32940	32620	35333	
777	0	32972	32880	35335	
778	0	32984	32767	35329	
779	0	32984	32661	35324	
780	0	32933	32806	35314	
781	0	32877	32849	35347	
782	0	32908	32840	35368	
783	0	32780	32772	35360	
784	0	32764	32927	35375	
785	0	32647	32874	35376	
786	0	32536	33064	35375	
787	0	32544	32888	35366	
788	0	32528	32960	35368	
789	0	32554	32832	35369	
790	0	32660	32844	35402	
791	0	32740	32670	35382	
792	0	32720	32756	35380	
793	0	32816	32704	35380	
794	0	32894	32784	35376	
795	0	32929	32628	35355	
796	0	32945	32663	35361	
797	0	32988	32636	35359	
798	0	32988	32676	35344	
799	0	32900	32738	35316	
800	0	32960	32744	35312	
801	0	32964	32873	35318	
802	0	32816	32836	35356	
803	0	32696	33012	35368	
804	0	32738	32970	35364	
805	0	32596	33120	35344	
806	0	32689	33016	35356	
807	0	32544	33057	35384	
808	0	32537	32980	35376	
809	0	32660	32820	35345	
810	0	32552	32775	35364	
811	0	32729	32860	35364	
812	0	32804	32897	35364	
813	0	32804	33008	35367	
814	0	32856	32688	35377	
815	0	32836	32700	35364	
816	0	32934	32676	35336	
817	0	33016	32740	35324	
818	0	33066	32616	35332	
819	0	32972	32572	35324	
820	0	32964	32710	35329	
821	0	32910	32768	35335	
822	0	32833	32754	35328	
823	0	32788	32868	35340	
824	0	32772	32868	35340	
825	0	32724	32948	35364	
826	0	32812	33022	35369	
827	0	32645	32852	35376	
828	0	32462	32850	35380	
829	0	32520	32772	35375	
830	0	32640	32852	35364	
831	0	32628	32927	35377	
832	0	32700	32680	35366	
833	0	32868	32876	35373	
834	0	32952	33141	35369	
835	0	32944	32965	35384	
836	0	32909	33213	35356	
837	0	32952	33098	35361	
838	0	32916	32901	35375	
839	0	32894	33031	35352	
840	0	32844	32905	35348	
841	0	32882	32956	35365	
842	0	32852	33216	35368	
843	0	32884	32983	35368	
844	0	32672	32876	35372	
845	0	32604	32724	35362	
846	0	32644	32568	35380	
847	0	32520	32532	35397	
848	0	32532	32570	35392	
849	0	32692	32753	35384	
850	0	32732	32812	35396	
851	0	32704	32215	35385	
852	0	32630	32108	35372	
853	0	32628	32084	35388	
854	0	32788	32200	35397	
855	0	32900	32554	35428	
856	0	33025	32500	35444	
857	0	33184	32840	35462	
858	0	33076	32806	35452	
859	0	32884	32996	35462	
860	0	32812	33030	35485	
861	0	32964	32996	35508	
862	0	32882	33000	35500	
863	0	32778	32953	35524	
864	0	32748	33045	35544	
865	0	32748	33064	35582	
866	0	32718	33240	35589	
867	0	32776	33361	35597	
868	0	32792	33108	35625	
869	0	32620	32960	35666	
870	0	32628	32509	35666	
871	0	32564	32724	35656	
872	0	32605	32783	35628	
873	0	32820	33064	35668	
874	0	32981	32668	35716	
875	0	32918	32468	35803	
876	0	32932	32120	35929	
877	0	32910	31956	36532	
878	0	33060	33455	36916	
879	0	32900	33561	36909	
880	0	32848	32892	36765	
881	0	32889	31776	36572	
882	0	32829	31117	36261	
883	0	32762	32768	35954	
884	0	32696	32262	35682	
885	0	32692	33021	35462	
886	0	32660	34744	35292	
887	0	32516	35236	35239	
888	0	32396	34628	35256	
889	0	32461	33608	35306	
890	0	32602	33496	35313	
891	0	32649	33248	35433	
892	0	32728	32876	35588	
893	0	32696	32454	35684	
894	0	32967	32544	35684	
895	0	33028	32468	35644	
896	0	32928	32510	35568	
897	0	33100	32400	35456	
898	0	33220	32344	35350	
899	0	33232	32219	35268	
900	0	33160	32068	35172	
901	0	32928	32253	35113	
902	0	32712	32332	35044	
903	0	32700	32793	35020	
904	0	32518	32917	35040	
905	0	32444	32826	35020	
906	0	32540	33136	35044	
907	0	32588	33185	35098	
908	0	32524	32684	35265	
909	0	32596	32556	35440	
910	0	32556	33040	35628	
911	0	32596	32916	35761	
912	0	32694	32768	35869	
913	0	32776	32588	35900	
914	0	32853	32760	35741	
915	0	32977	32576	35621	
916	0	32988	32022	35558	
917	0	32934	32372	35494	
918	0	32908	32533	35445	
919	0	32908	32416	35448	
920	0	32901	32873	35468	
921	0	32928	32713	35493	
922	0	32848	32733	35552	
923	0	32784	33732	35718	
924	0	32660	34500	35886	
925	0	32564	34658	35999	
926	0	32558	33001	36069	
927	0	32504	30846	36228	
928	0	32372	30894	36336	
929	0	32328	33036	36404	
930	0	32500	33496	36444	
931	0	32673	33264	36497	
932	0	32700	33004	36556	
933	0	32933	32917	36588	
934	0	33096	32664	36652	
935	0	33273	32512	36756	
936	0	33253	32404	36836	
937	0	33270	32708	36808	
938	0	33140	32704	36790	
939	0	33106	32684	36720	
940	0	33257	32636	36676	
941	0	33324	32696	36671	
942	0	33068	32296	36605	
943	0	33012	32245	36492	
944	0	32962	32058	36492	
945	0	32832	32173	36421	
946	0	32664	32106	36408	
947	0	32288	32144	36389	
948	0	32184	32521	36266	
949	0	32293	32834	36182	
950	0	32364	33168	36012	
951	0	32464	33759	35860	
952	0	32548	33341	35768	
953	0	32624	33146	35728	
954	0	32732	32616	35693	
955	0	32964	32176	35697	
956	0	33088	32533	35704	
957	0	32992	32580	35693	
958	0	32884	32701	35610	
959	0	32772	33372	35588	
960	0	32873	33364	35580	
961	0	32916	33154	35552	
962	0	32774	33124	35545	
963	0	32722	32490	35496	
964	0	32624	32444	35428	
965	0	32598	31824	35360	
966	0	32640	31984	35324	
967	0	32532	32437	35360	
968	0	32488	34296	35388	
969	0	32552	34173	35396	
970	0	32578	33772	35369	
971	0	32616	33181	35349	
972	0	32624	33594	35330	
973	0	32760	33708	35360	
974	0	32946	33343	35373	
975	0	33032	32976	35366	
976	0	33002	32948	35304	
977	0	32990	32900	35260	
978	0	32968	32772	35238	
979	0	32932	32684	35212	
980	0	32796	32831	35176	
981	0	32549	32780	35148	
982	0	32645	32336	35132	
983	0	32630	32548	35140	
984	0	32396	32372	35120	
985	0	32572	32296	35164	
986	0	32705	33556	35188	
987	0	32584	34961	35228	
988	0	32704	34648	35279	
989	0	32964	32832	35316	
990	0	32884	31606	35394	
991	0	32838	32012	35464	
992	0	32717	32792	35581	
993	0	32336	32703	35706	
994	0	32148	32904	35846	
995	0	32485	32605	35966	
996	0	33000	32369	36132	
997	0	33552	33082	36320	
998	0	33417	33172	36495	
999	0	33200	33300	36636	
1000	0	33040	33005	36780	
1001	0	32856	32513	36918	
1002	0	32816	32764	37072	
1003	0	32482	32897	37240	
1004	0	32320	32688	37470	
1005	0	32632	32452	37624	
1006	0	32968	32889	37775	
1007	0	32484	33352	37952	
1008	0	31836	33473	38119	
1009	0	31904	33558	38256	
1010	0	32228	33648	38340	
1011	0	31624	33736	38362	
1012	0	31986	33204	38388	
1013	0	33034	32932	38416	
1014	0	33506	32421	38396	
1015	0	34136	32220	38362	
1016	0	34680	32181	38317	
1017	0	34500	32077	38312	
1018	0	34288	32060	38236	
1019	0	34068	32540	38101	
1020	0	33720	32888	37980	
1021	0	33180	32612	37848	
1022	0	32692	32508	37626	
1023	0	32316	32734	37425	
1024	0	32020	32984	37232	
1025	0	31816	32492	37016	
1026	0	31784	31981	36849	
1027	0	31661	31736	36710	
1028	0	31576	31824	36599	
1029	0	31912	32324	36472	
1030	0	32210	32616	36372	
1031	0	32528	32720	36212	
1032	0	32833	32934	36068	
1033	0	32895	32752	35984	
1034	0	33164	32826	35942	
1035	0	33364	33142	35877	
1036	0	33464	33408	35880	
1037	0	33652	33232	35817	
1038	0	33784	33360	35800	
1039	0	33328	33514	35802	
1040	0	33250	33581	35397	
1041	0	33780	33656	35416	
1042	0	33490	33472	35350	
1043	0	33177	33356	35393	
1044	0	32584	33204	35468	
1045	0	31940	33150	35479	
1046	0	31324	33094	35532	
1047	0	31102	33002	35524	
1048	0	31304	32860	35508	
1049	0	31545	32612	35472	
1050	0	31468	32613	35466	
1051	0	31500	32716	35460	
1052	0	32120	32760	35456	
1053	0	32816	32804	35397	
1054	0	33412	32832	35312	
1055	0	34192	32888	35196	
1056	0	34464	33052	35093	
1057	0	34568	32950	34973	
1058	0	34632	32904	34848	
1059	0	34444	32941	34728	
1060	0	33896	32816	34604	
1061	0	32848	32996	34437	
1062	0	31832	32894	34286	
1063	0	30964	32860	34100	
1064	0	30712	32792	33925	
1065	0	30828	32689	33780	
1066	0	31484	32549	33648	
1067	0	31868	32647	33568	
1068	0	32280	32541	33476	
1069	0	32864	32454	33432	
1070	0	33192	32492	33404	
1071	0	33476	32521	33392	
1072	0	33800	32516	33422	
1073	0	34004	32631	33476	
1074	0	34565	32808	33573	
1075	0	34468	32848	33625	
1076	0	34220	32900	33773	
1077	0	33956	32872	33849	
1078	0	33832	32986	33832	
1079	0	33580	32933	33842	
1080	0	33384	32918	33877	
1081	0	33080	32973	33876	
1082	0	32632	33060	33913	
1083	0	32100	33268	33945	
1084	0	31344	33116	33980	
1085	0	30822	32820	34039	
1086	0	31412	32672	34125	
1087	0	31933	32447	34276	
1088	0	31888	32401	34415	
1089	0	32258	32156	34589	
1090	0	33038	32268	34756	
1091	0	33584	32125	34916	
1092	0	33996	32110	35088	
1093	0	33732	32100	35247	
1094	0	32972	32380	35440	
1095	0	32684	32573	35591	
1096	0	32665	32800	35724	
1097	0	32720	32780	35822	
1098	0	32904	32820	35932	
1099	0	33276	32816	36014	
1100	0	33189	32892	36030	
1101	0	32876	32998	36028	
1102	0	32884	32971	35978	
1103	0	32646	32553	35976	
1104	0	32349	32686	35980	
1105	0	32016	32696	35954	
1106	0	31924	32836	36034	
1107	0	31840	32677	36088	
1108	0	31528	32686	36135	
1109	0	31176	32420	36148	
1110	0	30613	32216	36140	
1111	0	31124	32372	36164	
1112	0	32420	32376	36152	
1113	0	34080	32490	36136	
1114	0	34316	32756	36073	
1115	0	34309	33026	36112	
1116	0	33956	32996	36184	
1117	0	33480	33189	36234	
1118	0	33678	32846	36145	
1119	0	33648	32944	35932	
1120	0	32708	33003	35796	
1121	0	31908	32888	35749	
1122	0	30544	32796	35717	
1123	0	31009	32796	35740	
1124	0	31612	32775	35750	
1125	0	32700	32964	35680	
1126	0	32588	33207	35503	
1127	0	32888	33799	35342	
1128	0	33142	33680	35141	
1129	0	31660	32759	34909	
1130	0	32072	32648	34721	
1131	0	32266	33418	34572	
1132	0	32552	34853	34447	
1133	0	35920	35528	34280	
1134	0	38268	34997	34109	
1135	0	39176	34632	33740	
1136	0	38204	34262	33429	
1137	0	35876	32892	33156	
1138	0	35352	31528	32848	
1139	0	34172	30792	32657	
1140	0	32496	30336	32420	
1141	0	31816	29638	32228	
1142	0	30718	29533	31992	
1143	0	30244	30178	31736	
1144	0	31078	31021	31506	
1145	0	30824	32269	31297	
1146	0	30164	32784	31305	
1147	0	30270	32688	30895	
1148	0	30964	33005	31494	
1149	0	30960	33134	31912	
1150	0	31356	33516	32280	
1151	0	32516	33015	32628	
1152	0	32604	33040	32996	
1153	0	32153	33193	33356	
1154	0	32264	33484	33688	
1155	0	31734	33585	33980	
1156	0	31862	33756	34264	
1157	0	32736	33252	34504	
1158	0	33932	33172	34692	
1159	0	34461	33137	34817	
1160	0	34590	33181	34821	
1161	0	34028	33223	34702	
1162	0	33858	33177	34436	
1163	0	33416	33169	34024	
1164	0	32164	33284	33564	
1165	0	31604	33380	33001	
1166	0	31756	33284	32480	
1167	0	32346	32737	32052	
1168	0	32324	32644	31745	
1169	0	32260	32646	31626	
1170	0	31976	32764	31696	
1171	0	32360	33004	31917	
1172	0	32464	32825	32232	
1173	0	32460	32868	32642	
1174	0	32620	32764	33072	
1175	0	32557	32815	33408	
1176	0	32420	33198	33720	
1177	0	32504	33020	33956	
1178	0	32628	32729	34119	
1179	0	32601	32602	34448	
1180	0	32412	32792	34388	
1181	0	32144	33041	34329	
1182	0	32468	32828	34456	
1183	0	33072	32756	34585	
1184	0	34181	32862	34641	
1185	0	34432	32800	34660	
1186	0	33876	32846	34620	
1187	0	33172	32884	34548	
1188	0	33872	32846	34504	
1189	0	35149	32670	34432	
1190	0	34536	32560	34356	
1191	0	33297	32804	34327	
1192	0	32986	32780	34264	
1193	0	32061	32904	34196	
1194	0	30376	33030	34132	
1195	0	29764	33016	34036	
1196	0	30952	32872	33948	
1197	0	31868	32983	33888	
1198	0	32624	32847	33818	
1199	0	33376	32878	33752	
1200	0	34124	32989	33679	
1201	0	33192	33133	33617	
1202	0	31236	33140	33560	
1203	0	30656	33214	33541	
1204	0	31241	33201	33488	
1205	0	31436	33277	33448	
1206	0	30436	33412	33396	
1207	0	30812	33536	33372	
1208	0	33620	33256	33405	
1209	0	35108	32951	33420	
1210	0	35836	32684	33456	
1211	0	35656	32830	33548	
1212	0	35408	32974	33685	
1213	0	34444	32741	33832	
1214	0	34409	32941	34046	
1215	0	34892	32806	34152	
1216	0	34284	32925	34196	
1217	0	34160	32936	34064	
1218	0	33020	33194	33840	
1219	0	33076	33552	33577	
1220	0	33268	33805	33150	
1221	0	33324	33896	32572	
1222	0	33617	33964	32104	
1223	0	33056	33520	31845	
1224	0	31261	33424	31745	
1225	0	30254	33274	31799	
1226	0	30361	33856	31863	
1227	0	30456	33544	31940	
1228	0	29832	32800	32050	
1229	0	28753	32336	32196	
1230	0	26900	32680	32040	
1231	0	25600	32825	31988	
1232	0	25681	32480	32199	
1233	0	29186	32912	32554	
1234	0	32240	33080	33029	
1235	0	35724	34133	33628	
1236	0	38621	34460	34344	
1237	0	39224	33476	35092	
1238	0	42024	33088	35764	
1239	0	45140	32228	36352	
1240	0	43644	31862	36808	
1241	0	39864	32140	37112	
1242	0	35664	32604	37144	
1243	0	31360	32694	36988	
1244	0	27021	32533	36708	
1245	0	27060	32340	36292	
1246	0	27705	32353	35813	
1247	0	28429	32268	35276	
1248	0	27590	32380	34768	
1249	0	28888	32902	34330	
1250	0	31156	32952	33977	
1251	0	31607	32805	33765	
1252	0	32608	33276	33676	
1253	0	34058	33408	33716	
1254	0	33848	32340	33832	
1255	0	33272	31164	33996	
1256	0	32852	30484	34128	
1257	0	31698	30396	34204	
1258	0	32536	32012	34178	
1259	0	31696	33248	34140	
1260	0	30160	32904	34066	
1261	0	30124	33073	34012	
1262	0	32580	33180	33932	
1263	0	34288	33284	33884	
1264	0	34653	33268	33860	
1265	0	34300	32952	33909	
1266	0	34800	32733	33988	
1267	0	37244	32840	34100	
1268	0	41860	32585	34204	
1269	0	41052	32640	34318	
1270	0	36716	32048	34416	
1271	0	32448	32016	34476	
1272	0	28976	33004	34544	
1273	0	26817	33444	34616	
1274	0	28792	33257	34674	
1275	0	31560	32932	34781	
1276	0	31562	33144	34654	
1277	0	30420	33032	34720	
1278	0	30984	32775	34764	
1279	0	31735	32392	34760	
1280	0	32184	31717	34708	
1281	0	32580	29736	34696	
1282	0	33185	28753	34548	
1283	0	32624	30544	34500	
1284	0	32308	31600	34652	
1285	0	32128	31502	34799	
1286	0	32008	31545	34870	
1287	0	32008	32872	34784	
1288	0	32388	34120	34721	
1289	0	32660	34332	34708	
1290	0	32673	34112	34789	
1291	0	32590	33984	34951	
1292	0	32304	34104	35088	
1293	0	32749	34065	35140	
1294	0	33193	33544	35052	
1295	0	33400	32680	34843	
1296	0	33416	33383	34542	
1297	0	33676	33956	34151	
1298	0	34373	33260	33716	
1299	0	34968	32100	33429	
1300	0	33816	30564	32876	
1301	0	32628	31133	32636	
1302	0	31960	32352	32336	
1303	0	30536	33476	32100	
1304	0	31108	32506	31868	
1305	0	31704	32381	31769	
1306	0	31404	33876	31860	
1307	0	31223	33704	32160	
1308	0	31212	34700	32620	
1309	0	32922	34260	33114	
1310	0	33524	32968	33532	
1311	0	34324	32328	33828	
1312	0	33872	31132	33958	
1313	0	32133	31392	33966	
1314	0	33168	32268	33926	
1315	0	33917	33228	33932	
1316	0	31400	33084	33944	
1317	0	29660	33672	33954	
1318	0	30680	34000	33944	
1319	0	30328	33452	33848	
1320	0	30772	33116	33708	
1321	0	34476	33196	33540	
1322	0	37708	33772	33336	
1323	0	37909	33604	33097	
1324	0	37056	33519	32828	
1325	0	34473	33604	32660	
1326	0	34021	33341	32516	
1327	0	37228	33460	32440	
1328	0	39244	33560	32432	
1329	0	35012	33532	32492	
1330	0	33360	33120	32564	
1331	0	33956	32582	32656	
1332	0	32476	31957	32776	
1333	0	30432	32692	32860	
1334	0	29521	32324	32921	
1335	0	29304	33014	32997	
1336	0	29660	34764	33060	
1337	0	30492	34148	33116	
1338	0	31368	32357	33140	
1339	0	32020	32204	33124	
1340	0	32112	32044	33068	
1341	0	32476	30068	32988	
1342	0	32000	30564	32900	
1343	0	31636	32470	32808	
1344	0	31496	32680	32720	
1345	0	31632	33280	32644	
1346	0	31445	32642	32588	
1347	0	32708	33496	32556	
1348	0	33924	34668	32552	
1349	0	33884	34632	32572	
1350	0	33916	34324	32598	
1351	0	33198	33809	32628	
1352	0	32328	33430	32680	
1353	0	31645	32874	32736	
1354	0	31204	33360	32818	
1355	0	30824	33184	32894	
1356	0	29237	33020	32940	
1357	0	30068	32736	32998	
1358	0	32240	32672	33032	
1359	0	34140	32652	33060	
1360	0	36388	32716	33068	
1361	0	38328	33013	33096	
1362	0	39036	33112	33112	
1363	0	38856	32111	33136	
1364	0	36944	32801	33172	
1365	0	33812	33669	33183	
1366	0	30146	33105	33208	
1367	0	28606	32773	33256	
1368	0	29988	32803	33105	
1369	0	30692	32548	33216	
1370	0	31794	32984	33332	
1371	0	32816	32917	33376	
1372	0	33976	32824	33372	
1373	0	33786	33021	33338	
1374	0	32905	32890	33324	
1375	0	31184	33022	33330	
1376	0	30296	33042	33316	
1377	0	31557	33228	33328	
1378	0	33332	33596	33336	
1379	0	34388	33597	33347	
1380	0	33220	33404	33324	
1381	0	31356	33790	33284	
1382	0	28332	34340	33264	
1383	0	28800	33744	33346	
1384	0	32984	32948	33148	
1385	0	34448	32669	33188	
1386	0	34609	32137	33217	
1387	0	34704	31876	33220	
1388	0	35264	31826	33176	
1389	0	34966	31528	33133	
1390	0	33632	31372	33121	
1391	0	31096	31480	33128	
1392	0	30924	32076	33146	
1393	0	31656	32333	33182	
1394	0	31640	32808	33160	
1395	0	32901	32832	33144	
1396	0	33064	32336	33130	
1397	0	32921	31616	33104	
1398	0	32737	31848	33092	
1399	0	32376	33448	33056	
1400	0	32716	34513	33024	
1401	0	32158	33676	33036	
1402	0	30708	33016	33030	
1403	0	31588	32766	33026	
1404	0	33528	32926	33037	
1405	0	34068	32876	33036	
1406	0	33560	32591	33023	
1407	0	34957	31762	33000	
1408	0	35074	32130	32972	
1409	0	33305	32248	32940	
1410	0	32388	32172	32932	
1411	0	32336	32676	32863	
1412	0	30952	33281	32752	
1413	0	31576	34253	32637	
1414	0	32265	34996	32516	
1415	0	31280	33740	32372	
1416	0	30116	32126	32263	
1417	0	32132	31456	32192	
1418	0	34892	31310	32180	
1419	0	36296	31092	32200	
1420	0	36445	32137	32256	
1421	0	35988	32832	32287	
1422	0	34732	33520	32356	
1423	0	33374	33448	32404	
1424	0	35166	33276	32456	
1425	0	36060	32942	32476	
1426	0	32424	32466	32469	
1427	0	29220	32865	32472	
1428	0	29200	33208	32492	
1429	0	30144	32780	32488	
1430	0	30740	32986	32485	
1431	0	32456	33209	32453	
1432	0	34168	32944	32447	
1433	0	35150	33064	32442	
1434	0	34240	33136	32423	
1435	0	31774	32252	32444	
1436	0	31356	33184	32438	
1437	0	30801	33045	32438	
1438	0	32233	33228	32400	
1439	0	32700	32929	32428	
1440	0	33236	32484	32437	
1441	0	33912	32644	32460	
1442	0	33440	32781	32493	
1443	0	32824	32975	32509	
1444	0	31877	33340	32548	
1445	0	30660	32799	32594	
1446	0	31004	32592	32622	
1447	0	32205	32800	32653	
1448	0	32396	32573	32668	
1449	0	32616	32485	32692	
1450	0	32737	32976	32698	
1451	0	32764	32824	32693	
1452	0	32908	32893	32692	
1453	0	32896	32804	32680	
1454	0	32276	32614	32684	
1455	0	31900	32576	32684	
1456	0	32043	32824	32664	
1457	0	31384	32825	32612	
1458	0	32668	32910	32599	
1459	0	31991	32834	32558	
1460	0	31072	33152	32566	
1461	0	33433	33484	32526	
1462	0	36320	32644	32484	
1463	0	35804	32447	32481	
1464	0	37012	32616	32476	
1465	0	36352	32864	32480	
1466	0	35300	32476	32510	
1467	0	31886	32654	32536	
1468	0	32636	32948	32550	
1469	0	33516	32600	32584	
1470	0	32968	32141	32602	
1471	0	32112	33205	32592	
1472	0	31044	32706	32640	
1473	0	31580	31924	32724	
1474	0	32948	32146	32778	
1475	0	30914	32352	32809	
1476	0	31242	33632	32863	
1477	0	31540	33188	32840	
1478	0	31072	33448	32792	
1479	0	31717	33470	32820	
1480	0	31588	33094	32873	
1481	0	32784	33002	32910	
1482	0	33500	32821	32928	
1483	0	33616	32132	32908	
1484	0	33552	32388	32916	
1485	0	34288	33269	32921	
1486	0	34876	32908	32944	
1487	0	33904	32304	32938	
1488	0	32590	32524	32925	
1489	0	31712	32600	32893	
1490	0	31889	32388	32864	
1491	0	31632	33220	32838	
1492	0	33412	32724	32782	
1493	0	34360	32700	32740	
1494	0	34444	33632	32684	
1495	0	32908	33512	32639	
1496	0	29496	32868	32576	
1497	0	32262	31116	32534	
1498	0	33992	31300	32498	
1499	0	32240	32780	32502	
1500	0	31184	33040	32487	
1501	0	29889	32749	32488	
1502	0	30106	33348	32492	
1503	0	32152	33652	32510	
1504	0	34368	33420	32536	
1505	0	36224	32496	32516	
1506	0	35632	31820	32548	
1507	0	34780	31964	32556	
1508	0	34056	32646	32544	
1509	0	31922	32596	32540	
1510	0	31222	33108	32516	
1511	0	32012	33168	32505	
1512	0	33066	33000	32485	
1513	0	33516	33412	32450	
1514	0	33604	33095	32392	
1515	0	31720	32874	32345	
1516	0	29536	32805	32303	
1517	0	32136	33117	32265	
1518	0	33617	32726	32244	
1519	0	33220	32656	32264	
1520	0	32460	32833	32268	
1521	0	32756	32872	32289	
1522	0	32976	32981	32320	
1523	0	33846	32990	32335	
1524	0	33380	33076	32366	
1525	0	33856	34086	32381	
1526	0	33088	33036	32409	
1527	0	33260	32840	32422	
1528	0	32757	32665	32434	
1529	0	32208	32784	32450	
1530	0	32096	32192	32452	
1531	0	30868	32438	32483	
1532	0	31000	32272	32496	
1533	0	31617	32144	32492	
1534	0	30970	31647	32480	
1535	0	32572	32076	32464	
1536	0	34448	32980	32464	
1537	0	33765	33212	32456	
1538	0	33192	33052	32444	
1539	0	32854	32788	32447	
1540	0	33193	32670	32432	
1541	0	33460	33311	32432	
1542	0	34204	33148	32436	
1543	0	35112	32817	32426	
1544	0	36064	32569	32434	
1545	0	35364	32620	32454	
1546	0	34000	33126	32474	
1547	0	34545	32968	32509	
1548	0	32048	32764	32544	
1549	0	30456	32108	32540	
1550	0	30772	32635	32556	
1551	0	31292	32970	32548	
1552	0	31680	33198	32545	
1553	0	31652	33004	32552	
1554	0	31824	33013	32552	
1555	0	32532	32945	32556	
1556	0	32980	32996	32580	
1557	0	32780	33137	32608	
1558	0	32609	32888	32598	
1559	0	32064	32922	32608	
1560	0	32152	32796	32633	
1561	0	32652	32877	32640	
1562	0	32924	32640	32636	
1563	0	32860	33140	32647	
1564	0	33020	33452	32674	
1565	0	32622	33253	32678	
1566	0	32136	32628	32693	
1567	0	32192	32130	32716	
1568	0	32396	32116	32717	
1569	0	32438	32452	32724	
1570	0	31688	32712	32730	
1571	0	32520	32681	32712	
1572	0	33152	32718	32692	
1573	0	34618	32520	32677	
1574	0	36004	32884	32684	
1575	0	35052	32865	32664	
1576	0	32204	32891	32636	
1577	0	29085	32776	32624	
1578	0	30084	33287	32622	
1579	0	32976	33476	32612	
1580	0	34310	33076	32604	
1581	0	35420	32565	32604	
1582	0	33744	32514	32578	
1583	0	31225	33044	32586	
1584	0	30156	33037	32568	
1585	0	29840	32996	32573	
1586	0	32240	33040	32608	
1587	0	32976	32564	32596	
1588	0	33640	32232	32573	
1589	0	35461	33220	32574	
1590	0	33948	33116	32576	
1591	0	34104	32625	32564	
1592	0	33152	31980	32572	
1593	0	34301	32560	32568	
1594	0	34532	32820	32565	
1595	0	32864	32820	32540	
1596	0	32899	32976	32513	
1597	0	33240	33162	32468	
1598	0	32740	33384	32432	
1599	0	32200	34172	32406	
1600	0	32178	33268	32376	
1601	0	32172	32608	32360	
1602	0	31892	30997	32364	
1603	0	31708	31212	32354	
1604	0	33574	32696	32340	
1605	0	33216	33280	32352	
1606	0	32516	32668	32365	
1607	0	31156	32960	32380	
1608	0	31492	33256	32389	
1609	0	31856	33456	32384	
1610	0	32604	33712	32380	
1611	0	32648	33370	32383	
1612	0	32544	33169	32386	
1613	0	32448	32936	32441	
1614	0	33007	33068	32440	
1615	0	33424	33232	32444	
1616	0	32924	33086	32445	
1617	0	33320	31649	32444	
1618	0	33832	31888	32438	
1619	0	33028	32857	32448	
1620	0	32620	32484	32482	
1621	0	32472	32612	32512	
1622	0	32852	32852	32506	
1623	0	32854	32892	32536	
1624	0	32992	32896	32536	
1625	0	32649	33032	32565	
1626	0	31900	33216	32601	
1627	0	32416	33418	32597	
1628	0	34333	33224	32597	
1629	0	34368	33300	32592	
1630	0	32740	33632	32604	
1631	0	31908	34244	32600	
1632	0	29145	33562	32604	
1633	0	29764	31844	32592	
1634	0	31936	30256	32598	
1635	0	33150	30468	32608	
1636	0	34220	31892	32616	
1637	0	35252	32736	32628	
1638	0	34952	32892	32664	
1639	0	34132	33216	32647	
1640	0	34717	33300	32648	
1641	0	35460	33348	32644	
1642	0	32276	33040	32630	
1643	0	29748	33292	32640	
1644	0	30136	33252	32622	
1645	0	31700	33292	32608	
1646	0	33466	33792	32572	
1647	0	33124	34008	32545	
1648	0	28652	32494	32510	
1649	0	30020	31710	32492	
1650	0	33736	31750	32454	
1651	0	36381	30813	32428	
1652	0	38020	32084	32424	
1653	0	36928	33372	32420	
1654	0	33633	33398	32421	
1655	0	32196	33541	32405	
1656	0	31688	33156	32429	
1657	0	31464	33038	32440	
1658	0	30820	33012	32453	
1659	0	31340	33220	32469	
1660	0	32689	32416	32454	
1661	0	33760	32967	32488	
1662	0	33604	32572	32492	
1663	0	32260	32632	32509	
1664	0	30864	33296	32512	
1665	0	31744	33460	32520	
1666	0	31005	32348	32528	
1667	0	31660	32989	32528	
1668	0	34112	32601	32519	
1669	0	34252	32614	32500	
1670	0	35068	32797	32492	
1671	0	34644	32616	32520	
1672	0	35001	32884	32528	
1673	0	33078	32512	32557	
1674	0	31916	32631	32558	
1675	0	32388	32924	32572	
1676	0	33232	33060	32556	
1677	0	33176	32753	32541	
1678	0	31301	33122	32536	
1679	0	30857	33268	32492	
1680	0	30144	33088	32483	
1681	0	31452	32595	32479	
1682	0	31784	32606	32476	
1683	0	32160	33028	32480	
1684	0	32144	33080	32496	
1685	0	32864	32573	32492	
1686	0	33316	32957	32488	
1687	0	34460	32710	32508	
1688	0	34312	32444	32492	
1689	0	34253	32868	32477	
1690	0	32832	33006	32468	
1691	0	29422	32434	32453	
1692	0	31680	33028	32464	
1693	0	33428	32990	32481	
1694	0	34404	33436	32489	
1695	0	33740	33024	32517	
1696	0	33477	33344	32516	
1697	0	33700	33662	32502	
1698	0	35100	32948	32489	
1699	0	33960	31704	32452	
1700	0	33296	30285	32421	
1701	0	31816	31553	32396	
1702	0	29917	33311	32401	
1703	0	31876	33940	32407	
1704	0	33440	33724	32408	
1705	0	32192	33204	32452	
1706	0	32600	33064	32462	
1707	0	33792	33452	32482	
1708	0	34688	33360	32494	
1709	0	33456	32399	32495	
1710	0	33520	31825	32476	
1711	0	32388	32804	32469	
1712	0	30852	33312	32464	
1713	0	29844	32871	32456	
1714	0	29662	32882	32472	
1715	0	30544	33036	32460	
1716	0	32785	33462	32428	
1717	0	33606	33552	32426	
1718	0	34249	32950	32404	
1719	0	33584	31844	32426	
1720	0	33536	31253	32421	
1721	0	33728	31968	32444	
1722	0	33220	32890	32476	
1723	0	32865	33029	32495	
1724	0	32992	32944	32496	
1725	0	32544	33228	32493	
1726	0	31668	33237	32493	
1727	0	31728	33892	32493	
1728	0	32560	33093	32488	
1729	0	31672	32364	32468	
1730	0	31528	32968	32462	
1731	0	32596	33057	32464	
1732	0	34328	32470	32480	
1733	0	34932	32448	32470	
1734	0	35020	32826	32498	
1735	0	33760	33084	32495	
1736	0	32792	32662	32524	
1737	0	32084	32870	32538	
1738	0	31296	32337	32545	
1739	0	32128	32290	32536	
1740	0	31216	33654	32528	
1741	0	31880	33000	32516	
1742	0	33578	32785	32522	
1743	0	35136	33176	32508	
1744	0	35681	32736	32514	
1745	0	32624	33107	32510	
1746	0	33272	33022	32484	
1747	0	32840	32688	32495	
1748	0	33960	32860	32476	
1749	0	34308	32720	32479	
1750	0	33660	32995	32444	
1751	0	33057	33204	32440	
1752	0	31528	33276	32428	
1753	0	31332	32496	32428	
1754	0	31930	32914	32448	
1755	0	32412	32344	32452	
1756	0	32604	32592	32484	
1757	0	32388	33854	32484	
1758	0	32944	33112	32488	
1759	0	33096	32228	32461	
1760	0	32268	31728	32444	
1761	0	32024	31455	32452	
1762	0	32896	31956	32452	
1763	0	33444	32968	32460	
1764	0	34212	32908	32469	
1765	0	33847	33672	32497	
1766	0	32600	33604	32470	
1767	0	31857	33056	32480	
1768	0	30176	32998	32478	
1769	0	31080	33156	32484	
1770	0	32712	32692	32476	
1771	0	32536	32729	32436	
1772	0	32633	32852	32405	
1773	0	32692	33300	32378	
1774	0	32880	32800	32336	
1775	0	33572	32701	32328	
1776	0	33196	32309	32320	
1777	0	33062	32622	32302	
1778	0	34584	32788	32313	
1779	0	35244	32948	32330	
1780	0	34384	33909	32360	
1781	0	30440	33592	32380	
1782	0	27234	32592	32404	
1783	0	31368	31004	32404	
1784	0	31732	31342	32420	
1785	0	33384	32557	32424	
1786	0	32300	33380	32444	
1787	0	31748	33104	32431	
1788	0	33172	32560	32421	
1789	0	33496	32928	32432	
1790	0	33849	32552	32433	
1791	0	33580	33250	32429	
1792	0	32584	33136	32436	
1793	0	34077	33090	32430	
1794	0	33976	32922	32448	
1795	0	32890	32503	32456	
1796	0	34744	32716	32446	
1797	0	34501	33082	32444	
1798	0	33570	33620	32438	
1799	0	32528	33132	32412	
1800	0	32735	32940	32424	
1801	0	33284	33127	32456	
1802	0	32888	33140	32440	
1803	0	32436	32684	32444	
1804	0	32156	32814	32484	
1805	0	31329	31968	32485	
1806	0	30096	31468	32494	
1807	0	31228	32224	32484	
1808	0	31908	33648	32489	
1809	0	33408	33324	32484	
1810	0	33668	32402	32518	
1811	0	32484	32438	32548	
1812	0	31880	33012	32554	
1813	0	31961	32888	32554	
1814	0	33644	33028	32556	
1815	0	34200	33096	32536	
1816	0	33848	32861	32516	
1817	0	34056	32724	32522	
1818	0	34136	32493	32500	
1819	0	33264	32837	32490	
1820	0	33548	33048	32474	
1821	0	33449	33008	32473	
1822	0	32577	33078	32460	
1823	0	31272	32756	32448	
1824	0	30140	32876	32438	
1825	0	30992	33112	32444	
1826	0	32512	32860	32449	
1827	0	32856	32668	32456	
1828	0	33072	32884	32444	
1829	0	32960	33420	32433	
1830	0	33062	33236	32416	
1831	0	32050	33053	32400	
1832	0	32376	32724	32404	
1833	0	33088	31644	32425	
1834	0	32534	32013	32451	
1835	0	32232	33181	32460	
1836	0	32954	32646	32457	
1837	0	33988	32902	32452	
1838	0	34637	33038	32456	
1839	0	33853	32826	32472	
1840	0	34292	32966	32460	
1841	0	34204	33098	32466	
1842	0	33180	32811	32456	
1843	0	31536	33104	32432	
1844	0	31978	32612	32420	
1845	0	32132	32548	32412	
1846	0	31608	34032	32396	
1847	0	31636	33917	32412	
1848	0	32356	32520	32398	
1849	0	32576	30814	32373	
1850	0	33772	31436	32390	
1851	0	32889	33788	32398	
1852	0	32112	33100	32405	
1853	0	32132	32798	32388	
1854	0	33380	32700	32356	
1855	0	33950	33081	32352	
1856	0	31588	33108	32353	
1857	0	32172	32613	32356	
1858	0	35284	32708	32356	
1859	0	34716	32103	32364	
1860	0	33461	31880	32360	
1861	0	32017	32184	32368	
1862	0	31120	32898	32388	
1863	0	31432	33148	32398	
1864	0	32553	33432	32422	
1865	0	33984	33396	32440	
1866	0	34212	33948	32458	
1867	0	32504	33948	32457	
1868	0	32528	33414	32452	
1869	0	32492	32640	32458	
1870	0	30960	32292	32470	
1871	0	30476	32424	32437	
1872	0	30468	32212	32482	
1873	0	31136	32924	32448	
1874	0	34064	33088	32440	
1875	0	35536	32908	32424	
1876	0	35137	33167	32432	
1877	0	34620	32976	32448	
1878	0	33796	32544	32448	
1879	0	32956	32993	32434	
1880	0	31751	33817	32440	
1881	0	30736	33138	32428	
1882	0	29308	32490	32428	
1883	0	31108	32438	32440	
1884	0	33793	32838	32456	
1885	0	34196	33118	32472	
1886	0	33656	32992	32470	
1887	0	33624	32188	32448	
1888	0	34420	32324	32460	
1889	0	35312	32608	32429	
1890	0	35309	32385	32398	
1891	0	35020	32588	32356	
1892	0	33744	32712	32340	
1893	0	30122	32953	32340	
1894	0	28924	32852	32316	
1895	0	31504	33352	32308	
1896	0	32666	33281	32310	
1897	0	33664	32448	32320	
1898	0	33884	32956	32324	
1899	0	33436	32908	32349	
1900	0	33064	32376	32337	
1901	0	32216	32316	32365	
1902	0	32040	32901	32396	
1903	0	29972	33500	32408	
1904	0	31208	33238	32412	
1905	0	32192	32869	32449	
1906	0	32554	33068	32468	
1907	0	32460	33072	32448	
1908	0	32744	33048	32448	
1909	0	33100	32588	32458	
1910	0	33104	32244	32484	
1911	0	33848	32654	32494	
1912	0	33720	32884	32465	
1913	0	33196	32591	32457	
1914	0	32392	32786	32457	
1915	0	34824	32508	32460	
1916	0	34808	32628	32468	
1917	0	33408	32564	32482	
1918	0	32537	32860	32497	
1919	0	30592	34340	32468	
1920	0	30668	33926	32466	
1921	0	32328	32973	32460	
1922	0	33068	33016	32480	
1923	0	32617	33713	32484	
1924	0	31600	33508	32494	
1925	0	31404	32072	32508	
1926	0	32108	30228	32520	
1927	0	34212	31188	32554	
1928	0	35048	32702	32544	
1929	0	33280	33564	32537	
1930	0	32548	33352	32542	
1931	0	32600	33024	32536	
1932	0	32868	33104	32508	
1933	0	33052	33031	32504	
1934	0	32728	33356	32452	
1935	0	32624	33141	32460	
1936	0	34124	32904	32455	
1937	0	33096	32792	32448	
1938	0	32456	32806	32454	
1939	0	31886	33157	32464	
1940	0	31226	32917	32460	
1941	0	32772	32686	32438	
1942	0	33088	32816	32452	
1943	0	32876	32501	32454	
1944	0	32332	32633	32456	
1945	0	32828	32628	32468	
1946	0	32528	33013	32464	
1947	0	31444	33114	32464	
1948	0	30985	32924	32462	
1949	0	32836	32681	32464	
1950	0	33712	32677	32476	
1951	0	34920	32784	32476	
1952	0	33276	33128	32456	
1953	0	32372	32797	32462	
1954	0	32012	32820	32432	
1955	0	32752	32492	32438	
1956	0	34096	32663	32415	
1957	0	34704	32670	32412	
1958	0	34676	32677	32420	
1959	0	35956	32910	32401	
1960	0	34960	32688	32396	
1961	0	33524	33060	32380	
1962	0	31106	33020	32364	
1963	0	30518	32964	32344	
1964	0	29678	33409	32360	
1965	0	31000	33580	32357	
1966	0	33692	32925	32372	
1967	0	33776	32210	32397	
1968	0	33540	32397	32397	
1969	0	32786	32704	32389	
1970	0	31324	32753	32388	
1971	0	31728	32386	32392	
1972	0	31724	32404	32397	
1973	0	31452	32836	32396	
1974	0	31560	32476	32380	
1975	0	32280	33072	32373	
1976	0	33780	33244	32376	
1977	0	34624	34004	32376	
1978	0	34393	32996	32360	
1979	0	33585	32236	32364	
1980	0	32776	32782	32364	
1981	0	33076	33463	32383	
1982	0	33584	32929	32409	
1983	0	33112	32354	32388	
1984	0	32044	32428	32396	
1985	0	31940	32920	32412	
1986	0	31536	32485	32409	
1987	0	32412	32644	32402	
1988	0	32840	32892	32405	
1989	0	33140	33168	32400	
1990	0	32600	32798	32387	
1991	0	31920	33220	32393	
1992	0	31873	32428	32412	
1993	0	32492	32676	32420	
1994	0	33000	33632	32412	
1995	0	33161	32972	32405	
1996	0	33032	31806	32410	
1997	0	33196	30753	32408	
1998	0	33380	32081	32388	
1999	0	33364	33976	32400	
2000	0	33492	34104	32380	
2001	0	33520	33408	32384	
2002	0	33164	33268	32388	
2003	0	33140	33330	32413	
2004	0	32964	33220	32436	
2005	0	31800	33042	32438	
2006	0	31920	32560	32430	
2007	0	31516	32708	32436	
2008	0	32380	32700	32424	
2009	0	32520	33152	32389	
2010	0	33456	32865	32400	
2011	0	35080	32700	32380	
2012	0	34072	32504	32356	
2013	0	32784	32549	32348	
2014	0	30069	32702	32332	
2015	0	31440	32652	32344	
2016	0	32848	32896	32360	
2017	0	33436	32612	32368	
2018	0	33738	32681	32380	
2019	0	33808	32924	32400	
2020	0	33576	33144	32407	
2021	0	32996	33286	32430	
2022	0	32492	32796	32460	
2023	0	31696	32880	32460	
2024	0	30804	32742	32452	
2025	0	30092	32556	32450	
2026	0	30544	32644	32458	
2027	0	31690	32744	32493	
2028	0	32615	32772	32488	
2029	0	33052	33484	32488	
2030	0	32784	33372	32504	
2031	0	33165	32436	32488	
2032	0	33072	32784	32488	
2033	0	32900	33113	32466	
2034	0	35220	32760	32452	
2035	0	36132	33085	32428	
2036	0	37344	33609	32455	
2037	0	35240	31922	32424	
2038	0	35052	30944	32424	
2039	0	34405	31781	32436	
2040	0	33116	32478	32441	
2041	0	32669	32790	32456	
2042	0	32057	33492	32452	
2043	0	31706	34468	32454	
2044	0	29888	34380	32441	
2045	0	29956	33639	32460	
2046	0	30993	32524	32436	
2047	0	31356	31894	32426	
2048	0	31704	31037	32424	
2049	0	31880	32632	32424	
2050	0	32148	32693	32415	
2051	0	31928	33109	32390	
2052	0	32832	33284	32388	
2053	0	32956	32744	32404	
2054	0	33408	32664	32400	
2055	0	34080	32788	32393	
2056	0	35088	32792	32415	
2057	0	32894	32740	32413	
2058	0	32612	32180	32420	
2059	0	32828	32636	32422	
2060	0	33160	33236	32404	
2061	0	33208	33134	32408	
2062	0	33160	33424	32428	
2063	0	33908	33552	32448	
2064	0	33073	33256	32458	
2065	0	31240	33088	32472	
2066	0	31580	33183	32468	
2067	0	31504	33079	32464	
2068	0	32660	33108	32454	
2069	0	33004	32541	32441	
2070	0	32436	32612	32430	
2071	0	32841	33302	32406	
2072	0	32868	33137	32397	
2073	0	32874	32200	32436	
2074	0	32556	30480	32424	
2075	0	32692	31736	32401	
2076	0	32944	33652	32414	
2077	0	33020	33712	32377	
2078	0	33068	32797	32383	
2079	0	33052	33049	32369	
2080	0	32968	33144	32384	
2081	0	32356	32876	32396	
2082	0	32568	32734	32436	
2083	0	31272	32132	32454	
2084	0	32540	32496	32468	
2085	0	33160	33048	32485	
2086	0	33236	33336	32473	
2087	0	34176	33258	32492	
2088	0	32476	33020	32468	
2089	0	32016	32856	32460	
2090	0	33832	32760	32436	
2091	0	33644	32368	32438	
2092	0	32800	32751	32428	
2093	0	32936	32652	32414	
2094	0	32800	32372	32417	
2095	0	32944	32957	32412	
2096	0	33092	32597	32417	
2097	0	33096	32382	32421	
2098	0	33096	32921	32398	
2099	0	33602	32432	32388	
2100	0	32486	32932	32348	
2101	0	32056	32780	32336	
2102	0	31504	32965	32380	
2103	0	31793	33521	32372	
2104	0	32920	33580	32388	
2105	0	33564	33528	32404	
2106	0	33500	33278	32412	
2107	0	33249	32758	32399	
2108	0	32580	32804	32381	
2109	0	31573	32640	32376	
2110	0	30521	32300	32400	
2111	0	31034	32610	32420	
2112	0	30250	32933	32424	
2113	0	30376	33225	32417	
2114	0	32268	33008	32388	
2115	0	35028	32976	32367	
2116	0	35828	33060	32366	
2117	0	36812	32821	32344	
2118	0	36792	32693	32294	
2119	0	35856	32552	32289	
2120	0	34964	32796	32252	
2121	0	32720	33093	32244	
2122	0	31222	33072	32250	
2123	0	31792	32492	32248	
2124	0	31516	32424	32250	
2125	0	30960	33412	32263	
2126	0	32788	32762	32304	
2127	0	33552	32287	32325	
2128	0	31664	32072	32324	
2129	0	31508	32434	32340	
2130	0	31108	32894	32323	
2131	0	30968	32800	32329	
2132	0	31212	32840	32348	
2133	0	32948	32414	32340	
2134	0	33656	32582	32368	
2135	0	33112	32928	32388	
2136	0	34189	33045	32392	
2137	0	33198	32800	32378	
2138	0	32828	33010	32360	
2139	0	32957	33552	32356	
2140	0	33208	33688	32356	
2141	0	33144	33633	32366	
2142	0	32842	32773	32385	
2143	0	33160	31820	32396	
2144	0	32073	32010	32397	
2145	0	32100	32568	32422	
2146	0	32661	33068	32448	
2147	0	33124	32582	32444	
2148	0	32270	32440	32448	
2149	0	32180	33156	32446	
2150	0	31608	33340	32429	
2151	0	31690	33228	32420	
2152	0	32208	32772	32412	
2153	0	33398	32982	32424	
2154	0	34224	32818	32418	
2155	0	34725	32500	32413	
2156	0	34756	32928	32389	
2157	0	34100	32792	32367	
2158	0	32912	32852	32376	
2159	0	32476	32640	32396	
2160	0	32620	32964	32413	
2161	0	32408	33053	32423	
2162	0	32632	33145	32417	
2163	0	32514	33424	32412	
2164	0	31960	33240	32452	
2165	0	30960	32720	32472	
2166	0	32214	32440	32464	
2167	0	32832	32840	32457	
2168	0	32344	32856	32444	
2169	0	32888	32680	32433	
2170	0	32532	32610	32428	
2171	0	32404	32392	32436	
2172	0	32936	32456	32427	
2173	0	33040	32637	32422	
2174	0	33185	33026	32446	
2175	0	32829	32968	32442	
2176	0	32520	33043	32422	
2177	0	32721	33014	32404	
2178	0	33360	33452	32400	
2179	0	32764	34062	32385	
2180	0	33268	33214	32396	
2181	0	34384	31928	32421	
2182	0	33260	31277	32420	
2183	0	32520	32185	32429	
2184	0	33000	33545	32454	
2185	0	33256	32685	32497	
2186	0	32789	32662	32512	
2187	0	33004	32828	32524	
2188	0	32725	32732	32528	
2189	0	32132	32860	32526	
2190	0	31584	32696	32536	
2191	0	30728	32765	32536	
2192	0	31252	33004	32512	
2193	0	31664	33360	32516	
2194	0	33672	32754	32494	
2195	0	34708	32548	32476	
2196	0	32732	32568	32465	
2197	0	32924	32700	32444	
2198	0	34112	32744	32439	
2199	0	33816	33332	32404	
2200	0	33648	33088	32392	
2201	0	33825	32844	32365	
2202	0	33192	33012	32358	
2203	0	33036	33076	32348	
2204	0	32744	32950	32348	
2205	0	32780	33260	32351	
2206	0	31666	32844	32376	
2207	0	32092	32820	32384	
2208	0	31936	32442	32356	
2209	0	31740	32950	32340	
2210	0	31898	32678	32356	
2211	0	31764	32730	32348	
2212	0	32517	32864	32344	
2213	0	32546	32263	32376	
2214	0	31229	32776	32361	
2215	0	32388	33472	32372	
2216	0	34856	32496	32365	
2217	0	34846	32392	32369	
2218	0	34224	32366	32353	
2219	0	33053	32016	32320	
2220	0	31290	32600	32334	
2221	0	31648	33324	32334	
2222	0	34156	33496	32321	
2223	0	34264	33799	32304	
2224	0	33020	33412	32332	
2225	0	33236	32674	32332	
2226	0	33384	32501	32348	
2227	0	32756	32896	32335	
2228	0	32636	32989	32341	
2229	0	33174	33033	32333	
2230	0	31568	33260	32324	
2231	0	31552	32800	32308	
2232	0	32772	32228	32274	
2233	0	32509	32892	32248	
2234	0	33309	33100	32220	
2235	0	33728	33273	32204	
2236	0	32332	32684	32192	
2237	0	32513	32742	32200	
2238	0	32740	32041	32196	
2239	0	31700	31652	32184	
2240	0	31900	32592	32212	
2241	0	33116	33218	32268	
2242	0	34208	32423	32284	
2243	0	34016	32721	32322	
2244	0	33152	32792	32320	
2245	0	33088	33073	32354	
2246	0	32320	33180	32364	
2247	0	31588	33036	32360	
2248	0	31610	33132	32333	
2249	0	31928	33173	32353	
2250	0	31412	32999	32356	
2251	0	31896	32932	32364	
2252	0	31908	32904	32368	
2253	0	34036	33196	32372	
2254	0	33668	32401	32352	
2255	0	33117	32647	32345	
2256	0	33208	32869	32341	
2257	0	33772	33286	32348	
2258	0	33984	32856	32366	
2259	0	33836	32680	32367	
2260	0	33468	32398	32372	
2261	0	32961	32910	32408	
2262	0	32580	33103	32437	
2263	0	32724	33047	32436	
2264	0	32548	32607	32448	
2265	0	32212	32750	32440	
2266	0	32008	32725	32429	
2267	0	32040	32792	32448	
2268	0	32180	32636	32462	
2269	0	32208	32972	32470	
2270	0	32568	32863	32462	
2271	0	32966	32704	32444	
2272	0	32916	32899	32445	
2273	0	32560	32949	32445	
2274	0	32496	32964	32444	
2275	0	32444	32888	32420	
2276	0	32680	32480	32408	
2277	0	33992	32560	32406	
2278	0	33672	32872	32405	
2279	0	33302	32966	32420	
2280	0	33308	32808	32416	
2281	0	33536	32781	32402	
2282	0	33848	32577	32414	
2283	0	33696	33020	32428	
2284	0	33580	33987	32421	
2285	0	31444	33545	32432	
2286	0	30692	33476	32432	
2287	0	30732	32704	32437	
2288	0	30860	32404	32433	
2289	0	31801	31985	32417	
2290	0	33240	32174	32441	
2291	0	35864	32512	32444	
2292	0	36130	32876	32434	
2293	0	34068	32912	32424	
2294	0	30812	32900	32420	
2295	0	30088	32920	32388	
2296	0	30848	33332	32380	
2297	0	32024	33073	32372	
2298	0	32514	32564	32368	
2299	0	33304	32343	32372	
2300	0	33500	32933	32384	
2301	0	34164	32552	32400	
2302	0	34616	32220	32396	
2303	0	34504	32633	32391	
2304	0	33872	32661	32401	
2305	0	33072	33255	32376	
2306	0	31706	33158	32384	
2307	0	32121	33208	32391	
2308	0	31245	34173	32380	
2309	0	32176	34460	32391	
2310	0	31740	33236	32366	
2311	0	31112	31034	32364	
2312	0	32429	28920	32376	
2313	0	34095	30625	32372	
2314	0	34244	33151	32364	
2315	0	33481	34213	32372	
2316	0	33820	33719	32372	
2317	0	32288	33468	32356	
2318	0	33181	33244	32336	
2319	0	32964	32924	32318	
2320	0	31977	32983	32296	
2321	0	33284	33221	32282	
2322	0	33453	32716	32292	
2323	0	33625	32501	32308	
2324	0	32672	32522	32328	
2325	0	31504	32572	32324	
2326	0	31844	33080	32324	
2327	0	32452	32826	32337	
2328	0	32468	33116	32340	
2329	0	32548	33354	32333	
2330	0	32716	33208	32308	
2331	0	32888	32745	32308	
2332	0	33344	33076	32308	
2333	0	33036	32729	32320	
2334	0	32260	32368	32309	
2335	0	31544	32752	32313	
2336	0	32468	32724	32296	
2337	0	33124	32976	32309	
2338	0	33424	33305	32302	
2339	0	33472	32904	32316	
2340	0	32950	32729	32315	
2341	0	33368	32813	32320	
2342	0	33314	32781	32332	
2343	0	32804	32228	32350	
2344	0	31948	32372	32360	
2345	0	31672	32448	32389	
2346	0	32748	32912	32385	
2347	0	33016	33728	32382	
2348	0	32916	33414	32381	
2349	0	32984	33256	32392	
2350	0	32952	33159	32388	
2351	0	33248	32831	32369	
2352	0	33044	32600	32344	
2353	0	32888	32566	32332	
2354	0	32800	32612	32332	
2355	0	32256	32480	32340	
2356	0	31272	33008	32333	
2357	0	31828	32741	32324	
2358	0	31680	32889	32324	
2359	0	31620	32774	32330	
2360	0	33200	32560	32312	
2361	0	34708	32696	32308	
2362	0	34552	33176	32325	
2363	0	34221	33274	32340	
2364	0	33493	32772	32388	
2365	0	33741	32574	32396	
2366	0	32440	32668	32416	
2367	0	34252	32698	32418	
2368	0	34964	33030	32429	
2369	0	32264	33044	32405	
2370	0	31812	32940	32396	
2371	0	31112	32834	32365	
2372	0	30060	32580	32360	
2373	0	31988	32772	32377	
2374	0	32936	33212	32389	
2375	0	33156	32646	32400	
2376	0	33344	32708	32412	
2377	0	33828	32929	32424	
2378	0	33100	33108	32412	
2379	0	32416	33038	32412	
2380	0	32664	32199	32382	
2381	0	33045	32337	32393	
2382	0	33088	32868	32388	
2383	0	32692	32997	32399	
2384	0	31728	32864	32412	
2385	0	32184	32645	32413	
2386	0	32632	33240	32434	
2387	0	32340	33172	32448	
2388	0	32309	33048	32428	
2389	0	32432	33064	32424	
2390	0	32428	33036	32416	
2391	0	32724	33017	32414	
2392	0	32784	32801	32388	
2393	0	32973	32650	32397	
2394	0	32941	32540	32408	
2395	0	32676	33581	32408	
2396	0	32696	33815	32407	
2397	0	33192	33065	32384	
2398	0	33480	31332	32364	
2399	0	33213	31249	32380	
2400	0	31484	32103	32344	
2401	0	32108	32629	32340	
2402	0	32906	33460	32344	
2403	0	34588	33074	32340	
2404	0	35424	33668	32356	
2405	0	34608	33076	32360	
2406	0	32884	32785	32388	
2407	0	30397	32772	32412	
2408	0	32120	32784	32410	
2409	0	32348	32192	32393	
2410	0	32444	32172	32389	
2411	0	32904	32611	32388	
2412	0	32696	33084	32372	
2413	0	32740	33020	32372	
2414	0	33012	33428	32348	
2415	0	32833	33403	32329	
2416	0	33140	33396	32312	
2417	0	33128	33212	32321	
2418	0	32424	32992	32326	
2419	0	32048	32684	32335	
2420	0	32592	32404	32336	
2421	0	33012	32284	32351	
2422	0	32728	32440	32343	
2423	0	31081	32576	32362	
2424	0	31164	32724	32365	
2425	0	31884	33260	32369	
2426	0	33180	33132	32356	
2427	0	33856	32977	32348	
2428	0	32910	32936	32325	
2429	0	33084	32934	32322	
2430	0	31600	33157	32352	
2431	0	33632	33025	32358	
2432	0	34680	32332	32353	
2433	0	35564	32268	32356	
2434	0	34428	32892	32352	
2435	0	33004	32759	32317	
2436	0	32481	32248	32284	
2437	0	32020	32736	32281	
2438	0	31732	33361	32269	
2439	0	32020	33545	32276	
2440	0	32324	32740	32253	
2441	0	33332	32324	32248	
2442	0	33322	32481	32240	
2443	0	33661	32834	32260	
2444	0	34304	33348	32281	
2445	0	34672	33224	32296	
2446	0	32580	33084	32312	
2447	0	31156	32919	32332	
2448	0	31248	32766	32316	
2449	0	30356	33188	32332	
2450	0	31673	32724	32300	
2451	0	32132	32616	32282	
2452	0	32620	32532	32288	
2453	0	32960	32657	32330	
2454	0	33348	32398	32324	
2455	0	32948	32638	32317	
2456	0	32330	33140	32329	
2457	0	33276	32724	32310	
2458	0	33090	32832	32324	
2459	0	33276	32629	32324	
2460	0	33616	32593	32324	
2461	0	33276	33031	32356	
2462	0	31794	32976	32356	
2463	0	32746	32829	32365	
2464	0	33112	32775	32386	
2465	0	32956	32840	32374	
2466	0	32120	33137	32370	
2467	0	32648	32789	32372	
2468	0	32740	32732	32376	
2469	0	33136	32748	32393	
2470	0	33249	33133	32388	
2471	0	32132	32968	32372	
2472	0	31632	33260	32350	
2473	0	32172	33001	32343	
2474	0	31944	31656	32340	
2475	0	32740	30168	32353	
2476	0	33228	31768	32368	
2477	0	33832	34260	32344	
2478	0	34108	34028	32337	
2479	0	33792	33592	32337	
2480	0	33748	33318	32324	
2481	0	33489	32680	32365	
2482	0	32852	31949	32364	
2483	0	32392	31848	32368	
2484	0	32672	32737	32358	
2485	0	32557	33318	32359	
2486	0	32368	33492	32356	
2487	0	32180	33997	32372	
2488	0	32092	33744	32400	
2489	0	32536	33596	32397	
2490	0	32676	33244	32393	
2491	0	32764	33108	32380	
2492	0	32344	32776	32392	
2493	0	32216	32336	32406	
2494	0	32100	32276	32412	
2495	0	30945	32660	32414	
2496	0	30128	32741	32396	
2497	0	32692	32580	32376	
2498	0	34652	32676	32340	
2499	0	34552	32660	32344	
2500	0	33773	32508	32364	
2501	0	34464	32636	32369	
2502	0	34576	32956	32365	
2503	0	33904	32876	32394	
2504	0	33824	32631	32396	
2505	0	33300	32797	32404	
2506	0	32458	33316	32405	
2507	0	31772	33269	32413	
2508	0	32202	33192	32390	
2509	0	32564	32932	32361	
2510	0	32424	32612	32361	
2511	0	32304	32037	32380	
2512	0	32920	31913	32372	
2513	0	33469	32177	32390	
2514	0	33388	32725	32380	
2515	0	33028	33184	32352	
2516	0	32344	33301	32353	
2517	0	31940	33112	32347	
2518	0	31916	33041	32347	
2519	0	32628	32992	32318	
2520	0	33241	32772	32325	
2521	0	33721	32882	32306	
2522	0	32828	33132	32304	
2523	0	32478	34196	32316	
2524	0	31860	33804	32322	
2525	0	31952	32078	32316	
2526	0	32440	30610	32328	
2527	0	32060	31144	32336	
2528	0	33272	32380	32313	
2529	0	33668	33013	32300	
2530	0	33134	32973	32308	
2531	0	32588	33361	32292	
2532	0	31482	33176	32287	
2533	0	32257	33014	32278	
2534	0	31424	33236	32257	
2535	0	31176	32956	32250	
2536	0	32628	32992	32244	
2537	0	32232	32695	32228	
2538	0	32703	32112	32232	
2539	0	32957	32646	32222	
2540	0	34156	32650	32232	
2541	0	35676	32752	32248	
2542	0	35296	33543	32262	
2543	0	34262	34020	32252	
2544	0	33730	33501	32244	
2545	0	33012	33152	32248	
2546	0	31956	33117	32262	
2547	0	31044	32048	32272	
2548	0	31254	32822	32272	
2549	0	32170	32765	32269	
2550	0	32748	32925	32284	
2551	0	33084	33372	32296	
2552	0	33422	33562	32296	
2553	0	32877	33134	32260	
2554	0	32280	32093	32260	
2555	0	32280	31808	32258	
2556	0	32148	32344	32257	
2557	0	32440	32597	32264	
2558	0	32892	32697	32260	
2559	0	32762	32756	32276	
2560	0	32864	32861	32276	
2561	0	32228	32988	32281	
2562	0	32098	32676	32296	
2563	0	32992	32984	32312	
2564	0	32772	33026	32312	
2565	0	33342	32644	32324	
2566	0	33736	32758	32332	
2567	0	33624	33103	32340	
2568	0	34300	33016	32337	
2569	0	34580	32924	32332	
2570	0	33940	32932	32335	
2571	0	32665	32458	32336	
2572	0	32000	32684	32332	
2573	0	31960	32632	32344	
2574	0	32208	32724	32304	
2575	0	32748	33080	32284	
2576	0	32668	33252	32270	
2577	0	32770	32932	32270	
2578	0	32460	32692	32256	
2579	0	32871	32682	32274	
2580	0	33088	32688	32276	
2581	0	32712	32844	32276	
2582	0	32580	32959	32280	
2583	0	32621	32972	32278	
2584	0	31824	32878	32296	
2585	0	32016	33440	32336	
2586	0	32636	32896	32337	
2587	0	32096	32332	32352	
2588	0	32012	32792	32345	
2589	0	32368	32538	32352	
2590	0	31760	32504	32378	
2591	0	31712	32610	32380	
2592	0	32668	32868	32376	
2593	0	33056	32660	32372	
2594	0	33804	32696	32355	
2595	0	33844	33164	32346	
2596	0	32068	32892	32344	
2597	0	32624	32754	32340	
2598	0	34422	32920	32353	
2599	0	34859	33156	32342	
2600	0	34826	32864	32337	
2601	0	34244	32760	32341	
2602	0	33320	32472	32336	
2603	0	33276	32932	32328	
2604	0	32820	33176	32326	
2605	0	33116	32775	32337	
2606	0	32613	33496	32348	
2607	0	30914	34424	32368	
2608	0	29504	33412	32385	
2609	0	30148	31720	32368	
2610	0	31644	30335	32360	
2611	0	32404	31884	32366	
2612	0	31580	33284	32356	
2613	0	33432	33222	32316	
2614	0	33862	33238	32284	
2615	0	33692	33261	32271	
2616	0	34128	32959	32244	
2617	0	33433	32882	32216	
2618	0	33894	32791	32218	
2619	0	33140	33044	32228	
2620	0	33060	33357	32235	
2621	0	33116	33368	32240	
2622	0	32578	33288	32232	
2623	0	32302	32956	32262	
2624	0	32568	32296	32289	
2625	0	34062	32340	32296	
2626	0	33252	33080	32322	
2627	0	32688	32844	32320	
2628	0	32568	33060	32318	
2629	0	30656	32815	32296	
2630	0	30581	32822	32292	
2631	0	31524	32600	32296	
2632	0	31260	32452	32284	
2633	0	31984	32482	32301	
2634	0	34156	32880	32308	
2635	0	34572	32940	32317	
2636	0	34252	33028	32332	
2637	0	34436	33332	32340	
2638	0	34476	32801	32324	
2639	0	33232	32336	32320	
2640	0	33060	32618	32340	
2641	0	33724	33044	32348	
2642	0	33054	32808	32342	
2643	0	32644	32686	32361	
2644	0	32529	32617	32342	
2645	0	32604	32808	32356	
2646	0	32024	32960	32372	
2647	0	31618	33561	32385	
2648	0	31484	33340	32364	
2649	0	32400	32692	32367	
2650	0	33154	32132	32348	
2651	0	33284	31804	32352	
2652	0	32536	32680	32342	
2653	0	31062	33068	32332	
2654	0	31044	32830	32320	
2655	0	31885	33180	32336	
2656	0	32164	33155	32316	
2657	0	32709	32350	32313	
2658	0	33832	32236	32284	
2659	0	34968	32500	32280	
2660	0	35008	32708	32272	
2661	0	34518	32669	32271	
2662	0	33236	33296	32254	
2663	0	32271	33680	32292	
2664	0	32108	33537	32312	
2665	0	32872	33348	32303	
2666	0	33424	32935	32308	
2667	0	33060	32797	32328	
2668	0	32524	32724	32322	
2669	0	32550	32781	32320	
2670	0	32312	32905	32329	
2671	0	32525	32680	32334	
2672	0	32972	32368	32305	
2673	0	31996	32694	32300	
2674	0	32654	32582	32295	
2675	0	32528	33383	32288	
2676	0	30736	33804	32292	
2677	0	32020	32856	32292	
2678	0	32784	31184	32266	
2679	0	33280	30512	32278	
2680	0	33268	31980	32296	
2681	0	33344	33505	32320	
2682	0	33276	33888	32324	
2683	0	33992	33583	32324	
2684	0	33096	33740	32340	
2685	0	32821	33204	32328	
2686	0	32332	33072	32336	
2687	0	32384	33172	32357	
2688	0	32772	32620	32367	
2689	0	32488	31984	32378	
2690	0	32474	32096	32368	
2691	0	32842	32892	32353	
2692	0	32796	33636	32364	
2693	0	32692	33134	32356	
2694	0	32796	32752	32368	
2695	0	32296	33024	32369	
2696	0	32324	33356	32398	
2697	0	31378	33281	32408	
2698	0	30648	32894	32390	
2699	0	32792	32969	32385	
2700	0	34692	32768	32385	
2701	0	34204	32396	32392	
2702	0	34044	32448	32404	
2703	0	34112	32704	32398	
2704	0	33688	32652	32414	
2705	0	32740	32672	32420	
2706	0	32036	33037	32429	
2707	0	32164	32832	32428	
2708	0	32996	32576	32420	
2709	0	33980	32662	32423	
2710	0	33112	32637	32422	
2711	0	32125	32793	32433	
2712	0	31676	32452	32416	
2713	0	32116	33100	32420	
2714	0	32912	33185	32404	
2715	0	33192	32758	32398	
2716	0	32912	32450	32380	
2717	0	32440	32481	32376	
2718	0	33396	32690	32364	
2719	0	34004	32420	32336	
2720	0	33665	33514	32320	
2721	0	32860	33604	32312	
2722	0	31645	33520	32337	
2723	0	32238	33517	32340	
2724	0	32309	33124	32372	
2725	0	31996	33325	32366	
2726	0	32700	33273	32396	
2727	0	33484	32882	32374	
2728	0	32704	32004	32372	
2729	0	32124	31944	32377	
2730	0	32405	32032	32352	
2731	0	32114	32656	32332	
2732	0	32871	32612	32316	
2733	0	33548	33040	32326	
2734	0	33028	34232	32296	
2735	0	31676	33557	32277	
2736	0	33632	31144	32296	
2737	0	34736	29617	32287	
2738	0	34113	30733	32276	
2739	0	32468	32568	32284	
2740	0	29824	33122	32308	
2741	0	30764	33956	32316	
2742	0	32540	34045	32306	
2743	0	33188	33717	32312	
2744	0	33364	33380	32309	
2745	0	33812	33676	32310	
2746	0	33757	33822	32308	
2747	0	34340	33460	32308	
2748	0	34191	33020	32325	
2749	0	33520	32578	32324	
2750	0	30640	32501	32320	
2751	0	30540	32809	32305	
2752	0	30228	33132	32320	
2753	0	33524	33068	32316	
2754	0	33890	32240	32316	
2755	0	32818	32408	32304	
2756	0	31181	32656	32299	
2757	0	31221	32552	32288	
2758	0	32644	32720	32278	
2759	0	34958	32796	32274	
2760	0	35040	32964	32293	
2761	0	34388	32833	32296	
2762	0	34168	32720	32305	
2763	0	34192	32586	32308	
2764	0	32174	32756	32301	
2765	0	31876	33228	32318	
2766	0	31584	33504	32332	
2767	0	31728	33464	32348	
2768	0	32682	32960	32335	
2769	0	33012	32636	32340	
2770	0	33164	32570	32348	
2771	0	32852	32472	32332	
2772	0	32716	32906	32332	
2773	0	32753	32680	32320	
2774	0	32588	32653	32306	
2775	0	32184	32785	32302	
2776	0	31920	32736	32279	
2777	0	32248	32983	32272	
2778	0	32856	32286	32276	
2779	0	32841	32760	32268	
2780	0	33356	33408	32292	
2781	0	34260	33196	32288	
2782	0	33740	33072	32306	
2783	0	33284	32944	32300	
2784	0	32578	33064	32311	
2785	0	32109	33100	32332	
2786	0	32020	32976	32345	
2787	0	32260	32920	32352	
2788	0	32365	32704	32352	
2789	0	31324	32848	32357	
2790	0	32164	32800	32343	
2791	0	31788	32889	32328	
2792	0	33058	32860	32312	
2793	0	33668	33225	32300	
2794	0	33256	32476	32281	
2795	0	32568	32390	32292	
2796	0	32480	32674	32287	
2797	0	32496	32586	32280	
2798	0	32852	32692	32289	
2799	0	34264	33078	32273	
2800	0	34176	33202	32281	
2801	0	33872	33066	32308	
2802	0	33470	32904	32321	
2803	0	33316	33135	32336	
2804	0	32948	33197	32328	
2805	0	32706	32644	32340	
2806	0	32096	32594	32324	
2807	0	31964	32676	32356	
2808	0	32168	32934	32352	
2809	0	32680	32706	32329	
2810	0	32852	32528	32340	
2811	0	32276	32514	32337	
2812	0	32544	32876	32316	
2813	0	31572	32584	32328	
2814	0	31532	32484	32316	
2815	0	32640	33316	32297	
2816	0	32432	34760	32276	
2817	0	32468	33948	32240	
2818	0	33256	31814	32232	
2819	0	34144	30145	32228	
2820	0	33397	31288	32218	
2821	0	33168	33078	32212	
2822	0	33760	33460	32216	
2823	0	34164	33024	32238	
2824	0	33488	32741	32244	
2825	0	32948	32996	32256	
2826	0	32516	33397	32256	
2827	0	32000	33004	32266	
2828	0	31648	33081	32254	
2829	0	31064	33188	32261	
2830	0	31468	33031	32260	
2831	0	32580	32982	32252	
2832	0	32828	33232	32252	
2833	0	32576	32713	32252	
2834	0	32160	32624	32263	
2835	0	31601	32824	32266	
2836	0	31710	33103	32276	
2837	0	32280	32516	32249	
2838	0	34672	32424	32248	
2839	0	34964	32505	32229	
2840	0	34664	32725	32232	
2841	0	34716	32964	32236	
2842	0	33717	32937	32228	
2843	0	34124	32820	32229	
2844	0	35152	32454	32228	
2845	0	34105	33364	32260	
2846	0	33144	33356	32260	
2847	0	30986	33024	32260	
2848	0	31473	32965	32246	
2849	0	31368	32635	32240	
2850	0	29656	32566	32253	
2851	0	29768	32860	32246	
2852	0	31562	32730	32279	
2853	0	32700	32647	32274	
2854	0	33040	32274	32268	
2855	0	33733	33136	32284	
2856	0	34924	33071	32296	
2857	0	33760	32900	32272	
2858	0	33736	32702	32261	
2859	0	33652	32352	32258	
2860	0	32740	32870	32252	
2861	0	31002	32865	32245	
2862	0	31000	32841	32270	
2863	0	31700	32868	32274	
2864	0	32504	32916	32310	
2865	0	33276	32620	32304	
2866	0	33414	32794	32308	
2867	0	33361	32632	32301	
2868	0	33372	32648	32310	
2869	0	33033	32940	32309	
2870	0	32480	32940	32316	
2871	0	32340	33060	32308	
2872	0	32668	32720	32280	
2873	0	32888	32784	32276	
2874	0	32900	32876	32260	
2875	0	32976	33006	32277	
2876	0	33316	33080	32268	
2877	0	32902	32980	32253	
2878	0	32688	32515	32256	
2879	0	32944	32700	32268	
2880	0	33048	33462	32276	
2881	0	33344	32623	32276	
2882	0	33220	32308	32289	
2883	0	33056	32511	32309	
2884	0	32560	32984	32336	
2885	0	32352	33164	32350	
2886	0	32224	33246	32369	
2887	0	32312	33318	32372	
2888	0	32549	33228	32378	
2889	0	32544	33105	32344	
2890	0	32689	33224	32358	
2891	0	32068	32884	32370	
2892	0	32402	32649	32364	
2893	0	33340	32637	32376	
2894	0	33135	32464	32360	
2895	0	32884	32382	32365	
2896	0	32797	32334	32358	
2897	0	32920	32480	32341	
2898	0	33304	33080	32330	
2899	0	33456	33302	32328	
2900	0	32774	33125	32328	
2901	0	33113	32552	32308	
2902	0	33544	32199	32301	
2903	0	33928	32894	32318	
2904	0	32828	32644	32332	
2905	0	31760	32808	32336	
2906	0	31096	32960	32356	
2907	0	31436	33080	32374	
2908	0	31844	32912	32386	
2909	0	33808	32711	32388	
2910	0	33324	32591	32373	
2911	0	33124	33476	32353	
2912	0	32089	33936	32330	
2913	0	31592	32697	32336	
2914	0	32821	31040	32329	
2915	0	33250	30849	32324	
2916	0	33682	33120	32304	
2917	0	32498	34054	32304	
2918	0	33729	33272	32288	
2919	0	33716	32614	32268	
2920	0	33309	32884	32262	
2921	0	33072	32624	32239	
2922	0	32376	33220	32236	
2923	0	30793	33552	32232	
2924	0	30168	33060	32240	
2925	0	31821	32682	32244	
2926	0	33224	33220	32244	
2927	0	33232	32925	32240	
2928	0	34848	32676	32236	
2929	0	35302	32604	32260	
2930	0	34120	32656	32268	
2931	0	32768	32392	32242	
2932	0	32944	32366	32229	
2933	0	32616	32477	32236	
2934	0	32716	32312	32228	
2935	0	33077	32792	32212	
2936	0	33457	32952	32224	
2937	0	32940	32808	32196	
2938	0	32071	33012	32183	
2939	0	31688	32892	32194	
2940	0	32036	32670	32176	
2941	0	32060	33260	32174	
2942	0	32280	33616	32196	
2943	0	32356	33204	32212	
2944	0	33244	33330	32229	
2945	0	34389	33264	32230	
2946	0	35701	32586	32228	
2947	0	34724	32537	32244	
2948	0	31980	32754	32240	
2949	0	29468	32878	32232	
2950	0	30626	32714	32240	
2951	0	32108	33000	32256	
2952	0	30546	32885	32254	
2953	0	31812	33196	32240	
2954	0	33632	33104	32257	
2955	0	34084	32788	32272	
2956	0	33736	33062	32320	
2957	0	33136	32868	32352	
2958	0	32228	32493	32338	
2959	0	33064	32081	32324	
2960	0	33124	32101	32317	
2961	0	33072	33064	32319	
2962	0	33048	33228	32308	
2963	0	33298	32576	32316	
2964	0	33068	32548	32284	
2965	0	32677	32774	32290	
2966	0	32420	32941	32300	
2967	0	32192	32656	32316	
2968	0	32080	32426	32328	
2969	0	32289	32516	32337	
2970	0	32636	32632	32301	
2971	0	33168	32649	32301	
2972	0	32880	33676	32272	
2973	0	32776	33926	32265	
2974	0	33184	32471	32248	
2975	0	33084	31353	32238	
2976	0	32768	31820	32248	
2977	0	32758	33400	32254	
2978	0	33140	33453	32266	
2979	0	33321	33737	32256	
2980	0	33352	33390	32252	
2981	0	33336	32743	32287	
2982	0	32772	31869	32288	
2983	0	32165	31800	32292	
2984	0	32408	32794	32301	
2985	0	32796	33124	32314	
2986	0	32813	33236	32316	
2987	0	32564	33268	32327	
2988	0	32748	33330	32324	
2989	0	32125	33053	32301	
2990	0	32528	32656	32292	
2991	0	32860	32772	32307	
2992	0	32872	32700	32292	
2993	0	32768	32608	32273	
2994	0	32304	32652	32261	
2995	0	32224	33140	32252	
2996	0	32548	33324	32241	
2997	0	32512	33198	32220	
2998	0	33840	32740	32216	
2999	0	34360	32270	32212	
3000	0	33860	32500	32214	
3001	0	33269	32893	32214	
3002	0	32698	32781	32246	
3003	0	32712	32950	32269	
3004	0	33176	33177	32272	
3005	0	32216	33040	32276	
3006	0	31429	33124	32290	
3007	0	31804	32846	32292	
3008	0	32308	32936	32293	
3009	0	34212	32800	32288	
3010	0	33824	32912	32278	
3011	0	32116	32768	32276	
3012	0	32095	32931	32281	
3013	0	31649	32500	32288	
3014	0	30998	32568	32276	
3015	0	31341	32457	32266	
3016	0	31600	32728	32243	
3017	0	33804	32750	32252	
3018	0	34893	32876	32232	
3019	0	35856	32956	32232	
3020	0	34476	32775	32214	
3021	0	34044	33008	32201	
3022	0	33156	33066	32222	
3023	0	32664	32860	32223	
3024	0	33896	32688	32216	
3025	0	34084	32776	32238	
3026	0	33464	32985	32249	
3027	0	31824	32902	32264	
3028	0	28956	32741	32260	
3029	0	30081	32791	32276	
3030	0	30048	32743	32260	
3031	0	31969	32848	32248	
3032	0	33084	32659	32258	
3033	0	33468	32657	32272	
3034	0	34080	32806	32242	
3035	0	33516	32936	32247	
3036	0	33080	33168	32248	
3037	0	32928	33380	32252	
3038	0	32116	33056	32245	
3039	0	32484	32900	32236	
3040	0	32648	32725	32234	
3041	0	32804	32684	32233	
3042	0	34240	32865	32233	
3043	0	34473	32836	32244	
3044	0	33948	32534	32272	
3045	0	33452	32921	32284	
3046	0	32164	32592	32293	
3047	0	29984	32838	32312	
3048	0	30669	33108	32316	
3049	0	31120	32720	32290	
3050	0	31868	32984	32284	
3051	0	32760	33261	32289	
3052	0	33778	32508	32288	
3053	0	34212	32273	32268	
3054	0	34240	32516	32268	
3055	0	33505	32980	32245	
3056	0	33414	33998	32228	
3057	0	33604	33629	32216	
3058	0	33069	32884	32220	
3059	0	32944	31101	32216	
3060	0	33232	30796	32191	
3061	0	32964	32528	32201	
3062	0	32976	33260	32212	
3063	0	32845	33324	32229	
3064	0	32701	33501	32216	
3065	0	32604	32993	32228	
3066	0	32369	32968	32246	
3067	0	32297	32280	32242	
3068	0	32156	32180	32249	
3069	0	31740	32660	32256	
3070	0	32060	32657	32256	
3071	0	31948	32666	32272	
3072	0	32540	32826	32265	
3073	0	33153	32992	32272	
3074	0	33344	33316	32263	
3075	0	32932	32645	32268	
3076	0	32704	32313	32236	
3077	0	32624	32950	32224	
3078	0	32720	32936	32216	
3079	0	33117	33520	32200	
3080	0	33253	33461	32196	
3081	0	32204	32898	32184	
3082	0	32360	32769	32198	
3083	0	33276	32686	32201	
3084	0	33320	33031	32232	
3085	0	33972	33400	32263	
3086	0	34226	33104	32272	
3087	0	33432	32826	32292	
3088	0	32820	32650	32292	
3089	0	32346	32593	32308	
3090	0	31583	32856	32320	
3091	0	31340	32828	32320	
3092	0	32064	32646	32324	
3093	0	32577	32881	32325	
3094	0	32684	32632	32302	
3095	0	32964	32156	32300	
3096	0	32945	31686	32317	
3097	0	32673	31740	32308	
3098	0	32620	32292	32288	
3099	0	32976	33302	32293	
3100	0	33196	34330	32276	
3101	0	33192	34197	32276	
3102	0	32878	33444	32285	
3103	0	32952	31568	32280	
3104	0	32125	31614	32292	
3105	0	31952	33428	32284	
3106	0	33988	33545	32310	
3107	0	34088	32684	32304	
3108	0	32688	32704	32308	
3109	0	32656	32944	32288	
3110	0	33017	32853	32268	
3111	0	33784	32824	32263	
3112	0	32192	32664	32244	
3113	0	30632	32586	32252	
3114	0	31132	32728	32253	
3115	0	32198	32876	32264	
3116	0	32652	33112	32252	
3117	0	33160	32988	32250	
3118	0	34828	32869	32252	
3119	0	34628	33036	32252	
3120	0	34196	32868	32249	
3121	0	34524	32996	32244	
3122	0	32832	32828	32244	
3123	0	31564	32664	32244	
3124	0	30668	32884	32253	
3125	0	29986	32824	32257	
3126	0	32388	32976	32272	
3127	0	33082	32903	32285	
3128	0	33167	32916	32281	
3129	0	33416	32738	32290	
3130	0	33558	32741	32276	
3131	0	33824	33036	32269	
3132	0	33024	32780	32269	
3133	0	32216	32192	32280	
3134	0	32580	32302	32261	
3135	0	33417	32530	32260	
3136	0	33436	32918	32240	
3137	0	32868	33113	32220	
3138	0	32696	32748	32213	
3139	0	32572	32672	32208	
3140	0	32320	32749	32200	
3141	0	32660	32817	32200	
3142	0	32760	33056	32193	
3143	0	32637	32793	32208	
3144	0	32692	32764	32204	
3145	0	32637	33252	32228	
3146	0	31872	33124	32242	
3147	0	31516	33384	32269	
3148	0	32066	33174	32258	
3149	0	32660	32792	32256	
3150	0	33184	31894	32256	
3151	0	33232	31660	32266	
3152	0	33224	32681	32268	
3153	0	33092	32813	32278	
3154	0	32804	32973	32278	
3155	0	33300	32926	32274	
3156	0	33328	32737	32284	
3157	0	33436	32864	32276	
3158	0	33782	33036	32289	
3159	0	33560	33204	32272	
3160	0	33101	32844	32276	
3161	0	32376	32564	32272	
3162	0	31788	32465	32276	
3163	0	32304	32356	32292	
3164	0	32612	32808	32274	
3165	0	32392	33604	32300	
3166	0	31833	34038	32308	
3167	0	32952	33624	32328	
3168	0	33336	32872	32312	
3169	0	33049	32263	32292	
3170	0	32957	32397	32288	
3171	0	32385	32460	32308	
3172	0	32093	32776	32287	
3173	0	32592	32984	32295	
3174	0	33485	32896	32288	
3175	0	33124	32836	32285	
3176	0	32380	33080	32308	
3177	0	31920	32669	32292	
3178	0	32280	32628	32257	
3179	0	33872	32804	32244	
3180	0	33972	32412	32242	
3181	0	33360	33500	32237	
3182	0	32801	33224	32240	
3183	0	32944	32216	32252	
3184	0	32936	30940	32276	
3185	0	31784	31906	32280	
3186	0	32224	33719	32276	
3187	0	31621	33652	32292	
3188	0	32592	33596	32292	
3189	0	33370	33414	32310	
3190	0	32653	33020	32282	
3191	0	31724	32888	32352	
3192	0	32024	32729	32092	
3193	0	32420	32688	32168	
3194	0	32721	32780	32316	
3195	0	33976	32693	32336	
3196	0	33760	32516	32294	
3197	0	33829	32796	32216	
3198	0	34156	32853	32222	
3199	0	33982	32372	32194	
3200	0	32530	32496	32180	
3201	0	31748	33064	32174	
3202	0	31584	32908	32168	
3203	0	31808	32892	32188	
3204	0	32652	32775	32212	
3205	0	34180	32696	32220	
3206	0	34372	33016	32221	
3207	0	33208	32966	32230	
3208	0	32320	32836	32240	
3209	0	32238	32944	32217	
3210	0	32192	33229	32196	
3211	0	32018	32625	32188	
3212	0	32244	32617	32180	
3213	0	32852	32836	32172	
3214	0	33132	32780	32168	
3215	0	33674	32516	32172	
3216	0	33048	32512	32176	
3217	0	31420	32972	32159	
3218	0	30618	32740	32156	
3219	0	32452	32832	32144	
3220	0	34412	33321	32160	
3221	0	34028	33154	32151	
3222	0	33984	32680	32181	
3223	0	33512	32017	32196	
3224	0	32941	32117	32226	
3225	0	32620	32584	32216	
3226	0	32212	32884	32205	
3227	0	31828	32932	32225	
3228	0	31648	32728	32229	
3229	0	32204	33324	32221	
3230	0	32668	33432	32232	
3231	0	32748	32987	32224	
3232	0	32452	32790	32220	
3233	0	32644	32044	32216	
3234	0	32385	32362	32201	
3235	0	33408	32636	32208	
3236	0	33672	32974	32196	
3237	0	33376	33528	32168	
3238	0	33008	33154	32144	
3239	0	32940	33149	32140	
3240	0	33261	33012	32161	
3241	0	33100	32560	32170	
3242	0	32444	32562	32188	
3243	0	32348	32556	32188	
3244	0	32832	32756	32224	
3245	0	32984	33160	32238	
3246	0	33630	32572	32287	
3247	0	33576	32503	32281	
3248	0	33208	32537	32278	
3249	0	32737	32912	32286	
3250	0	31940	33504	32272	
3251	0	30620	33480	32272	
3252	0	31560	32038	32248	
3253	0	31636	30436	32240	
3254	0	32857	31505	32237	
3255	0	34376	33048	32239	
3256	0	33840	33348	32234	
3257	0	33580	33404	32217	
3258	0	32916	33744	32220	
3259	0	32252	33576	32224	
3260	0	31632	33456	32212	
3261	0	31024	33337	32209	
3262	0	32202	33164	32214	
3263	0	34036	32844	32204	
3264	0	34888	33049	32208	
3265	0	34340	32781	32216	
3266	0	33952	32465	32204	
3267	0	33940	32690	32216	
3268	0	33576	32968	32217	
3269	0	31768	33176	32228	
3270	0	30768	32736	32216	
3271	0	31872	32669	32220	
3272	0	32680	32468	32212	
3273	0	32109	31964	32197	
3274	0	32396	32336	32224	
3275	0	33012	32588	32224	
3276	0	33288	32713	32222	
3277	0	33372	32489	32216	
3278	0	32892	32320	32192	
3279	0	32792	33308	32188	
3280	0	32910	33676	32201	
3281	0	32772	33252	32194	
3282	0	32724	32455	32204	
3283	0	32948	32647	32236	
3284	0	33550	32716	32242	
3285	0	33580	32188	32255	
3286	0	32824	31936	32264	
3287	0	31377	32644	32284	
3288	0	30144	34048	32284	
3289	0	31120	33654	32284	
3290	0	32768	33452	32276	
3291	0	33316	32984	32263	
3292	0	33328	33348	32250	
3293	0	33052	32775	32228	
3294	0	32826	32502	32206	
3295	0	31976	32682	32212	
3296	0	32624	32840	32204	
3297	0	33412	32576	32205	
3298	0	34188	32741	32198	
3299	0	34380	32580	32189	
3300	0	34252	32792	32192	
3301	0	33948	32636	32192	
3302	0	32770	32805	32200	
3303	0	32204	32837	32218	
3304	0	31796	32953	32212	
3305	0	32102	33093	32225	
3306	0	32225	32896	32222	
3307	0	32161	32718	32232	
3308	0	31740	33030	32236	
3309	0	32085	32893	32241	
3310	0	32208	33304	32228	
3311	0	32716	33686	32224	
3312	0	33409	32780	32228	
3313	0	33148	30526	32212	
3314	0	33224	30778	32212	
3315	0	33680	32612	32213	
3316	0	33572	33708	32220	
3317	0	32612	33564	32206	
3318	0	32100	33188	32189	
3319	0	32056	33184	32165	
3320	0	32428	33012	32181	
3321	0	32728	32677	32206	
3322	0	32820	33064	32228	
3323	0	33228	32917	32240	
3324	0	33360	32853	32268	
3325	0	34068	32748	32273	
3326	0	33830	32982	32284	
3327	0	33272	33196	32282	
3328	0	31920	32832	32256	
3329	0	31512	32417	32255	
3330	0	31756	32788	32244	
3331	0	32633	32831	32248	
3332	0	33272	33228	32248	
3333	0	32952	33256	32254	
3334	0	33229	32596	32216	
3335	0	33132	31952	32225	
3336	0	32477	32476	32209	
3337	0	32924	32700	32188	
3338	0	33032	32504	32197	
3339	0	32164	32484	32200	
3340	0	31882	32886	32213	
3341	0	31892	33470	32206	
3342	0	32248	33429	32228	
3343	0	33324	33104	32209	
3344	0	33936	33074	32218	
3345	0	34666	33108	32252	
3346	0	33876	33040	32256	
3347	0	32552	32700	32264	
3348	0	32001	32463	32262	
3349	0	31301	32804	32244	
3350	0	31296	33148	32263	
3351	0	32340	32860	32268	
3352	0	32260	32816	32255	
3353	0	33080	32880	32246	
3354	0	33448	32654	32232	
3355	0	32828	32607	32208	
3356	0	32653	32708	32212	
3357	0	34024	32584	32190	
3358	0	34332	32623	32180	
3359	0	34238	32916	32180	
3360	0	33700	32713	32189	
3361	0	33144	33012	32188	
3362	0	32856	33022	32184	
3363	0	32633	32824	32192	
3364	0	32385	32848	32212	
3365	0	32136	32711	32236	
3366	0	32052	33005	32236	
3367	0	32350	32836	32257	
3368	0	32225	33092	32232	
3369	0	31894	33276	32220	
3370	0	31844	32922	32228	
3371	0	31788	32910	32208	
3372	0	31932	32783	32215	
3373	0	31712	32472	32214	
3374	0	32556	32411	32206	
3375	0	33156	32593	32222	
3376	0	33996	32712	32182	
3377	0	34218	32768	32204	
3378	0	34148	32436	32182	
3379	0	34132	32801	32165	
3380	0	33504	33060	32188	
3381	0	33052	33361	32176	
3382	0	32164	32972	32198	
3383	0	31988	32908	32213	
3384	0	32458	33018	32209	
3385	0	32548	32885	32228	
3386	0	32284	32960	32245	
3387	0	32180	32680	32240	
3388	0	32276	32868	32263	
3389	0	32744	33284	32288	
3390	0	32864	34022	32277	
3391	0	32480	33848	32252	
3392	0	32160	32738	32242	
3393	0	32353	31005	32214	
3394	0	32980	31006	32205	
3395	0	33814	32040	32220	
3396	0	34116	32980	32224	
3397	0	33924	32752	32204	
3398	0	33188	32946	32208	
3399	0	32145	32936	32216	
3400	0	31968	32904	32220	
3401	0	32272	32824	32222	
3402	0	32804	32932	32220	
3403	0	32800	33338	32203	
3404	0	32760	32540	32213	
3405	0	32656	32038	32218	
3406	0	33165	32028	32244	
3407	0	32764	32569	32276	
3408	0	32513	33460	32312	
3409	0	33092	33132	32315	
3410	0	32868	33073	32292	
3411	0	32917	33764	32304	
3412	0	32824	33776	32290	
3413	0	31900	33316	32266	
3414	0	32144	33237	32220	
3415	0	31944	32910	32200	
3416	0	32624	32897	32204	
3417	0	33272	32904	32196	
3418	0	33894	32448	32197	
3419	0	34013	32714	32204	
3420	0	33668	33116	32224	
3421	0	33220	31965	32235	
3422	0	32692	32460	32224	
3423	0	33084	32765	32246	
3424	0	33012	32749	32242	
3425	0	33013	32933	32240	
3426	0	32804	33164	32248	
3427	0	32258	33220	32254	
3428	0	31252	33196	32242	
3429	0	32516	32929	32236	
3430	0	33031	32718	32226	
3431	0	32388	32349	32209	
3432	0	31900	32796	32199	
3433	0	30608	32772	32204	
3434	0	30452	32542	32192	
3435	0	32032	32576	32172	
3436	0	33008	32904	32172	
3437	0	34120	33173	32156	
3438	0	34590	33044	32152	
3439	0	35180	32687	32165	
3440	0	35296	32641	32154	
3441	0	34600	32780	32150	
3442	0	33444	32636	32160	
3443	0	31396	32908	32174	
3444	0	31300	32740	32179	
3445	0	32116	32824	32188	
3446	0	32944	33172	32207	
3447	0	33128	33160	32225	
3448	0	32928	32916	32232	
3449	0	32273	32584	32216	
3450	0	31684	32548	32197	
3451	0	32568	32238	32194	
3452	0	32452	32072	32180	
3453	0	32032	32400	32164	
3454	0	32436	33178	32196	
3455	0	32932	33382	32172	
3456	0	32192	33576	32164	
3457	0	32500	33185	32165	
3458	0	33389	32960	32161	
3459	0	33137	33136	32176	
3460	0	32908	33028	32180	
3461	0	32668	32632	32184	
3462	0	32708	32681	32208	
3463	0	33445	32688	32208	
3464	0	33840	32757	32189	
3465	0	33464	32849	32196	
3466	0	32648	32920	32207	
3467	0	32908	32880	32212	
3468	0	32472	33104	32220	
3469	0	32172	32936	32196	
3470	0	32068	33660	32188	
3471	0	31944	33240	32177	
3472	0	33228	32384	32176	
3473	0	32861	30952	32172	
3474	0	32892	31291	32172	
3475	0	32576	32670	32141	
3476	0	32361	32348	32172	
3477	0	33700	32880	32168	
3478	0	34000	33588	32145	
3479	0	33060	33904	32125	
3480	0	33120	32928	32113	
3481	0	33407	32336	32129	
3482	0	32804	32828	32133	
3483	0	32948	33276	32133	
3484	0	32644	33292	32164	
3485	0	32168	32974	32188	
3486	0	32229	32976	32167	
3487	0	32176	32712	32158	
3488	0	32274	32605	32174	
3489	0	32448	32869	32196	
3490	0	32748	32652	32164	
3491	0	33352	32596	32173	
3492	0	32800	32935	32140	
3493	0	31916	32252	32133	
3494	0	31104	31716	32132	
3495	0	32037	32496	32146	
3496	0	33472	33342	32170	
3497	0	33909	33582	32169	
3498	0	33840	33622	32145	
3499	0	33684	33450	32152	
3500	0	33560	32944	32160	
3501	0	33120	33040	32180	
3502	0	33011	32984	32206	
3503	0	32708	33260	32228	
3504	0	32740	33105	32238	
3505	0	32524	32982	32231	
3506	0	32380	32658	32249	
3507	0	32336	32568	32263	
3508	0	32205	32676	32229	
3509	0	32356	32652	32232	
3510	0	32400	32731	32236	
3511	0	32356	32135	32239	
3512	0	32928	32544	32255	
3513	0	33133	32902	32248	
3514	0	32874	32980	32244	
3515	0	32624	32916	32233	
3516	0	31992	32664	32233	
3517	0	31884	32835	32240	
3518	0	32620	32630	32216	
3519	0	33532	32742	32208	
3520	0	33841	32592	32196	
3521	0	33860	32572	32209	
3522	0	32960	32884	32239	
3523	0	32741	33942	32221	
3524	0	33104	33064	32216	
3525	0	32888	32728	32226	
3526	0	32464	32570	32232	
3527	0	31770	32596	32228	
3528	0	32164	32174	32232	
3529	0	33252	32038	32222	
3530	0	33182	32904	32220	
3531	0	34168	33492	32218	
3532	0	33774	33398	32198	
3533	0	31716	32790	32212	
3534	0	31752	32964	32229	
3535	0	32158	33884	32222	
3536	0	33196	34249	32236	
3537	0	33440	33287	32244	
3538	0	33469	31086	32236	
3539	0	34028	30966	32208	
3540	0	32372	32474	32184	
3541	0	32240	32836	32176	
3542	0	32660	33018	32178	
3543	0	33073	33456	32156	
3544	0	32000	33416	32174	
3545	0	31928	32744	32200	
3546	0	32332	32664	32196	
3547	0	32813	32558	32196	
3548	0	33066	32558	32198	
3549	0	33304	32972	32200	
3550	0	34104	32959	32184	
3551	0	32672	32426	32156	
3552	0	32519	32526	32127	
3553	0	32480	32984	32116	
3554	0	32616	33160	32112	
3555	0	32822	32956	32112	
3556	0	32748	33060	32116	
3557	0	32592	32768	32107	
3558	0	32600	32663	32113	
3559	0	32684	32716	32138	
3560	0	33036	32712	32142	
3561	0	33350	32960	32101	
3562	0	33200	32964	32116	
3563	0	33304	32936	32105	
3564	0	32316	33004	32129	
3565	0	32238	32908	32136	
3566	0	32876	32872	32158	
3567	0	32672	33111	32186	
3568	0	32388	32848	32187	
3569	0	32192	32688	32191	
3570	0	32308	32631	32204	
3571	0	32376	32972	32192	
3572	0	32433	32752	32215	
3573	0	32500	32502	32200	
3574	0	32756	32935	32183	
3575	0	33284	32912	32169	
3576	0	33768	32729	32164	
3577	0	33380	32800	32161	
3578	0	32712	33040	32164	
3579	0	33020	32864	32156	
3580	0	33052	32852	32148	
3581	0	32804	32764	32140	
3582	0	33252	32928	32132	
3583	0	33032	33089	32152	
3584	0	33012	33080	32175	
3585	0	32790	33129	32204	
3586	0	32182	33433	32197	
3587	0	32272	33406	32188	
3588	0	32300	32631	32197	
3589	0	32408	32068	32198	
3590	0	32325	31721	32204	
3591	0	32380	32616	32184	
3592	0	32534	33032	32181	
3593	0	32668	33068	32184	
3594	0	32660	32708	32178	
3595	0	32697	32635	32145	
3596	0	32768	32974	32155	
3597	0	33316	32775	32152	
3598	0	33868	32806	32142	
3599	0	32680	33060	32120	
3600	0	32860	33174	32134	
3601	0	33776	33120	32153	
3602	0	33350	33089	32168	
3603	0	32656	33069	32180	
3604	0	32660	32901	32167	
3605	0	32676	32724	32196	
3606	0	32336	32895	32202	
3607	0	32584	32620	32244	
3608	0	32684	32410	32241	
3609	0	31736	32368	32224	
3610	0	32260	32584	32232	
3611	0	32400	32960	32253	
3612	0	31570	33324	32244	
3613	0	33044	32896	32236	
3614	0	33912	32919	32206	
3615	0	34028	32974	32156	
3616	0	34764	32804	32156	
3617	0	33980	32236	32156	
3618	0	32644	32532	32132	
3619	0	32828	32880	32092	
3620	0	33172	32892	32096	
3621	0	33132	33128	32100	
3622	0	32628	32736	32135	
3623	0	32872	32912	32120	
3624	0	32488	33244	32125	
3625	0	32000	32761	32146	
3626	0	32621	32897	32140	
3627	0	31172	33088	32168	
3628	0	30264	32774	32192	
3629	0	30572	33220	32182	
3630	0	31192	32484	32149	
3631	0	33240	32512	32152	
3632	0	34352	32766	32138	
3633	0	34988	32673	32133	
3634	0	35188	32612	32133	
3635	0	34268	32584	32101	
3636	0	33708	32912	32103	
3637	0	32960	32948	32108	
3638	0	32656	32783	32112	
3639	0	32716	32857	32104	
3640	0	32676	33285	32105	
3641	0	32832	33436	32116	
3642	0	32118	33001	32136	
3643	0	32290	32808	32148	
3644	0	32400	32773	32190	
3645	0	32712	32772	32182	
3646	0	33028	32949	32200	
3647	0	32820	32897	32220	
3648	0	32085	32625	32232	
3649	0	31992	32512	32224	
3650	0	32028	32356	32216	
3651	0	31456	32376	32224	
3652	0	32118	32685	32216	
3653	0	33108	32556	32208	
3654	0	33672	32632	32180	
3655	0	34236	32919	32148	
3656	0	34086	33420	32154	
3657	0	32932	33700	32136	
3658	0	31788	33324	32139	
3659	0	31708	32968	32141	
3660	0	32812	33338	32141	
3661	0	33824	32573	32152	
3662	0	33604	32262	32129	
3663	0	33232	32427	32160	
3664	0	32876	32892	32192	
3665	0	32476	32844	32196	
3666	0	32524	32774	32200	
3667	0	32400	33788	32236	
3668	0	32028	33624	32216	
3669	0	32304	32801	32209	
3670	0	32356	31272	32206	
3671	0	32316	30952	32184	
3672	0	32536	32596	32202	
3673	0	32728	33189	32183	
3674	0	33024	32933	32183	
3675	0	33368	32553	32156	
3676	0	32632	32775	32152	
3677	0	32548	33576	32145	
3678	0	32196	33350	32133	
3679	0	31784	32901	32135	
3680	0	33504	32725	32117	
3681	0	34380	32996	32133	
3682	0	33492	33008	32118	
3683	0	33712	32713	32141	
3684	0	34012	33152	32164	
3685	0	33626	33224	32180	
3686	0	33260	33224	32177	
3687	0	32890	32612	32189	
3688	0	32509	32182	32208	
3689	0	32328	32904	32204	
3690	0	32188	32586	32173	
3691	0	32308	32446	32160	
3692	0	31997	32508	32156	
3693	0	31933	32687	32168	
3694	0	32236	32740	32164	
3695	0	32268	32892	32180	
3696	0	32560	32992	32153	
3697	0	32826	32649	32164	
3698	0	32892	32612	32142	
3699	0	32638	32884	32152	
3700	0	32680	33133	32124	
3701	0	32872	33221	32128	
3702	0	32660	33229	32132	
3703	0	33032	32357	32149	
3704	0	32852	32490	32138	
3705	0	32324	32764	32119	
3706	0	32356	32860	32144	
3707	0	34292	32641	32152	
3708	0	34728	32712	32133	
3709	0	34200	33180	32124	
3710	0	33568	33504	32116	
3711	0	32512	33469	32108	
3712	0	31918	32832	32096	
3713	0	31948	32436	32088	
3714	0	32100	32876	32069	
3715	0	31388	32872	32080	
3716	0	32185	33121	32090	
3717	0	33024	32890	32084	
3718	0	33080	32904	32100	
3719	0	33284	32646	32116	
3720	0	33584	32408	32087	
3721	0	33158	32194	32088	
3722	0	32696	32174	32080	
3723	0	32320	32304	32080	
3724	0	31822	33121	32088	
3725	0	32196	32860	32104	
3726	0	32957	33900	32108	
3727	0	33729	33944	32125	
3728	0	33560	33032	32152	
3729	0	33244	31620	32165	
3730	0	32092	31164	32166	
3731	0	31646	32568	32180	
3732	0	31397	33773	32189	
3733	0	32732	33540	32172	
3734	0	33001	32724	32174	
3735	0	33752	32864	32164	
3736	0	33626	33000	32156	
3737	0	32462	33308	32136	
3738	0	32348	33029	32135	
3739	0	33070	32717	32121	
3740	0	33344	32352	32117	
3741	0	33424	32558	32135	
3742	0	33372	32609	32159	
3743	0	33520	32844	32173	
3744	0	33252	32636	32185	
3745	0	32778	33061	32206	
3746	0	32560	33116	32196	
3747	0	32140	32804	32181	
3748	0	32012	32863	32192	
3749	0	31684	32880	32190	
3750	0	31964	33288	32192	
3751	0	32145	32942	32189	
3752	0	32324	32570	32188	
3753	0	32592	32637	32180	
3754	0	33180	32560	32176	
3755	0	33140	32972	32184	
3756	0	33132	32826	32172	
3757	0	33758	32394	32164	
3758	0	34068	32613	32169	
3759	0	33556	32688	32172	
3760	0	32960	33438	32172	
3761	0	31164	33196	32172	
3762	0	31876	32552	32177	
3763	0	32942	31937	32191	
3764	0	33320	32820	32201	
3765	0	33480	32873	32192	
3766	0	32996	33127	32201	
3767	0	32652	33239	32213	
3768	0	32600	32972	32228	
3769	0	32280	32836	32245	
3770	0	32256	32788	32224	
3771	0	31972	32812	32218	
3772	0	31124	32780	32212	
3773	0	32046	33108	32220	
3774	0	33277	32837	32201	
3775	0	34170	33113	32177	
3776	0	34092	32742	32184	
3777	0	33756	32832	32166	
3778	0	33832	33125	32167	
3779	0	33644	32976	32160	
3780	0	33272	32658	32158	
3781	0	33032	32692	32174	
3782	0	32980	32982	32153	
3783	0	32289	32909	32172	
3784	0	32588	32849	32176	
3785	0	32577	33305	32180	
3786	0	32208	33302	32197	
3787	0	31472	33028	32210	
3788	0	31192	32728	32213	
3789	0	31892	32484	32196	
3790	0	32824	32401	32183	
3791	0	32938	32548	32176	
3792	0	32768	32425	32140	
3793	0	33289	32870	32116	
3794	0	33857	33036	32089	
3795	0	33456	32527	32104	
3796	0	33217	32706	32102	
3797	0	32190	32700	32110	
3798	0	32928	32477	32124	
3799	0	33188	32829	32108	
3800	0	33336	32836	32118	
3801	0	33630	32616	32108	
3802	0	33404	32892	32104	
3803	0	32629	33140	32116	
3804	0	32462	33150	32121	
3805	0	31636	32918	32142	
3806	0	31688	32834	32136	
3807	0	32028	33157	32152	
3808	0	31524	33006	32148	
3809	0	31568	32932	32127	
3810	0	32432	33008	32118	
3811	0	32276	33056	32120	
3812	0	33336	32832	32132	
3813	0	34332	32496	32126	
3814	0	33900	32303	32124	
3815	0	33370	32349	32105	
3816	0	33352	32116	32100	
3817	0	33477	32304	32116	
3818	0	33298	33168	32100	
3819	0	33212	33312	32116	
3820	0	33108	32836	32108	
3821	0	32204	32676	32087	
3822	0	31556	33352	32104	
3823	0	32153	33488	32112	
3824	0	32664	33225	32128	
3825	0	33176	33196	32138	
3826	0	33568	32742	32164	
3827	0	33852	32586	32157	
3828	0	33500	32520	32172	
3829	0	32856	32622	32152	
3830	0	31036	32820	32161	
3831	0	30868	33960	32164	
3832	0	31736	33497	32174	
3833	0	32544	32939	32148	
3834	0	33300	31636	32146	
3835	0	33812	31578	32141	
3836	0	33380	33041	32128	
3837	0	33528	33084	32137	
3838	0	33108	33124	32160	
3839	0	32620	33117	32138	
3840	0	32352	33184	32118	
3841	0	31996	33477	32124	
3842	0	31148	32926	32118	
3843	0	31142	32484	32098	
3844	0	31844	32324	32108	
3845	0	33158	32148	32108	
3846	0	34612	32356	32132	
3847	0	35104	32775	32136	
3848	0	34672	32912	32145	
3849	0	33324	33217	32122	
3850	0	33800	33412	32144	
3851	0	33544	33084	32140	
3852	0	32900	32882	32134	
3853	0	32008	32756	32133	
3854	0	31768	32941	32137	
3855	0	31828	32650	32132	
3856	0	32124	32669	32148	
3857	0	32736	33025	32153	
3858	0	32832	32922	32134	
3859	0	32836	32327	32135	
3860	0	33144	32386	32144	
3861	0	32486	32185	32132	
3862	0	32296	32476	32132	
3863	0	32956	32730	32140	
3864	0	32858	33668	32125	
3865	0	32640	34360	32164	
3866	0	32788	34367	32180	
3867	0	32944	32430	32196	
3868	0	32732	32862	32200	
3869	0	32160	32644	32172	
3870	0	32385	32454	32161	
3871	0	32240	32352	32159	
3872	0	31336	32293	32152	
3873	0	31413	32584	32128	
3874	0	32968	32756	32132	
3875	0	32928	32774	32126	
3876	0	33168	32600	32132	
3877	0	33744	32836	32120	
3878	0	34024	32644	32115	
3879	0	33712	32372	32140	
3880	0	33580	32485	32128	
3881	0	33544	32824	32136	
3882	0	33306	32983	32144	
3883	0	33040	33197	32160	
3884	0	32120	33496	32164	
3885	0	32380	33056	32156	
3886	0	32892	32676	32149	
3887	0	32700	33177	32177	
3888	0	32288	32936	32167	
3889	0	31700	32710	32168	
3890	0	31060	32804	32157	
3891	0	31788	32805	32135	
3892	0	32372	32638	32134	
3893	0	32148	32960	32133	
3894	0	32676	32968	32129	
3895	0	34097	32996	32120	
3896	0	34028	32706	32090	
3897	0	33562	32624	32120	
3898	0	33732	32556	32132	
3899	0	33784	32420	32088	
3900	0	32882	32956	32092	
3901	0	33041	32854	32085	
3902	0	33324	32964	32094	
3903	0	32724	33077	32109	
3904	0	31688	33131	32132	
3905	0	32032	33112	32149	
3906	0	33228	32782	32140	
3907	0	33348	32852	32165	
3908	0	32612	33095	32158	
3909	0	31220	32724	32136	
3910	0	30788	32573	32132	
3911	0	32216	32536	32121	
3912	0	33250	32492	32100	
3913	0	33800	32749	32111	
3914	0	33760	32740	32101	
3915	0	33760	33068	32126	
3916	0	32900	33190	32112	
3917	0	31378	32752	32096	
3918	0	31854	32828	32089	
3919	0	33020	32912	32072	
3920	0	34092	32924	32072	
3921	0	34684	32832	32076	
3922	0	34470	32783	32096	
3923	0	33180	32797	32081	
3924	0	32258	32920	32080	
3925	0	32909	32796	32092	
3926	0	33072	32972	32116	
3927	0	32378	33120	32128	
3928	0	31892	32800	32134	
3929	0	32068	32878	32173	
3930	0	31370	32636	32164	
3931	0	31692	32700	32164	
3932	0	31761	32484	32149	
3933	0	32316	32377	32172	
3934	0	32988	32590	32181	
3935	0	33296	32430	32148	
3936	0	33434	32711	32136	
3937	0	33122	33064	32136	
3938	0	32745	33012	32128	
3939	0	32605	32844	32129	
3940	0	32920	33685	32112	
3941	0	32936	32753	32122	
3942	0	33072	33822	32132	
3943	0	33257	33984	32141	
3944	0	33468	33064	32164	
3945	0	33046	31665	32176	
3946	0	32608	31191	32177	
3947	0	32132	32306	32176	
3948	0	31716	32858	32174	
3949	0	32002	33080	32172	
3950	0	32632	32724	32178	
3951	0	33056	32944	32198	
3952	0	33056	32993	32169	
3953	0	33694	33244	32148	
3954	0	34169	33104	32116	
3955	0	34260	33460	32100	
3956	0	33449	33756	32084	
3957	0	31540	33296	32069	
3958	0	31500	32396	32084	
3959	0	32600	32016	32089	
3960	0	33048	32164	32096	
3961	0	33173	32734	32126	
3962	0	33049	33286	32127	
3963	0	32280	32924	32136	
3964	0	32510	32694	32148	
3965	0	32180	32660	32144	
3966	0	32680	32952	32148	
3967	0	32460	33084	32174	
3968	0	31876	33178	32188	
3969	0	31952	32765	32172	
3970	0	32984	32637	32158	
3971	0	33856	32884	32148	
3972	0	34000	32404	32156	
3973	0	32821	32320	32142	
3974	0	32044	32804	32140	
3975	0	32513	32774	32127	
3976	0	32684	32794	32109	
3977	0	33837	32564	32100	
3978	0	34536	33040	32116	
3979	0	34629	33190	32133	
3980	0	32948	32940	32124	
3981	0	32452	32636	32114	
3982	0	32140	32437	32113	
3983	0	31210	32616	32116	
3984	0	30989	32391	32116	
3985	0	32108	31920	32119	
3986	0	32772	31953	32105	
3987	0	33150	33021	32116	
3988	0	33548	34392	32120	
3989	0	33348	34374	32106	
3990	0	32194	33841	32100	
3991	0	31682	33668	32121	
3992	0	32020	33449	32112	
3993	0	32736	33396	32096	
3994	0	33394	33020	32102	
3995	0	33308	32537	32120	
3996	0	33450	32228	32104	
3997	0	33084	32132	32100	
3998	0	32860	32322	32092	
3999	0	33184	32736	32094	
4000	0	32920	33001	32092	
4001	0	33164	32682	32108	
4002	0	34240	32718	32124	
4003	0	33924	32404	32160	
4004	0	33177	32228	32168	
4005	0	32684	32568	32165	
4006	0	32593	32772	32156	
4007	0	32268	32986	32164	
4008	0	31860	32791	32180	
4009	0	31794	32887	32180	
4010	0	31236	33157	32164	
4011	0	31228	33241	32166	
4012	0	31928	32950	32156	
4013	0	32752	33538	32142	
4014	0	33252	34160	32137	
4015	0	33680	33012	32132	
4016	0	33220	31541	32126	
4017	0	33016	30189	32148	
4018	0	33016	31494	32132	
4019	0	32824	33488	32140	
4020	0	33174	33682	32137	
4021	0	32889	33188	32124	
4022	0	32692	32300	32113	
4023	0	32837	32364	32129	
4024	0	33149	32876	32132	
4025	0	33164	33157	32144	
4026	0	32996	33381	32136	
4027	0	32748	33028	32136	
4028	0	32620	33030	32140	
4029	0	32836	33021	32150	
4030	0	32828	32962	32140	
4031	0	32105	32848	32136	
4032	0	32190	32872	32157	
4033	0	32472	32934	32125	
4034	0	32705	32980	32117	
4035	0	32884	32625	32134	
4036	0	32413	32664	32135	
4037	0	33418	32964	32108	
4038	0	33264	32693	32104	
4039	0	32420	32430	32113	
4040	0	32661	32501	32120	
4041	0	33216	32885	32128	
4042	0	33364	33060	32128	
4043	0	33356	33308	32132	
4044	0	33238	33069	32108	
4045	0	32874	33204	32113	
4046	0	32832	33148	32142	
4047	0	32376	32884	32160	
4048	0	32298	32852	32140	
4049	0	32124	32666	32152	
4050	0	32081	32540	32156	
4051	0	32592	32582	32144	
4052	0	32839	32462	32142	
4053	0	32732	32600	32134	
4054	0	32592	32900	32124	
4055	0	32305	32888	32104	
4056	0	32574	32918	32117	
4057	0	32940	33180	32114	
4058	0	33392	32848	32111	
4059	0	33016	33072	32105	
4060	0	32716	32996	32133	
4061	0	33464	33273	32116	
4062	0	33628	33341	32104	
4063	0	33832	32978	32133	
4064	0	33790	32552	32134	
4065	0	33004	32572	32143	
4066	0	32280	32337	32135	
4067	0	32210	32592	32164	
4068	0	32321	32708	32148	
4069	0	31790	33016	32144	
4070	0	31317	33144	32120	
4071	0	30272	33077	32117	
4072	0	30320	32686	32140	
4073	0	31514	32780	32113	
4074	0	33544	32900	32104	
4075	0	34836	32408	32084	
4076	0	36048	32736	32074	
4077	0	34654	33024	32074	
4078	0	33824	32604	32080	
4079	0	33188	32850	32092	
4080	0	33024	33141	32070	
4081	0	33833	33012	32045	
4082	0	34232	32560	32068	
4083	0	33284	32813	32076	
4084	0	32552	32829	32112	
4085	0	32116	33052	32117	
4086	0	31668	33056	32120	
4087	0	31924	32894	32130	
4088	0	31772	32653	32116	
4089	0	31780	32564	32108	
4090	0	32048	32548	32132	
4091	0	32056	32429	32105	
4092	0	32276	32588	32069	
4093	0	33196	32601	32068	
4094	0	32974	32668	32072	
4095	0	32868	33281	32092	
4096	0	32849	32876	32084	
4097	0	32704	33212	32088	
4098	0	33909	33386	32116	
4099	0	34172	33336	32104	
4100	0	33016	33369	32116	
4101	0	32552	32482	32109	
4102	0	31504	32740	32112	
4103	0	32029	32903	32101	
4104	0	32832	32936	32100	
4105	0	32368	32956	32096	
4106	0	32852	33197	32117	
4107	0	33132	33089	32133	
4108	0	32756	32616	32140	
4109	0	32644	32357	32128	
4110	0	33105	32412	32161	
4111	0	33396	33168	32157	
4112	0	32952	32958	32141	
4113	0	32516	32828	32150	
4114	0	32068	31821	32147	
4115	0	31764	32368	32134	
4116	0	32742	33828	32129	
4117	0	32980	33860	32145	
4118	0	33012	32838	32142	
4119	0	33128	31177	32124	
4120	0	33445	30884	32156	
4121	0	32800	32604	32148	
4122	0	32700	33114	32173	
4123	0	33368	33096	32189	
4124	0	34156	33028	32200	
4125	0	34170	32756	32200	
4126	0	33468	33092	32200	
4127	0	32821	33041	32205	
4128	0	31873	33025	32189	
4129	0	31932	33484	32185	
4130	0	31949	33436	32188	
4131	0	31484	32646	32193	
4132	0	31301	32172	32193	
4133	0	31613	32381	32184	
4134	0	32760	33012	32172	
4135	0	33072	33052	32124	
4136	0	33300	33420	32129	
4137	0	33452	33364	32149	
4138	0	33860	33264	32156	
4139	0	33784	32864	32164	
4140	0	33572	32830	32157	
4141	0	33116	32897	32156	
4142	0	32716	32836	32161	
4143	0	32845	32810	32168	
4144	0	32952	32797	32200	
4145	0	32978	32830	32188	
4146	0	32577	32924	32192	
4147	0	32372	32620	32204	
4148	0	32204	32725	32208	
4149	0	31573	32756	32176	
4150	0	32036	32950	32168	
4151	0	32068	33148	32166	
4152	0	31696	32340	32160	
4153	0	32480	32470	32136	
4154	0	33876	32843	32136	
4155	0	33013	32676	32135	
4156	0	32848	32973	32116	
4157	0	33444	33116	32092	
4158	0	33728	32905	32097	
4159	0	33480	32774	32129	
4160	0	33213	32820	32148	
4161	0	33172	32745	32133	
4162	0	32054	33064	32133	
4163	0	31764	32900	32135	
4164	0	33176	32900	32132	
4165	0	33680	32628	32135	
4166	0	33384	32565	32148	
4167	0	33296	32431	32136	
4168	0	32714	32472	32140	
4169	0	32212	32616	32124	
4170	0	31920	32252	32121	
4171	0	31886	33247	32108	
4172	0	31754	33472	32111	
4173	0	31920	33092	32075	
4174	0	32273	32516	32060	
4175	0	33232	32985	32052	
4176	0	33608	33413	32040	
4177	0	33893	32996	32060	
4178	0	34124	32221	32052	
4179	0	33184	32288	32052	
4180	0	33208	33165	32052	
4181	0	32600	33420	32036	
4182	0	32352	33360	32033	
4183	0	32598	32756	32060	
4184	0	32840	32804	32064	
4185	0	32304	32700	32096	
4186	0	32788	32913	32100	
4187	0	33425	32960	32108	
4188	0	33900	32495	32119	
4189	0	33604	32308	32104	
4190	0	32536	31968	32090	
4191	0	31728	32417	32072	
4192	0	31030	33280	32069	
4193	0	31602	33252	32077	
4194	0	31252	33048	32072	
4195	0	31820	32905	32070	
4196	0	32796	32894	32068	
4197	0	33652	33240	32068	
4198	0	34374	32772	32063	
4199	0	34144	32632	32037	
4200	0	33480	32572	32058	
4201	0	34080	32721	32076	
4202	0	34860	32460	32078	
4203	0	33944	32782	32073	
4204	0	32537	33122	32088	
4205	0	30975	32673	32108	
4206	0	30392	32924	32143	
4207	0	31200	33233	32174	
4208	0	31802	33036	32176	
4209	0	32382	32617	32164	
4210	0	32961	32688	32138	
4211	0	33240	32888	32144	
4212	0	33744	32704	32151	
4213	0	33992	32736	32165	
4214	0	33132	32556	32152	
4215	0	33525	33360	32136	
4216	0	32972	34196	32100	
4217	0	32476	33562	32106	
4218	0	31781	31696	32111	
4219	0	31892	30252	32132	
4220	0	32564	31294	32116	
4221	0	32684	32789	32128	
4222	0	32892	33277	32132	
4223	0	32976	33743	32127	
4224	0	33232	33568	32125	
4225	0	33000	33388	32144	
4226	0	32956	32756	32121	
4227	0	32820	32041	32126	
4228	0	32286	32429	32136	
4229	0	32140	33796	32132	
4230	0	32188	33374	32151	
4231	0	32436	33348	32153	
4232	0	33129	33100	32161	
4233	0	32703	32932	32156	
4234	0	32742	32657	32152	
4235	0	33192	32932	32165	
4236	0	33204	33295	32141	
4237	0	33352	33290	32164	
4238	0	33174	32937	32152	
4239	0	32966	32879	32121	
4240	0	32972	32753	32114	
4241	0	33616	32385	32120	
4242	0	33384	32724	32137	
4243	0	32762	32720	32136	
4244	0	31968	32772	32136	
4245	0	31726	32521	32153	
4246	0	32372	32558	32156	
4247	0	32904	32768	32177	
4248	0	32724	33482	32192	
4249	0	32660	32960	32181	
4250	0	32788	32696	32160	
4251	0	32904	32425	32164	
4252	0	32232	32276	32145	
4253	0	32068	33092	32124	
4254	0	32360	33232	32133	
4255	0	32204	32604	32138	
4256	0	32816	32452	32124	
4257	0	33104	32844	32112	
4258	0	33604	32678	32100	
4259	0	34084	32337	32108	
4260	0	33593	32416	32088	
4261	0	34036	32576	32090	
4262	0	33792	32764	32084	
4263	0	33504	33025	32096	
4264	0	32833	33045	32115	
4265	0	32068	33292	32113	
4266	0	32297	33083	32104	
4267	0	31936	32880	32114	
4268	0	32084	32933	32108	
4269	0	32340	32945	32088	
4270	0	32697	33296	32066	
4271	0	32972	32996	32056	
4272	0	31984	32646	32057	
4273	0	31804	32516	32046	
4274	0	32165	32484	32060	
4275	0	32052	32608	32056	
4276	0	32420	32887	32068	
4277	0	32128	32914	32066	
4278	0	32624	32888	32090	
4279	0	33508	32732	32076	
4280	0	34385	32919	32076	
4281	0	35308	33000	32087	
4282	0	34744	33124	32088	
4283	0	33348	33120	32101	
4284	0	32432	32983	32117	
4285	0	31200	33023	32100	
4286	0	30872	32380	32101	
4287	0	31612	32260	32100	
4288	0	31860	32336	32106	
4289	0	33060	33569	32112	
4290	0	33924	34113	32117	
4291	0	33120	33464	32104	
4292	0	32252	32158	32090	
4293	0	32799	31336	32092	
4294	0	32844	32322	32094	
4295	0	33086	33350	32098	
4296	0	33808	32940	32104	
4297	0	33552	32900	32097	
4298	0	33159	32686	32086	
4299	0	32888	32598	32073	
4300	0	32862	32928	32069	
4301	0	32776	32897	32084	
4302	0	32289	33192	32110	
4303	0	32694	32805	32113	
4304	0	33500	33108	32108	
4305	0	32708	33348	32148	
4306	0	32712	33096	32130	
4307	0	32500	32920	32156	
4308	0	32198	32655	32145	
4309	0	32464	32500	32156	
4310	0	32176	32716	32116	
4311	0	31928	32908	32120	
4312	0	32704	32864	32133	
4313	0	32921	32706	32120	
4314	0	33018	32952	32129	
4315	0	32872	32632	32132	
4316	0	32952	32743	32132	
4317	0	33205	33015	32084	
4318	0	33208	33204	32084	
4319	0	33336	32972	32068	
4320	0	33189	32598	32080	
4321	0	33220	32260	32100	
4322	0	33044	32703	32100	
4323	0	32624	33190	32088	
4324	0	32400	32874	32102	
4325	0	31964	32623	32136	
4326	0	32292	32934	32132	
4327	0	32620	33268	32152	
4328	0	32600	33541	32176	
4329	0	32462	33145	32157	
4330	0	32484	31696	32156	
4331	0	32076	31624	32164	
4332	0	32380	32296	32162	
4333	0	32840	32479	32145	
4334	0	32310	32564	32132	
4335	0	32109	32997	32123	
4336	0	33646	33048	32130	
4337	0	34028	32413	32100	
4338	0	33932	32839	32102	
4339	0	34048	32859	32080	
4340	0	33263	33472	32080	
4341	0	32724	33321	32106	
4342	0	33364	33228	32108	
4343	0	32712	33460	32132	
4344	0	32412	33335	32164	
4345	0	32388	33290	32150	
4346	0	32649	32560	32152	
4347	0	32913	32660	32164	
4348	0	33156	32344	32159	
4349	0	33576	32408	32156	
4350	0	32701	32775	32156	
4351	0	30752	33189	32150	
4352	0	31158	33084	32127	
4353	0	32172	32919	32104	
4354	0	32884	33080	32096	
4355	0	32686	32802	32084	
4356	0	32549	32462	32086	
4357	0	33320	32445	32090	
4358	0	33569	32800	32072	
4359	0	32920	32156	32056	
4360	0	32412	32708	32032	
4361	0	33240	34624	32052	
4362	0	33872	34049	32056	
4363	0	33448	32552	32072	
4364	0	32733	31504	32073	
4365	0	32400	33028	32092	
4366	0	32346	33817	32089	
4367	0	32705	33076	32108	
4368	0	32436	32700	32120	
4369	0	32718	32488	32104	
4370	0	33084	32373	32101	
4371	0	33100	32386	32090	
4372	0	32644	32688	32069	
4373	0	32648	32695	32072	
4374	0	32596	32553	32056	
4375	0	32097	32592	32062	
4376	0	32628	32820	32076	
4377	0	33584	32884	32072	
4378	0	33061	32895	32057	
4379	0	33116	32925	32040	
4380	0	33304	33052	32044	
4381	0	33269	32988	32034	
4382	0	33372	33108	32058	
4383	0	33264	33297	32052	
4384	0	32437	32786	32063	
4385	0	32340	32785	32060	
4386	0	32224	32796	32065	
4387	0	31820	32909	32062	
4388	0	31424	32854	32078	
4389	0	31601	32676	32097	
4390	0	32381	32748	32077	
4391	0	33660	32817	32078	
4392	0	33060	32744	32058	
4393	0	33260	32760	32050	
4394	0	33616	32785	32046	
4395	0	32954	32564	32060	
4396	0	32940	32668	32042	
4397	0	33236	32576	32044	
4398	0	33225	32864	32053	
4399	0	33072	32868	32030	
4400	0	32960	32599	32018	
4401	0	33088	33064	32016	
4402	0	33262	33559	32044	
4403	0	33345	33320	32057	
4404	0	32892	32630	32064	
4405	0	32280	32086	32074	
4406	0	31652	32952	32088	
4407	0	31768	32916	32080	
4408	0	32101	33200	32080	
4409	0	32316	32775	32064	
4410	0	32508	32582	32086	
4411	0	32560	32378	32076	
4412	0	32933	32277	32074	
4413	0	32636	32844	32064	
4414	0	32344	33480	32050	
4415	0	32821	33293	32047	
4416	0	32800	33228	32078	
4417	0	33200	32955	32074	
4418	0	34207	32840	32072	
4419	0	34280	32601	32057	
4420	0	33189	32788	32062	
4421	0	31544	32752	32073	
4422	0	30786	32868	32076	
4423	0	31528	33248	32068	
4424	0	32848	32860	32060	
4425	0	34240	32544	32084	
4426	0	33980	32874	32098	
4427	0	33540	33199	32100	
4428	0	33992	32832	32121	
4429	0	33692	32496	32119	
4430	0	32924	33614	32111	
4431	0	32216	33676	32122	
4432	0	31680	32613	32138	
4433	0	31888	30860	32127	
4434	0	32298	30876	32108	
4435	0	32672	32526	32116	
4436	0	32960	33085	32100	
4437	0	32844	33104	32116	
4438	0	32856	32997	32105	
4439	0	31788	33500	32103	
4440	0	31844	33232	32100	
4441	0	32580	32984	32088	
4442	0	33049	33400	32108	
4443	0	33756	33376	32121	
4444	0	34566	32941	32108	
4445	0	34628	32672	32112	
4446	0	33732	32824	32117	
4447	0	32980	32988	32138	
4448	0	31608	32202	32129	
4449	0	31160	32300	32118	
4450	0	30756	32720	32116	
4451	0	32052	32680	32110	
4452	0	33128	32871	32101	
4453	0	33404	32903	32079	
4454	0	32860	32872	32068	
4455	0	32752	32576	32048	
4456	0	33070	32452	32053	
4457	0	33286	32368	32056	
4458	0	33006	32775	32036	
4459	0	32972	33121	32055	
4460	0	33830	33340	32056	
4461	0	33317	33404	32036	
4462	0	32784	32961	32052	
4463	0	31896	32929	32063	
4464	0	31688	33168	32074	
4465	0	31940	32996	32092	
4466	0	32549	32760	32102	
4467	0	32772	32876	32104	
4468	0	33060	33009	32136	
4469	0	32508	33236	32131	
4470	0	32686	32940	32108	
4471	0	33020	32848	32108	
4472	0	33068	32690	32116	
4473	0	32736	32804	32100	
4474	0	33212	33198	32105	
4475	0	33560	33040	32070	
4476	0	33484	32292	32062	
4477	0	32637	31956	32056	
4478	0	32580	32452	32064	
4479	0	31856	32796	32056	
4480	0	32328	32932	32041	
4481	0	33356	33064	32048	
4482	0	33110	32796	32060	
4483	0	33009	32905	32080	
4484	0	33228	33256	32089	
4485	0	33050	33255	32081	
4486	0	32954	32917	32096	
4487	0	32600	32871	32108	
4488	0	32212	32767	32102	
4489	0	32120	32428	32116	
4490	0	31853	32764	32098	
4491	0	32276	32676	32092	
4492	0	32516	32744	32062	
4493	0	32780	32868	32075	
4494	0	32183	32852	32048	
4495	0	32480	32902	32037	
4496	0	32758	32900	32053	
4497	0	33064	33145	32060	
4498	0	33520	32616	32039	
4499	0	33756	32717	32033	
4500	0	33885	32632	32022	
4501	0	34237	32847	32052	
4502	0	33516	32884	32045	
4503	0	33183	32750	32060	
4504	0	33061	32837	32067	
4505	0	32676	32969	32085	
4506	0	32392	32712	32084	
4507	0	32000	32742	32089	
4508	0	31948	32952	32097	
4509	0	32132	32772	32080	
4510	0	32112	32726	32088	
4511	0	32654	32958	32088	
4512	0	32124	33036	32096	
4513	0	31102	32926	32112	
4514	0	32328	33004	32112	
4515	0	32914	32838	32113	
4516	0	33268	32604	32112	
4517	0	32896	32837	32090	
4518	0	31824	32628	32062	
4519	0	33856	32617	32045	
4520	0	35008	32823	32045	
4521	0	34568	32580	32032	
4522	0	34788	32210	32041	
4523	0	34518	32904	32041	
4524	0	32520	33524	32049	
4525	0	32076	33287	32056	
4526	0	31280	33164	32076	
4527	0	30772	33120	32088	
4528	0	31628	32626	32104	
4529	0	32457	32436	32124	
4530	0	32464	32372	32104	
4531	0	32816	32616	32100	
4532	0	32392	33215	32108	
4533	0	32452	33282	32108	
4534	0	32586	32736	32111	
4535	0	32856	31596	32100	
4536	0	33472	31135	32110	
4537	0	33572	32998	32096	
4538	0	32576	33492	32088	
4539	0	32760	33760	32081	
4540	0	33049	32756	32098	
4541	0	33052	32917	32113	
4542	0	33072	33013	32096	
4543	0	32552	32848	32110	
4544	0	32996	32860	32112	
4545	0	33098	32848	32121	
4546	0	32940	32945	32116	
4547	0	32784	33162	32125	
4548	0	32577	33088	32136	
4549	0	31910	32832	32124	
4550	0	31204	32861	32116	
4551	0	32280	32880	32116	
4552	0	32580	33116	32098	
4553	0	32388	32961	32081	
4554	0	33344	32740	32104	
4555	0	33908	32808	32101	
4556	0	34016	32868	32077	
4557	0	33980	32968	32062	
4558	0	33428	33080	32049	
4559	0	33124	32782	32057	
4560	0	33002	32420	32069	
4561	0	32908	31784	32064	
4562	0	32946	32468	32060	
4563	0	32764	33093	32080	
4564	0	32881	33008	32082	
4565	0	32673	32924	32072	
4566	0	32196	33152	32068	
4567	0	31840	33262	32080	
4568	0	31516	32818	32090	
4569	0	31281	32544	32086	
4570	0	31992	32775	32076	
4571	0	32960	32735	32064	
4572	0	32796	32648	32068	
4573	0	32792	32916	32072	
4574	0	32696	32967	32065	
4575	0	32865	32757	32052	
4576	0	33060	32850	32045	
4577	0	33464	32740	32050	
4578	0	33502	32886	32043	
4579	0	31848	32812	32033	
4580	0	31996	33164	32044	
4581	0	33028	33344	32036	
4582	0	34252	33134	32068	
4583	0	34688	33014	32044	
4584	0	34788	32701	32068	
4585	0	34212	32988	32080	
4586	0	33401	32516	32068	
4587	0	32520	32324	32080	
4588	0	31856	32474	32092	
4589	0	31340	32904	32116	
4590	0	31608	32508	32125	
4591	0	31837	32576	32130	
4592	0	32270	32706	32132	
4593	0	32348	32544	32120	
4594	0	32804	32268	32135	
4595	0	33432	33404	32108	
4596	0	32862	33536	32101	
4597	0	32393	33508	32088	
4598	0	33072	33196	32104	
4599	0	33488	33120	32108	
4600	0	32432	33397	32100	
4601	0	32632	32764	32096	
4602	0	33025	32444	32087	
4603	0	33046	32564	32113	
4604	0	32840	32524	32112	
4605	0	32688	32708	32090	
4606	0	32444	33152	32108	
4607	0	32304	32623	32100	
4608	0	32308	32624	32132	
4609	0	32176	32716	32144	
4610	0	32268	32732	32100	
4611	0	32660	33116	32107	
4612	0	32764	33052	32096	
4613	0	32852	32869	32084	
4614	0	33124	32256	32084	
4615	0	33421	32444	32073	
4616	0	33508	32838	32064	
4617	0	33038	32888	32048	
4618	0	32936	33779	32046	
4619	0	32348	33871	32036	
4620	0	32340	32920	32036	
4621	0	33400	31204	32012	
4622	0	32897	30588	32016	
4623	0	32722	32511	32026	
4624	0	34080	33448	32050	
4625	0	33540	33284	32060	
4626	0	33060	33249	32053	
4627	0	32376	33356	32060	
4628	0	31832	33153	32039	
4629	0	31676	33150	32036	
4630	0	31944	33169	32032	
4631	0	31848	32975	32068	
4632	0	31920	32696	32092	
