# OpenSignals Text File Format
# {"00:07:80:4D:2E:AD": {"sensor": ["EMG", "EMG", "XYZ"], "device name": "00:07:80:4D:2E:AD", "column": ["nSeq", "DI", "CH1", "CH2", "CH3"], "sync interval": 2, "time": "15:37:57.394", "comments": "scissor | ch1_flexor_digitorum_superficialis ch2_aductor_policis ch3_acc_z [trial 1]", "device connection": "BTH00:07:80:4D:2E:AD", "channels": [1, 2, 3], "keywords": "", "mode": 0, "digital IO": [0, 1], "firmware version": 773, "device": "biosignalsplux", "position": 0, "sampling rate": 1000, "label": ["CH1", "CH2", "CH3"], "resolution": [16, 16, 16], "date": "2019-1-23", "special": [{}, {}, {}]}}
# EndOfHeader
0	0	32647	32836	35124	
1	0	32828	32852	35141	
2	0	33124	32948	35148	
3	0	33100	32808	35133	
4	0	32901	32772	35128	
5	0	32809	32628	35142	
6	0	32592	32749	35156	
7	0	32456	32804	35176	
8	0	32502	32892	35172	
9	0	32436	32872	35177	
10	0	32460	33012	35164	
11	0	32388	32952	35152	
12	0	32524	33129	35148	
13	0	32728	32956	35152	
14	0	32996	32972	35160	
15	0	33188	32816	35156	
16	0	33092	32780	35158	
17	0	32968	32534	35148	
18	0	32970	32660	35136	
19	0	32876	32705	35126	
20	0	32928	32788	35127	
21	0	32908	32812	35142	
22	0	32964	32869	35156	
23	0	32808	32868	35134	
24	0	32816	32981	35109	
25	0	32772	32996	35116	
26	0	32732	32920	35108	
27	0	32690	32868	35110	
28	0	32532	32812	35124	
29	0	32592	32777	35129	
30	0	32432	32785	35144	
31	0	32392	32778	35140	
32	0	32156	32852	35146	
33	0	32345	32904	35148	
34	0	32992	32818	35132	
35	0	33210	32903	35136	
36	0	33116	33064	35144	
37	0	33066	33092	35144	
38	0	33024	32920	35133	
39	0	32981	32937	35136	
40	0	32968	32668	35148	
41	0	33016	32765	35140	
42	0	32824	32936	35129	
43	0	32820	32978	35149	
44	0	32876	32827	35141	
45	0	32916	32748	35156	
46	0	32788	32677	35189	
47	0	32647	32528	35167	
48	0	32462	32556	35164	
49	0	32369	32589	35168	
50	0	32468	32596	35176	
51	0	32536	32617	35160	
52	0	32552	32804	35160	
53	0	32628	32752	35160	
54	0	32920	32864	35133	
55	0	32920	32893	35127	
56	0	33032	32902	35145	
57	0	32952	32832	35160	
58	0	32892	32816	35160	
59	0	32964	32881	35152	
60	0	33057	33008	35148	
61	0	33016	33108	35188	
62	0	32976	33076	35169	
63	0	32872	33037	35182	
64	0	32870	32928	35190	
65	0	32720	32740	35164	
66	0	32708	32775	35148	
67	0	32572	32910	35125	
68	0	32504	32796	35148	
69	0	32576	32774	35140	
70	0	32568	32708	35174	
71	0	32584	32592	35161	
72	0	32584	32652	35178	
73	0	32636	32697	35185	
74	0	32688	32698	35154	
75	0	32728	32676	35156	
76	0	32861	32848	35160	
77	0	32984	32917	35162	
78	0	33012	32707	35146	
79	0	32928	32668	35132	
80	0	32724	32737	35142	
81	0	32920	32800	35152	
82	0	33068	32922	35149	
83	0	32872	32984	35156	
84	0	32728	32988	35158	
85	0	32870	32993	35168	
86	0	33324	33000	35156	
87	0	32760	33233	35144	
88	0	32412	33028	35152	
89	0	32305	33036	35132	
90	0	32916	32690	35144	
91	0	32948	32797	35156	
92	0	32908	32656	35160	
93	0	32840	32608	35145	
94	0	32752	32804	35143	
95	0	32590	32660	35148	
96	0	32660	32788	35150	
97	0	32748	32990	35140	
98	0	32877	32912	35142	
99	0	32892	32858	35142	
100	0	32972	32828	35169	
101	0	32976	32681	35172	
102	0	32894	32560	35194	
103	0	32840	32609	35165	
104	0	32800	32772	35159	
105	0	32692	32725	35156	
106	0	32528	32903	35169	
107	0	32610	32993	35177	
108	0	32604	32920	35202	
109	0	32620	32924	35200	
110	0	32569	32797	35185	
111	0	32617	32945	35199	
112	0	32588	32888	35192	
113	0	32632	32952	35159	
114	0	32789	32852	35133	
115	0	32832	32881	35128	
116	0	32920	32888	35136	
117	0	32968	33021	35137	
118	0	33046	32732	35152	
119	0	32985	32825	35152	
120	0	33036	32576	35149	
121	0	32976	32790	35136	
122	0	32968	32789	35152	
123	0	32922	32678	35165	
124	0	32869	32900	35164	
125	0	32780	32896	35157	
126	0	32704	32959	35159	
127	0	32564	32978	35156	
128	0	32504	32884	35175	
129	0	32480	32885	35182	
130	0	32465	32756	35172	
131	0	32672	32732	35183	
132	0	32576	32828	35199	
133	0	32648	32784	35181	
134	0	32800	32790	35168	
135	0	32900	32813	35156	
136	0	32956	32845	35148	
137	0	32932	32815	35140	
138	0	33000	32812	35148	
139	0	33160	32696	35137	
140	0	33105	32660	35144	
141	0	33040	32656	35118	
142	0	32984	33025	35151	
143	0	32932	32862	35145	
144	0	32812	32949	35136	
145	0	32756	32992	35146	
146	0	32736	33057	35152	
147	0	32596	33034	35140	
148	0	32568	32984	35164	
149	0	32650	32909	35175	
150	0	32604	33052	35170	
151	0	32518	32902	35160	
152	0	32608	32856	35164	
153	0	32540	32872	35158	
154	0	32640	32888	35145	
155	0	32612	32769	35168	
156	0	32728	32809	35152	
157	0	33137	32608	35142	
158	0	33040	32508	35148	
159	0	33060	32676	35146	
160	0	32972	32641	35140	
161	0	33064	32641	35116	
162	0	32984	32636	35142	
163	0	32904	32788	35144	
164	0	32932	32833	35149	
165	0	32864	32968	35161	
166	0	32760	32964	35162	
167	0	32632	32864	35188	
168	0	32564	32704	35161	
169	0	32600	32774	35152	
170	0	32542	32784	35156	
171	0	32506	32868	35148	
172	0	32624	32868	35142	
173	0	32668	32892	35156	
174	0	32756	32963	35148	
175	0	32812	32897	35141	
176	0	32908	32946	35156	
177	0	32936	32902	35129	
178	0	32816	32914	35153	
179	0	32852	32912	35128	
180	0	32932	32818	35150	
181	0	32968	32756	35150	
182	0	33132	32932	35165	
183	0	33128	33066	35166	
184	0	33080	32873	35172	
185	0	33145	32756	35156	
186	0	32689	32843	35172	
187	0	32548	32769	35169	
188	0	32692	32810	35193	
189	0	32558	32828	35189	
190	0	32036	32736	35188	
191	0	32127	32682	35181	
192	0	32570	32732	35172	
193	0	33028	32536	35168	
194	0	32756	32416	35172	
195	0	32752	32536	35159	
196	0	32908	32764	35140	
197	0	32952	32846	35140	
198	0	33044	32764	35136	
199	0	32864	32826	35152	
200	0	32996	32792	35145	
201	0	32888	32916	35160	
202	0	32932	32986	35168	
203	0	32856	32964	35153	
204	0	32876	32985	35134	
205	0	32788	33052	35144	
206	0	33180	33116	35157	
207	0	32932	33096	35177	
208	0	32552	33096	35194	
209	0	32680	32974	35176	
210	0	32412	32958	35175	
211	0	32213	32809	35166	
212	0	32512	32828	35150	
213	0	32743	32473	35161	
214	0	32757	32532	35128	
215	0	32770	32633	35116	
216	0	32908	32712	35132	
217	0	32876	32772	35124	
218	0	32924	32738	35108	
219	0	32940	32805	35112	
220	0	33032	32844	35140	
221	0	33088	32700	35141	
222	0	33084	32775	35148	
223	0	33005	32609	35170	
224	0	32928	32656	35172	
225	0	32774	32695	35156	
226	0	32678	33090	35128	
227	0	32552	33094	35140	
228	0	32450	33020	35180	
229	0	32536	33112	35150	
230	0	32644	33152	35133	
231	0	32576	33040	35130	
232	0	32612	32912	35116	
233	0	32660	32828	35125	
234	0	32716	32660	35140	
235	0	32808	32720	35129	
236	0	32872	32701	35132	
237	0	32944	32766	35116	
238	0	32984	32581	35148	
239	0	32956	32716	35148	
240	0	32956	32769	35160	
241	0	32952	32812	35164	
242	0	32976	32998	35174	
243	0	33013	32981	35181	
244	0	32889	33000	35188	
245	0	32737	32940	35164	
246	0	32632	32774	35160	
247	0	32588	32814	35180	
248	0	32642	32741	35181	
249	0	32544	32820	35181	
250	0	32544	32800	35199	
251	0	32477	32808	35166	
252	0	32500	32822	35152	
253	0	32644	32808	35133	
254	0	33012	32814	35147	
255	0	32845	32768	35141	
256	0	32976	32920	35150	
257	0	32908	32954	35136	
258	0	32916	32756	35132	
259	0	32956	32668	35145	
260	0	32940	32657	35135	
261	0	33064	32697	35114	
262	0	33000	32775	35132	
263	0	32864	32864	35143	
264	0	32808	32880	35148	
265	0	32780	33028	35145	
266	0	32668	32952	35148	
267	0	32561	33066	35177	
268	0	32516	33031	35169	
269	0	32520	32992	35165	
270	0	32569	33112	35172	
271	0	32684	33073	35180	
272	0	32672	32972	35180	
273	0	32788	32793	35156	
274	0	32782	32664	35130	
275	0	32623	32372	35124	
276	0	32756	32465	35117	
277	0	32848	32655	35132	
278	0	32936	32658	35128	
279	0	33017	32773	35132	
280	0	33012	32821	35132	
281	0	33044	32878	35132	
282	0	32940	32916	35124	
283	0	33016	32836	35120	
284	0	32868	33032	35142	
285	0	32801	32841	35164	
286	0	32688	32881	35140	
287	0	32620	32872	35128	
288	0	32616	33017	35124	
289	0	32620	32764	35137	
290	0	32516	32792	35140	
291	0	32572	32928	35147	
292	0	32578	32830	35141	
293	0	32748	32829	35132	
294	0	32596	32864	35112	
295	0	32460	32721	35117	
296	0	32524	32832	35137	
297	0	32984	32862	35124	
298	0	33553	32993	35125	
299	0	33648	32960	35116	
300	0	33040	32834	35096	
301	0	33000	32838	35094	
302	0	32864	32790	35100	
303	0	32800	32876	35088	
304	0	32737	32814	35102	
305	0	32560	32856	35140	
306	0	32444	32834	35145	
307	0	32424	32977	35138	
308	0	32477	32876	35138	
309	0	32520	32800	35156	
310	0	32528	32815	35159	
311	0	32773	32716	35146	
312	0	33136	32600	35138	
313	0	32820	32860	35130	
314	0	32700	32892	35136	
315	0	32802	32812	35142	
316	0	32920	32775	35140	
317	0	32892	32774	35129	
318	0	32996	32724	35140	
319	0	32996	32740	35112	
320	0	32968	32886	35126	
321	0	33056	32785	35140	
322	0	33032	32948	35149	
323	0	32912	32928	35132	
324	0	32797	33026	35132	
325	0	32684	32966	35146	
326	0	32663	33092	35148	
327	0	32592	33012	35140	
328	0	32568	32846	35169	
329	0	32644	32670	35152	
330	0	32498	32564	35156	
331	0	32548	32663	35140	
332	0	32637	32660	35162	
333	0	32668	32801	35164	
334	0	32704	32796	35173	
335	0	32789	32848	35148	
336	0	32936	32922	35164	
337	0	33040	32868	35168	
338	0	33000	32682	35172	
339	0	33000	32720	35146	
340	0	33164	32808	35137	
341	0	33108	32824	35132	
342	0	32920	32952	35105	
343	0	32848	32956	35116	
344	0	32824	32927	35140	
345	0	32724	32757	35156	
346	0	32757	32908	35160	
347	0	32632	33072	35146	
348	0	32492	32956	35157	
349	0	32520	33062	35145	
350	0	32540	32908	35148	
351	0	32528	32964	35152	
352	0	32436	32835	35140	
353	0	32232	32737	35132	
354	0	32368	32888	35116	
355	0	32876	32884	35124	
356	0	33236	32976	35132	
357	0	32996	33052	35124	
358	0	32852	32856	35124	
359	0	32932	32641	35132	
360	0	33261	32548	35150	
361	0	33076	32532	35132	
362	0	32945	32645	35132	
363	0	32877	32734	35112	
364	0	32908	32724	35100	
365	0	32820	32942	35124	
366	0	32728	33205	35142	
367	0	32646	33108	35150	
368	0	32608	32992	35142	
369	0	32656	33092	35156	
370	0	32608	33060	35174	
371	0	32640	32838	35175	
372	0	32652	32743	35168	
373	0	32797	32732	35180	
374	0	32692	32780	35166	
375	0	32716	32660	35141	
376	0	32860	32803	35149	
377	0	32944	32896	35129	
378	0	32812	32647	35141	
379	0	32926	32602	35136	
380	0	32948	32583	35111	
381	0	32756	32761	35121	
382	0	32885	32724	35120	
383	0	33229	32804	35148	
384	0	33148	32900	35129	
385	0	32788	32932	35144	
386	0	32752	32935	35141	
387	0	32588	33016	35173	
388	0	32476	32698	35160	
389	0	32536	32820	35162	
390	0	32333	32788	35140	
391	0	32428	32769	35141	
392	0	32496	32588	35124	
393	0	32492	32647	35119	
394	0	32812	32700	35144	
395	0	32750	32820	35151	
396	0	33345	32900	35140	
397	0	33636	32832	35129	
398	0	32926	32842	35142	
399	0	32684	32812	35140	
400	0	32905	32700	35129	
401	0	32833	32804	35132	
402	0	32832	32918	35121	
403	0	32900	32948	35116	
404	0	32880	32948	35144	
405	0	32736	32948	35165	
406	0	33308	32903	35162	
407	0	32824	32976	35160	
408	0	32388	32773	35148	
409	0	32372	32880	35162	
410	0	32550	32900	35144	
411	0	32557	32797	35156	
412	0	32580	32929	35130	
413	0	32706	32772	35141	
414	0	32804	32954	35148	
415	0	32884	32829	35164	
416	0	32800	32780	35164	
417	0	32700	32884	35130	
418	0	32764	32820	35140	
419	0	32852	32828	35154	
420	0	32981	32826	35127	
421	0	33010	32860	35114	
422	0	33072	32868	35126	
423	0	32916	32849	35124	
424	0	32858	32761	35132	
425	0	32776	32884	35151	
426	0	32752	32696	35136	
427	0	32736	32636	35144	
428	0	32684	32633	35140	
429	0	32584	32749	35160	
430	0	32580	32785	35152	
431	0	32508	32654	35145	
432	0	32598	32718	35142	
433	0	32576	32676	35118	
434	0	32672	32864	35156	
435	0	32801	32828	35156	
436	0	32892	32764	35140	
437	0	32984	32841	35128	
438	0	32993	32960	35128	
439	0	33024	32956	35116	
440	0	33052	32776	35126	
441	0	33080	32872	35134	
442	0	32986	32916	35121	
443	0	33000	33008	35136	
444	0	32884	32957	35108	
445	0	32832	32949	35116	
446	0	32748	32936	35132	
447	0	32684	32986	35144	
448	0	32540	32744	35133	
449	0	32472	32824	35156	
450	0	32398	32794	35152	
451	0	32412	32712	35135	
452	0	32640	32800	35142	
453	0	32700	32805	35114	
454	0	32728	32838	35116	
455	0	32768	32876	35128	
456	0	32912	32997	35133	
457	0	32896	33036	35140	
458	0	32920	32869	35129	
459	0	32968	32933	35118	
460	0	32960	32864	35116	
461	0	32952	32869	35132	
462	0	32972	32788	35156	
463	0	32981	32702	35143	
464	0	32941	32820	35132	
465	0	32808	32792	35144	
466	0	32748	33060	35145	
467	0	32800	32964	35152	
468	0	32613	32792	35151	
469	0	32564	32932	35148	
470	0	32532	32781	35125	
471	0	32437	32612	35145	
472	0	32376	32511	35144	
473	0	32212	32645	35146	
474	0	32700	32695	35144	
475	0	33134	32840	35164	
476	0	33249	32860	35145	
477	0	33317	32972	35140	
478	0	32988	32780	35152	
479	0	32872	32913	35136	
480	0	33024	32808	35137	
481	0	32952	32740	35156	
482	0	33092	32836	35143	
483	0	32736	32706	35144	
484	0	32664	32639	35150	
485	0	32500	32869	35164	
486	0	32545	32844	35160	
487	0	32584	33040	35153	
488	0	32744	33004	35161	
489	0	33104	32954	35188	
490	0	32868	32968	35189	
491	0	32484	32944	35172	
492	0	32476	32900	35140	
493	0	32550	32890	35137	
494	0	32632	32926	35125	
495	0	32760	32841	35120	
496	0	32818	33098	35148	
497	0	32968	32888	35153	
498	0	32916	32758	35132	
499	0	32972	32624	35149	
500	0	32965	32706	35144	
501	0	32948	32688	35157	
502	0	32856	32612	35125	
503	0	32912	32677	35116	
504	0	32932	32668	35140	
505	0	32836	32760	35162	
506	0	32736	32844	35173	
507	0	32648	32992	35176	
508	0	32612	32960	35164	
509	0	32564	32852	35183	
510	0	32512	32924	35181	
511	0	32548	32956	35160	
512	0	32632	33054	35132	
513	0	32672	32988	35128	
514	0	32705	32775	35116	
515	0	32852	32888	35127	
516	0	32914	32752	35135	
517	0	32896	32809	35144	
518	0	32896	32880	35128	
519	0	32860	32775	35126	
520	0	32936	32780	35116	
521	0	32962	32796	35119	
522	0	33016	32772	35120	
523	0	32984	32860	35127	
524	0	32954	32889	35151	
525	0	32765	32925	35164	
526	0	32704	32740	35184	
527	0	32636	32792	35172	
528	0	32472	32789	35172	
529	0	32480	32820	35172	
530	0	32620	32775	35180	
531	0	32692	32924	35172	
532	0	32580	32775	35160	
533	0	32584	32736	35161	
534	0	32678	32801	35167	
535	0	32900	32824	35162	
536	0	33088	32796	35172	
537	0	33193	32790	35158	
538	0	33113	32808	35156	
539	0	33040	32773	35154	
540	0	32870	32784	35160	
541	0	32932	32740	35148	
542	0	32816	32817	35174	
543	0	32808	32888	35193	
544	0	32832	32982	35183	
545	0	32640	32944	35160	
546	0	32868	32924	35173	
547	0	32760	33087	35162	
548	0	32636	32936	35180	
549	0	32632	33020	35193	
550	0	32614	32938	35192	
551	0	32564	32860	35194	
552	0	32532	32687	35184	
553	0	32428	32671	35183	
554	0	32496	32648	35172	
555	0	32524	32665	35170	
556	0	32674	32772	35164	
557	0	32844	32696	35156	
558	0	33320	32895	35144	
559	0	33652	32741	35112	
560	0	33592	32852	35116	
561	0	33364	32880	35129	
562	0	33184	32958	35148	
563	0	32860	32863	35168	
564	0	32508	32972	35200	
565	0	32492	32957	35212	
566	0	32496	32837	35196	
567	0	32445	32716	35178	
568	0	32553	32896	35180	
569	0	32437	32812	35159	
570	0	32352	32890	35128	
571	0	32586	32824	35028	
572	0	32680	32892	34852	
573	0	32809	32934	34784	
574	0	32912	32978	34742	
575	0	32868	32929	34784	
576	0	32832	32892	34958	
577	0	32833	33148	35132	
578	0	32988	33128	35317	
579	0	33034	33110	35492	
580	0	33004	33015	35544	
581	0	33081	32932	35536	
582	0	33028	32769	35496	
583	0	33132	32830	35416	
584	0	33060	33090	35348	
585	0	32746	33149	35256	
586	0	32356	33248	35142	
587	0	32432	33265	35068	
588	0	32800	33224	35016	
589	0	32740	33340	34985	
590	0	32542	32970	34988	
591	0	32813	32568	34992	
592	0	31904	32582	34996	
593	0	32328	32599	35066	
594	0	32945	32396	35128	
595	0	32732	32478	35124	
596	0	32852	32772	34485	
597	0	32828	32956	34165	
598	0	32464	32660	34044	
599	0	32680	32640	33961	
600	0	33065	32677	33880	
601	0	33196	32910	33828	
602	0	33070	32890	33782	
603	0	33192	32880	33796	
604	0	33497	32872	33853	
605	0	33184	32969	34029	
606	0	32840	32980	34192	
607	0	32609	32927	34376	
608	0	32688	32900	34525	
609	0	32556	32852	34669	
610	0	32482	32804	34890	
611	0	32512	32943	35120	
612	0	32624	32940	35145	
613	0	32584	32846	35224	
614	0	32648	32800	35334	
615	0	32640	32740	35437	
616	0	32736	32815	35504	
617	0	32962	32842	35600	
618	0	33004	32820	35585	
619	0	32972	32551	35591	
620	0	33036	32628	35596	
621	0	32792	32636	35552	
622	0	32702	32805	35460	
623	0	32716	32864	35440	
624	0	32744	32837	35345	
625	0	32714	32888	35268	
626	0	32688	32820	35240	
627	0	32690	32703	35236	
628	0	32657	32760	35268	
629	0	32748	32846	35200	
630	0	32880	32726	35158	
631	0	32672	32684	35120	
632	0	32352	32670	35124	
633	0	32332	32772	35104	
634	0	32552	32982	35114	
635	0	32364	32980	35080	
636	0	32172	33286	35060	
637	0	31908	33384	35056	
638	0	32118	33144	35092	
639	0	32629	32652	35050	
640	0	33410	32638	35057	
641	0	33956	33028	35054	
642	0	34308	33178	35033	
643	0	34932	32916	34980	
644	0	34756	32636	34960	
645	0	34312	32505	34941	
646	0	33864	32613	34920	
647	0	32696	32576	34908	
648	0	32036	32964	34896	
649	0	31868	32819	34832	
650	0	31822	32570	34768	
651	0	31508	32120	34753	
652	0	31416	32310	34787	
653	0	31524	32868	34792	
654	0	32028	33084	34796	
655	0	32972	33324	34772	
656	0	33414	33464	34716	
657	0	33272	33612	34680	
658	0	33061	33484	34680	
659	0	33036	33396	34711	
660	0	33029	33345	34761	
661	0	33344	33209	34801	
662	0	33728	32932	34846	
663	0	33732	32712	34909	
664	0	32812	32677	34916	
665	0	32334	32440	34900	
666	0	31804	32376	34908	
667	0	31324	32324	34924	
668	0	31246	32608	35014	
669	0	30968	32823	35100	
670	0	29668	32777	35168	
671	0	29300	32746	35172	
672	0	29132	32880	35212	
673	0	29189	33409	35252	
674	0	30329	34370	35217	
675	0	31708	33888	35188	
676	0	33560	32512	35192	
677	0	36032	31333	35136	
678	0	39232	31472	35088	
679	0	40756	33036	35052	
680	0	40145	33708	35020	
681	0	36120	33308	34970	
682	0	34204	32972	34932	
683	0	32672	33080	34868	
684	0	30208	33070	34832	
685	0	27840	32504	34844	
686	0	28368	31524	34856	
687	0	29840	30724	34852	
688	0	32116	30261	34917	
689	0	34260	30072	34973	
690	0	35384	30828	34980	
691	0	35616	31516	34940	
692	0	36032	31766	34885	
693	0	37076	32473	34810	
694	0	36864	32829	34692	
695	0	35856	32730	34532	
696	0	34593	32484	34396	
697	0	33105	32536	34238	
698	0	32104	32598	34076	
699	0	31480	32470	33940	
700	0	31828	32364	33832	
701	0	30732	32277	33784	
702	0	29964	31615	33748	
703	0	30836	31882	33764	
704	0	31944	32281	33768	
705	0	32580	32032	33792	
706	0	32285	31909	33876	
707	0	31749	32330	33932	
708	0	31278	32551	33991	
709	0	31202	32614	34069	
710	0	30984	32692	34153	
711	0	30856	32742	34208	
712	0	31380	33124	34284	
713	0	31450	33158	34328	
714	0	31492	33140	34368	
715	0	31740	32768	34405	
716	0	32228	32889	34428	
717	0	33272	33660	34449	
718	0	33656	33661	34476	
719	0	33572	33549	34481	
720	0	33344	32989	34486	
721	0	33290	32572	34504	
722	0	33877	32708	34504	
723	0	33040	32533	34552	
724	0	32172	32720	34601	
725	0	32376	33068	34652	
726	0	30364	33156	34672	
727	0	30332	33324	34670	
728	0	32440	33494	34680	
729	0	33741	33329	34717	
730	0	33292	33300	34717	
731	0	31886	33638	34709	
732	0	33244	33681	34724	
733	0	36076	33808	34724	
734	0	37008	34170	34728	
735	0	36464	34055	34752	
736	0	36572	34652	34751	
737	0	35984	34296	34780	
738	0	34288	32838	34818	
739	0	33090	32138	34876	
740	0	31472	30886	34940	
741	0	30244	32888	34972	
742	0	29092	34397	35014	
743	0	29084	34336	35046	
744	0	30118	34180	35073	
745	0	30104	33634	35078	
746	0	30200	33492	35093	
747	0	31200	33636	35128	
748	0	32124	32992	35096	
749	0	33064	33261	35069	
750	0	33700	33356	35040	
751	0	34312	32669	34989	
752	0	34984	32404	34984	
753	0	36160	32488	34953	
754	0	36532	33024	34888	
755	0	36284	32328	34797	
756	0	35552	31560	34704	
757	0	33196	31701	34604	
758	0	32112	32181	34517	
759	0	32005	32942	34445	
760	0	30840	33385	34377	
761	0	31384	33256	34282	
762	0	31592	33100	34197	
763	0	31040	32858	34100	
764	0	29916	33028	34042	
765	0	29900	33264	33980	
766	0	31413	32796	33912	
767	0	32656	31664	33824	
768	0	33392	31996	33756	
769	0	34036	32599	33681	
770	0	34602	32572	33593	
771	0	35144	32717	33489	
772	0	34684	32812	33431	
773	0	33828	32804	33378	
774	0	32953	32724	33322	
775	0	32292	33041	33256	
776	0	31897	33630	33198	
777	0	32020	33865	33156	
778	0	32828	33764	33124	
779	0	32817	33452	33104	
780	0	32376	33053	33098	
781	0	32385	32628	33072	
782	0	31729	32684	33073	
783	0	30748	32962	33064	
784	0	30484	32588	33084	
785	0	28872	31696	33101	
786	0	29088	31512	33112	
787	0	31156	31892	33128	
788	0	34728	32268	33132	
789	0	35828	32278	33124	
790	0	36604	32676	33120	
791	0	36168	32826	33113	
792	0	36084	31932	33136	
793	0	36064	32334	33136	
794	0	35784	33696	33135	
795	0	35300	33679	33158	
796	0	33969	33244	33153	
797	0	31368	32920	33140	
798	0	31448	33393	33141	
799	0	30018	32856	33148	
800	0	29852	32816	33166	
801	0	31212	33083	33180	
802	0	32596	33185	33172	
803	0	32848	32830	33176	
804	0	33816	32788	33188	
805	0	34324	33340	33233	
806	0	33525	33270	33268	
807	0	32896	33392	33330	
808	0	31741	33742	33360	
809	0	30880	32436	33404	
810	0	30864	31996	33480	
811	0	31180	32387	33560	
812	0	31296	32892	33627	
813	0	32340	33375	33716	
814	0	32904	32760	33808	
815	0	32844	33732	33872	
816	0	32852	33678	33952	
817	0	32760	33469	34016	
818	0	32700	32948	34096	
819	0	32996	32956	34183	
820	0	33512	32452	34252	
821	0	33378	32940	34323	
822	0	33364	33193	34408	
823	0	33424	33254	34492	
824	0	34468	32840	34548	
825	0	34288	32868	34628	
826	0	33460	33053	34700	
827	0	32501	33165	34756	
828	0	32016	32818	34810	
829	0	32416	32636	34830	
830	0	32092	32604	34845	
831	0	31988	32289	34817	
832	0	31704	32641	34804	
833	0	31104	33948	34788	
834	0	31008	33697	34758	
835	0	31284	32609	34736	
836	0	32580	31692	34688	
837	0	32948	33421	34688	
838	0	33780	34292	34682	
839	0	36313	33204	34664	
840	0	35324	32048	34630	
841	0	33421	31567	34588	
842	0	32720	32316	34548	
843	0	32096	32736	34517	
844	0	31700	33316	34478	
845	0	32788	33116	34434	
846	0	34428	32604	34372	
847	0	34300	30836	34318	
848	0	33288	31449	34268	
849	0	32669	32870	34182	
850	0	32696	33504	34124	
851	0	32754	33080	34029	
852	0	31852	33510	33932	
853	0	31356	34554	33856	
854	0	31544	33172	33820	
855	0	31980	31452	33748	
856	0	32132	31020	33689	
857	0	32830	30717	33564	
858	0	32056	32297	33497	
859	0	28452	34528	33460	
860	0	30348	34924	33416	
861	0	32928	34405	33407	
862	0	34124	34743	33366	
863	0	34252	34144	33325	
864	0	34388	31797	33312	
865	0	34692	30861	33287	
866	0	34236	32134	33250	
867	0	34236	31592	33208	
868	0	33850	30757	33164	
869	0	33332	30168	33134	
870	0	34008	32170	33116	
871	0	34104	33551	33108	
872	0	32956	36552	33088	
873	0	32652	35094	33060	
874	0	32896	33636	33060	
875	0	33140	32668	33017	
876	0	33146	32510	32976	
877	0	33340	34144	32924	
878	0	32097	34428	32868	
879	0	32028	36368	32809	
880	0	32228	36834	32760	
881	0	32922	35012	32696	
882	0	32996	32952	32621	
883	0	33360	32476	32560	
884	0	32538	33222	32490	
885	0	33012	32148	32416	
886	0	31868	29852	32344	
887	0	30860	29748	32288	
888	0	30333	27084	32198	
889	0	30814	28583	32130	
890	0	31132	31329	32041	
891	0	31040	34293	31960	
892	0	31408	35374	31869	
893	0	32096	33928	31781	
894	0	33556	32336	31751	
895	0	34008	31724	31724	
896	0	34444	31390	31672	
897	0	35544	31900	31657	
898	0	35340	31973	31644	
899	0	33960	33644	31632	
900	0	33336	34440	31621	
901	0	33444	33472	31637	
902	0	33413	32736	31676	
903	0	33212	32689	31696	
904	0	32872	32618	31750	
905	0	31784	32964	31812	
906	0	30861	32384	31888	
907	0	30772	32463	31972	
908	0	31113	32954	32084	
909	0	31088	33116	32199	
910	0	30830	32696	32300	
911	0	29808	32324	32424	
912	0	31274	32781	32554	
913	0	32709	32852	32694	
914	0	33405	32701	32812	
915	0	32848	33156	32952	
916	0	34822	33168	33044	
917	0	36616	33548	33160	
918	0	37672	33436	33260	
919	0	36628	33284	33344	
920	0	33608	33332	33425	
921	0	33276	32970	33516	
922	0	34101	33438	33575	
923	0	32928	33364	33636	
924	0	33029	33248	33680	
925	0	32756	33597	33692	
926	0	31780	33223	33712	
927	0	30472	33016	33680	
928	0	29762	32500	33654	
929	0	29656	32282	33616	
930	0	30186	32456	33584	
931	0	31224	34036	33508	
932	0	31672	32840	33460	
933	0	32248	32468	33412	
934	0	32864	31516	33336	
935	0	33488	32445	33264	
936	0	34272	36128	33196	
937	0	34728	33573	33108	
938	0	35096	33660	33040	
939	0	35258	34168	32944	
940	0	35096	30928	32853	
941	0	34812	29640	32744	
942	0	34436	34270	32664	
943	0	33344	34348	32560	
944	0	32208	32073	32428	
945	0	31928	32740	32300	
946	0	31232	31440	32152	
947	0	30728	29276	31970	
948	0	30496	32108	31764	
949	0	30896	33775	31556	
950	0	31096	32136	31332	
951	0	31121	31324	31137	
952	0	31012	32428	30944	
953	0	32144	33040	30756	
954	0	32860	34297	30569	
955	0	33120	34360	30418	
956	0	34260	33374	30304	
957	0	34784	33533	30224	
958	0	36600	33545	30160	
959	0	37194	33708	30104	
960	0	35968	32476	30084	
961	0	34000	32356	30108	
962	0	32165	31988	30124	
963	0	32945	31654	30177	
964	0	33596	32125	30249	
965	0	32512	33958	30344	
966	0	30892	31884	30452	
967	0	30496	31315	30568	
968	0	30548	32788	30692	
969	0	29538	33238	30841	
970	0	29446	33505	30944	
971	0	29844	32996	31062	
972	0	30210	32670	31202	
973	0	30904	32415	31302	
974	0	31748	32696	31413	
975	0	32628	32992	31540	
976	0	33356	33512	31660	
977	0	34600	33960	31739	
978	0	35548	33861	31810	
979	0	36284	33258	31884	
980	0	36028	33934	31948	
981	0	35601	33397	32000	
982	0	36204	32496	32084	
983	0	34208	31118	32137	
984	0	33316	32812	32181	
985	0	33124	33444	32228	
986	0	32000	32904	32248	
987	0	30854	31036	32304	
988	0	30336	32540	32348	
989	0	29388	34189	32376	
990	0	29404	34012	32392	
991	0	30327	33569	32404	
992	0	30304	31774	32425	
993	0	30368	30740	32460	
994	0	31800	30928	32500	
995	0	33685	32072	32540	
996	0	35352	32281	32590	
997	0	35916	34588	32640	
998	0	36260	35520	32680	
999	0	35460	34492	32729	
1000	0	34648	34850	32750	
1001	0	34232	32332	32772	
1002	0	33774	30572	32798	
1003	0	33080	32060	32788	
1004	0	32216	33992	32789	
1005	0	31252	35300	32752	
1006	0	30804	32672	32704	
1007	0	30464	28980	32646	
1008	0	30778	29524	32536	
1009	0	30948	35900	32396	
1010	0	30876	36092	32252	
1011	0	30952	32720	32072	
1012	0	31048	30440	31880	
1013	0	31472	30672	31697	
1014	0	32884	29456	31472	
1015	0	33448	30941	31270	
1016	0	34728	36232	31028	
1017	0	35684	36124	30812	
1018	0	36668	33460	30608	
1019	0	37504	32544	30406	
1020	0	36540	30808	30209	
1021	0	35176	30904	30061	
1022	0	33920	32376	29924	
1023	0	32548	33158	29812	
1024	0	31664	32994	29744	
1025	0	31660	34016	29695	
1026	0	31456	35040	29682	
1027	0	31224	32594	29702	
1028	0	30488	30784	29753	
1029	0	30368	29504	29832	
1030	0	30386	30828	29937	
1031	0	31228	30430	30064	
1032	0	31964	30956	30204	
1033	0	32380	33784	30332	
1034	0	32578	35444	30515	
1035	0	33568	33943	30700	
1036	0	34161	32088	30888	
1037	0	34192	28478	31088	
1038	0	34500	31970	31278	
1039	0	34488	32394	31426	
1040	0	34392	33832	31574	
1041	0	34249	36425	31729	
1042	0	33812	35293	31870	
1043	0	33305	34234	32018	
1044	0	32808	32704	32156	
1045	0	32388	29872	32288	
1046	0	32056	31736	32433	
1047	0	31544	34945	32532	
1048	0	31132	36436	32638	
1049	0	31224	36461	32741	
1050	0	31240	32540	32820	
1051	0	31197	30148	32900	
1052	0	31552	31746	32990	
1053	0	32410	33238	33076	
1054	0	32780	32222	33174	
1055	0	32800	31788	33250	
1056	0	32821	31812	33327	
1057	0	32976	33468	33368	
1058	0	33656	35480	33383	
1059	0	33840	33829	33428	
1060	0	34369	32812	33430	
1061	0	35181	32714	33405	
1062	0	36104	33200	33358	
1063	0	34548	32740	33298	
1064	0	33848	31622	33220	
1065	0	33064	32964	33128	
1066	0	31328	30246	33010	
1067	0	30624	31516	32872	
1068	0	30948	32500	32696	
1069	0	32396	34100	32540	
1070	0	32144	34246	32308	
1071	0	31664	33908	32108	
1072	0	31424	33012	31904	
1073	0	31380	32224	31666	
1074	0	31484	32036	31481	
1075	0	31396	32654	31310	
1076	0	32384	32663	31133	
1077	0	33684	32506	30992	
1078	0	34820	32748	30914	
1079	0	35524	32488	30824	
1080	0	35600	32885	30781	
1081	0	35340	32650	30770	
1082	0	33740	33506	30788	
1083	0	32364	33936	30830	
1084	0	31340	32500	30924	
1085	0	30581	30141	31017	
1086	0	30112	32157	31144	
1087	0	32119	34148	31268	
1088	0	32924	33204	31436	
1089	0	32303	33536	31576	
1090	0	31788	32209	31693	
1091	0	31836	31612	31804	
1092	0	31788	32804	31944	
1093	0	33145	33232	32096	
1094	0	33653	33305	32202	
1095	0	34002	33264	32321	
1096	0	34460	32684	32410	
1097	0	33866	32225	32481	
1098	0	33592	32584	32529	
1099	0	33904	32785	32600	
1100	0	33764	32493	32661	
1101	0	33697	32436	32668	
1102	0	33618	32668	32688	
1103	0	33316	33892	32716	
1104	0	32840	34680	32732	
1105	0	32196	34636	32732	
1106	0	31848	32357	32702	
1107	0	31488	31365	32655	
1108	0	31068	32956	32596	
1109	0	31108	33662	32522	
1110	0	31296	35244	32460	
1111	0	31530	35654	32409	
1112	0	31920	35144	32298	
1113	0	32132	33248	32173	
1114	0	32728	29876	32032	
1115	0	33072	27601	31872	
1116	0	33108	24632	31696	
1117	0	33026	30566	31472	
1118	0	33756	37236	31246	
1119	0	34456	37892	31001	
1120	0	34472	33864	30720	
1121	0	34208	31333	30388	
1122	0	34088	31928	30026	
1123	0	33588	29792	29670	
1124	0	33244	31365	29346	
1125	0	32542	33208	29036	
1126	0	31688	35009	28788	
1127	0	31248	34108	28582	
1128	0	31300	34458	28425	
1129	0	31385	31532	28305	
1130	0	31724	27868	28285	
1131	0	31904	29288	28320	
1132	0	31672	31372	28404	
1133	0	32056	28609	28588	
1134	0	32508	31137	28777	
1135	0	32896	31873	29020	
1136	0	33624	36148	29244	
1137	0	34288	39380	29500	
1138	0	34612	37741	29828	
1139	0	34476	37364	30148	
1140	0	33665	36612	30464	
1141	0	33284	33936	30740	
1142	0	32765	31426	31064	
1143	0	32628	29848	31368	
1144	0	33206	30592	31666	
1145	0	32097	30464	31900	
1146	0	32601	32892	32128	
1147	0	33508	35136	32376	
1148	0	32972	33472	32549	
1149	0	32758	31948	32788	
1150	0	32072	32517	32977	
1151	0	31316	31716	33148	
1152	0	31060	28800	33340	
1153	0	31628	28630	33519	
1154	0	32216	31156	33677	
1155	0	33016	34208	33792	
1156	0	33676	37521	33864	
1157	0	33816	38560	33928	
1158	0	33840	35262	33944	
1159	0	34112	32317	33921	
1160	0	34156	32002	33896	
1161	0	33976	30353	33841	
1162	0	33868	27661	33740	
1163	0	33469	30136	33630	
1164	0	33068	34116	33594	
1165	0	32372	34004	33525	
1166	0	31424	35335	33316	
1167	0	30820	32548	33136	
1168	0	31040	30012	32936	
1169	0	31136	28696	32744	
1170	0	31121	33060	32600	
1171	0	31472	34138	32428	
1172	0	32270	35848	32270	
1173	0	32749	35974	32188	
1174	0	32852	30452	32092	
1175	0	33048	31534	31981	
1176	0	33377	34240	31904	
1177	0	33973	33148	31836	
1178	0	34138	31636	31784	
1179	0	34356	31936	31756	
1180	0	34296	32880	31694	
1181	0	34168	34423	31605	
1182	0	33780	36232	31468	
1183	0	33368	35264	31340	
1184	0	32568	30801	31216	
1185	0	31968	29756	31128	
1186	0	31328	32586	31036	
1187	0	30654	33860	30989	
1188	0	30689	33342	30940	
1189	0	30864	32004	30896	
1190	0	31808	30340	30854	
1191	0	32810	30254	30880	
1192	0	33480	31792	30908	
1193	0	34168	32036	30496	
1194	0	33948	32384	31045	
1195	0	33716	32487	31848	
1196	0	33389	32796	31793	
1197	0	33385	33148	31588	
1198	0	33460	32716	31464	
1199	0	33804	32428	31469	
1200	0	33852	32611	31504	
1201	0	33745	32676	31632	
1202	0	33594	33273	31829	
1203	0	33276	31716	31940	
1204	0	32832	31647	31996	
1205	0	32320	32696	32016	
1206	0	31876	36516	32032	
1207	0	31584	35188	31900	
1208	0	31324	33004	31696	
1209	0	31125	29412	32156	
1210	0	31044	27632	32288	
1211	0	31440	28372	32101	
1212	0	31668	31472	31974	
1213	0	31996	33356	31852	
1214	0	32676	32698	31716	
1215	0	33668	36098	31569	
1216	0	34124	38928	31469	
1217	0	34561	36154	31376	
1218	0	34526	32964	31324	
1219	0	33984	35968	31052	
1220	0	33424	30217	31464	
1221	0	33065	34120	31508	
1222	0	33440	36692	31356	
1223	0	33530	30618	31148	
1224	0	32760	30006	30905	
1225	0	32116	30089	30604	
1226	0	31968	29254	30294	
1227	0	31837	32856	30018	
1228	0	31740	36144	29760	
1229	0	31480	37152	29556	
1230	0	31240	37304	29389	
1231	0	31390	36585	29253	
1232	0	31828	31984	29081	
1233	0	32164	29406	28927	
1234	0	33316	28572	28812	
1235	0	33569	30774	28714	
1236	0	33748	30524	28632	
1237	0	33448	27060	28640	
1238	0	32622	23536	28640	
1239	0	33090	20461	28616	
1240	0	33652	23136	28664	
1241	0	34044	31524	28789	
1242	0	34820	43208	28832	
1243	0	34748	48808	28920	
1244	0	33808	52832	29028	
1245	0	33016	45044	29210	
1246	0	32720	32092	29432	
1247	0	32530	28202	29700	
1248	0	31816	30484	29976	
1249	0	30752	28450	30274	
1250	0	30692	30900	30496	
1251	0	31124	33260	30612	
1252	0	31672	35798	30884	
1253	0	31876	31336	31066	
1254	0	32532	30960	31252	
1255	0	33116	31808	31385	
1256	0	33440	32284	31494	
1257	0	33660	30376	31588	
1258	0	33824	31096	31687	
1259	0	33948	32020	31807	
1260	0	33868	31637	31920	
1261	0	33728	32332	31993	
1262	0	33396	32293	32088	
1263	0	32996	32432	32182	
1264	0	32504	31340	32260	
1265	0	31688	31897	32322	
1266	0	31244	32382	32369	
1267	0	31752	29896	32444	
1268	0	32492	32708	32484	
1269	0	32604	33352	32552	
1270	0	32000	32482	32617	
1271	0	32012	34045	32632	
1272	0	32668	33862	32660	
1273	0	33324	29380	32716	
1274	0	33568	29600	32796	
1275	0	33236	30812	32868	
1276	0	33426	27808	32952	
1277	0	33472	31078	33028	
1278	0	33488	34276	33129	
1279	0	33824	34681	33226	
1280	0	34020	38596	33304	
1281	0	33792	41417	33412	
1282	0	34308	37084	33492	
1283	0	33436	36508	33556	
1284	0	32872	35324	33608	
1285	0	32080	35020	33625	
1286	0	30988	31828	33625	
1287	0	30204	32036	33578	
1288	0	30820	31909	33504	
1289	0	32252	29752	33406	
1290	0	32221	28128	33262	
1291	0	31672	26188	33110	
1292	0	31568	27537	32932	
1293	0	31932	31176	32796	
1294	0	32713	35236	32668	
1295	0	33344	40208	32556	
1296	0	33848	40981	32444	
1297	0	33956	38354	32384	
1298	0	33812	36996	32305	
1299	0	33861	34888	32256	
1300	0	33912	33533	32295	
1301	0	33896	32425	32272	
1302	0	34128	31903	32192	
1303	0	34333	31614	32244	
1304	0	33749	31532	32238	
1305	0	32548	32292	32274	
1306	0	32068	31204	32260	
1307	0	31820	33796	32272	
1308	0	31656	34120	32294	
1309	0	31504	32216	32288	
1310	0	31604	32212	32266	
1311	0	31908	31519	32204	
1312	0	31984	30656	32096	
1313	0	32008	29680	31965	
1314	0	31960	34612	31816	
1315	0	32066	34310	31624	
1316	0	31956	32400	31433	
1317	0	32950	30980	31213	
1318	0	33748	28804	31018	
1319	0	34560	30996	30840	
1320	0	34678	32530	30663	
1321	0	34556	33533	30532	
1322	0	34396	31341	30388	
1323	0	33792	27556	30276	
1324	0	33180	35956	30233	
1325	0	32864	41940	29988	
1326	0	31968	36588	29868	
1327	0	31152	33690	29682	
1328	0	30864	35344	29524	
1329	0	30728	37100	29362	
1330	0	31092	35824	29204	
1331	0	31748	35604	29077	
1332	0	32665	33260	29042	
1333	0	32770	30696	29076	
1334	0	32832	28949	29138	
1335	0	33090	31205	29264	
1336	0	34222	30884	29456	
1337	0	34080	28293	29648	
1338	0	33864	32478	29866	
1339	0	33892	33890	30120	
1340	0	34004	34153	30352	
1341	0	33984	29970	30581	
1342	0	34064	33760	30784	
1343	0	33940	36518	30975	
1344	0	32972	33365	31182	
1345	0	32304	33444	31364	
1346	0	31700	27696	31484	
1347	0	31304	28892	31556	
1348	0	31504	31574	31620	
1349	0	31620	25765	31670	
1350	0	31534	25892	31724	
1351	0	31236	29314	31724	
1352	0	31180	43588	31716	
1353	0	31441	43783	31716	
1354	0	32000	38480	31710	
1355	0	32956	38464	31716	
1356	0	34132	39114	31722	
1357	0	34872	31816	31708	
1358	0	35020	28276	31748	
1359	0	34437	34288	31756	
1360	0	34348	34637	31791	
1361	0	33926	35223	31816	
1362	0	33700	32320	31821	
1363	0	32972	28669	31830	
1364	0	32284	31664	31849	
1365	0	32368	33528	31834	
1366	0	32440	32629	31822	
1367	0	32151	31244	31820	
1368	0	31416	31897	31796	
1369	0	31244	30256	31744	
1370	0	31288	30824	31701	
1371	0	31612	31916	31638	
1372	0	31816	33312	31576	
1373	0	32116	28320	31480	
1374	0	32489	27844	31372	
1375	0	33104	29762	31268	
1376	0	33432	34724	31128	
1377	0	33608	34300	31011	
1378	0	33360	37820	30897	
1379	0	32729	37652	30788	
1380	0	32532	33848	30720	
1381	0	33268	39360	30656	
1382	0	33862	33093	30608	
1383	0	34472	28212	30583	
1384	0	34148	29327	30556	
1385	0	35188	29836	30550	
1386	0	34736	29904	30538	
1387	0	32756	27728	30585	
1388	0	31272	32564	30641	
1389	0	30716	34268	30704	
1390	0	30809	38121	30773	
1391	0	31136	32020	30860	
1392	0	31416	22680	30948	
1393	0	31840	20756	31036	
1394	0	32388	34160	31108	
1395	0	32964	42812	31200	
1396	0	33268	51696	31296	
1397	0	33628	51892	31356	
1398	0	33936	38529	31425	
1399	0	34208	35208	31468	
1400	0	34028	32597	31541	
1401	0	33668	32288	31620	
1402	0	33596	29944	31696	
1403	0	33552	29944	31772	
1404	0	32774	29350	31828	
1405	0	32040	27728	31890	
1406	0	31632	28808	31972	
1407	0	31792	31076	32031	
1408	0	31868	33980	32064	
1409	0	31688	34049	32100	
1410	0	31256	33645	32117	
1411	0	30900	31356	32124	
1412	0	31168	31548	32100	
1413	0	31520	30727	32073	
1414	0	32384	28016	32048	
1415	0	33356	29528	31988	
1416	0	34080	34296	31936	
1417	0	34728	33840	31888	
1418	0	34685	34252	31844	
1419	0	34544	31794	31800	
1420	0	34288	30872	31757	
1421	0	33708	32828	31728	
1422	0	33729	33892	31700	
1423	0	33589	34052	31704	
1424	0	33108	31798	31702	
1425	0	32556	35416	31704	
1426	0	31993	36063	31704	
1427	0	31638	34864	31760	
1428	0	31460	32840	31766	
1429	0	31308	31121	31765	
1430	0	31500	30996	31749	
1431	0	31568	30742	31688	
1432	0	31624	32220	31620	
1433	0	32072	30669	31540	
1434	0	32556	29050	31436	
1435	0	32960	27391	31284	
1436	0	34152	25989	31112	
1437	0	34004	34108	30916	
1438	0	33448	40280	30696	
1439	0	32720	44116	30494	
1440	0	33336	39792	30308	
1441	0	34076	36160	30148	
1442	0	34220	29113	30013	
1443	0	34372	19437	29916	
1444	0	34880	18140	29908	
1445	0	33132	25925	29924	
1446	0	31504	39472	29973	
1447	0	31196	53232	30064	
1448	0	31452	46924	30160	
1449	0	31456	39716	30240	
1450	0	31725	31768	30340	
1451	0	32052	28516	30462	
1452	0	31936	29676	30599	
1453	0	32024	29872	30752	
1454	0	32408	30424	30905	
1455	0	32768	31495	31052	
1456	0	32729	32932	31208	
1457	0	33008	29200	31337	
1458	0	33572	21665	31452	
1459	0	33640	21534	31528	
1460	0	33284	35800	31556	
1461	0	33204	45604	31590	
1462	0	33361	36268	31572	
1463	0	34092	31057	31498	
1464	0	33972	34634	31364	
1465	0	33802	34960	31236	
1466	0	33640	36104	31069	
1467	0	33496	37948	30912	
1468	0	32349	29784	30791	
1469	0	30752	28196	30668	
1470	0	30944	24894	30581	
1471	0	31676	39900	30529	
1472	0	32072	42004	30496	
1473	0	32100	38220	30469	
1474	0	32160	34696	30460	
1475	0	31896	29120	30478	
1476	0	32384	27384	30489	
1477	0	33496	27647	30504	
1478	0	33580	28239	30532	
1479	0	33524	29668	30554	
1480	0	33744	35048	30552	
1481	0	33325	36468	30532	
1482	0	33860	39788	30524	
1483	0	33596	32816	30536	
1484	0	33436	30708	30548	
1485	0	33117	28452	30560	
1486	0	32728	32110	30532	
1487	0	32376	35628	30460	
1488	0	31753	30952	30360	
1489	0	31452	30633	30184	
1490	0	31576	32144	29972	
1491	0	31856	31482	29692	
1492	0	32060	29740	29404	
1493	0	32328	34596	29140	
1494	0	32583	36204	28890	
1495	0	32876	36368	28708	
1496	0	33040	34228	28604	
1497	0	33482	32346	28552	
1498	0	33712	34127	28592	
1499	0	33796	32512	28716	
1500	0	33905	26354	28872	
1501	0	33797	26312	29120	
1502	0	33720	35888	29376	
1503	0	33380	37864	29689	
1504	0	33060	40409	30020	
1505	0	32660	36936	30312	
1506	0	32233	32845	30628	
1507	0	31860	31750	30924	
1508	0	31804	31620	31212	
1509	0	31588	31540	31468	
1510	0	31249	31745	31672	
1511	0	31364	31977	31836	
1512	0	31528	32036	31973	
1513	0	31776	31416	32092	
1514	0	32390	31182	32185	
1515	0	32964	32916	32321	
1516	0	33452	31484	32448	
1517	0	34020	31009	32560	
1518	0	34956	34660	32736	
1519	0	35564	31337	32868	
1520	0	35068	31566	32996	
1521	0	34016	36200	33168	
1522	0	33320	34097	33349	
1523	0	32975	31574	33534	
1524	0	32805	36228	33696	
1525	0	32613	36101	33812	
1526	0	32300	31508	33873	
1527	0	31857	28893	33862	
1528	0	31704	30120	33754	
1529	0	31620	29540	33584	
1530	0	31580	29192	33320	
1531	0	31424	31332	33018	
1532	0	31576	35060	32672	
1533	0	31900	34696	32357	
1534	0	32090	36357	32076	
1535	0	32560	34085	31865	
1536	0	31788	35176	31729	
1537	0	32097	30580	31632	
1538	0	32600	26328	31589	
1539	0	32792	33274	31604	
1540	0	34272	44692	31656	
1541	0	35908	40864	31740	
1542	0	34884	35188	31812	
1543	0	34280	30848	31893	
1544	0	34312	24110	31956	
1545	0	34444	34168	31992	
1546	0	33844	37356	32041	
1547	0	33414	36696	32041	
1548	0	32008	34208	32040	
1549	0	30536	31800	32006	
1550	0	30608	25444	31948	
1551	0	31032	25696	31868	
1552	0	31148	22236	31748	
1553	0	32216	30130	31646	
1554	0	33560	35080	31556	
1555	0	33676	39152	31504	
1556	0	33396	41144	31472	
1557	0	32888	39308	31433	
1558	0	32644	36360	31412	
1559	0	32900	33290	31396	
1560	0	33252	32916	31408	
1561	0	33208	32356	31428	
1562	0	33096	30312	31412	
1563	0	32676	27698	31376	
1564	0	32532	28478	31304	
1565	0	32760	39208	31228	
1566	0	32768	37942	31184	
1567	0	32488	35214	31120	
1568	0	32092	33025	31108	
1569	0	31692	27268	31156	
1570	0	31512	22812	31224	
1571	0	31772	24708	31316	
1572	0	31684	35472	31400	
1573	0	32188	39828	31472	
1574	0	33042	24216	31504	
1575	0	33816	24904	31516	
1576	0	34292	36817	31494	
1577	0	33497	44316	31436	
1578	0	33488	43849	31358	
1579	0	33580	38140	31254	
1580	0	33831	31032	31140	
1581	0	33937	24597	31008	
1582	0	33836	29042	30865	
1583	0	33640	33745	30728	
1584	0	33416	29376	30601	
1585	0	33208	30660	30500	
1586	0	32452	30508	30433	
1587	0	31368	33116	30408	
1588	0	31026	37785	30476	
1589	0	30992	39103	30560	
1590	0	31148	33212	30676	
1591	0	31704	31620	30808	
1592	0	32111	32884	30948	
1593	0	32420	34156	31013	
1594	0	32440	35380	31060	
1595	0	32764	32588	31074	
1596	0	33380	30181	31048	
1597	0	33560	31820	30989	
1598	0	33746	32316	30949	
1599	0	33900	32048	30928	
1600	0	33932	31680	30920	
1601	0	33937	33519	30916	
1602	0	33924	32889	30962	
1603	0	33560	32732	31018	
1604	0	33136	32006	31040	
1605	0	32808	31289	31104	
1606	0	32412	32032	31193	
1607	0	32176	31916	31256	
1608	0	31920	32752	31300	
1609	0	31564	34192	31340	
1610	0	31172	33557	31364	
1611	0	30988	32640	31412	
1612	0	31228	32108	31412	
1613	0	31392	32382	31388	
1614	0	32096	33353	31328	
1615	0	34208	33533	31244	
1616	0	34644	34256	31133	
1617	0	34920	33792	31036	
1618	0	34912	32016	30928	
1619	0	34268	31229	30876	
1620	0	33680	34316	30861	
1621	0	33236	32308	30884	
1622	0	33060	30984	30960	
1623	0	33048	29671	31012	
1624	0	32852	31279	31100	
1625	0	32588	31876	31172	
1626	0	32160	35936	31261	
1627	0	31912	34752	31298	
1628	0	31705	32048	31336	
1629	0	31576	27933	31364	
1630	0	31636	32952	31354	
1631	0	31724	35772	31350	
1632	0	32033	38032	31320	
1633	0	32240	36317	31383	
1634	0	32680	33012	31681	
1635	0	32824	28337	31360	
1636	0	32962	31628	31068	
1637	0	32968	37872	31004	
1638	0	33272	35928	31188	
1639	0	34068	33008	31313	
1640	0	34228	30688	31420	
1641	0	33676	32265	31452	
1642	0	33412	32646	31417	
1643	0	33192	32216	31377	
1644	0	32844	33848	31332	
1645	0	32540	34513	31236	
1646	0	32404	33508	31192	
1647	0	32370	33156	31170	
1648	0	32552	33500	31140	
1649	0	32288	32508	31140	
1650	0	32054	31962	31185	
1651	0	32004	28461	31225	
1652	0	32216	29688	31028	
1653	0	32398	33433	30895	
1654	0	32536	31486	30892	
1655	0	32827	32092	30948	
1656	0	32297	32468	30984	
1657	0	32124	34704	31016	
1658	0	32510	35796	31041	
1659	0	32793	34140	31008	
1660	0	33632	31893	30968	
1661	0	34908	33182	30964	
1662	0	35120	33636	30952	
1663	0	34200	33780	30980	
1664	0	34188	32160	31000	
1665	0	32624	29082	31036	
1666	0	31872	29310	31060	
1667	0	31761	25041	31070	
1668	0	31648	26924	31101	
1669	0	31732	34024	31257	
1670	0	31754	40716	31256	
1671	0	31760	35616	31152	
1672	0	31885	35256	30960	
1673	0	32114	38497	30996	
1674	0	32588	37712	31104	
1675	0	32868	30708	31197	
1676	0	33185	28649	31260	
1677	0	33460	30371	31266	
1678	0	33649	34484	31244	
1679	0	33744	38092	31248	
1680	0	33740	36364	31216	
1681	0	33748	33010	31202	
1682	0	33628	28488	31174	
1683	0	33444	31352	31198	
1684	0	33158	34409	31224	
1685	0	32962	34913	31228	
1686	0	32417	33359	31228	
1687	0	32004	31661	31244	
1688	0	31809	32270	31252	
1689	0	31600	31732	31264	
1690	0	31548	30548	31256	
1691	0	31880	31772	31256	
1692	0	32036	30512	31248	
1693	0	32253	32425	31216	
1694	0	32476	32852	31228	
1695	0	32714	31750	31220	
1696	0	33076	32612	31213	
1697	0	33533	33656	31204	
1698	0	33712	33512	31204	
1699	0	33680	33250	31164	
1700	0	33436	32678	31164	
1701	0	33288	33532	31148	
1702	0	33428	31340	31124	
1703	0	33196	31206	31130	
1704	0	33932	29949	31100	
1705	0	35244	32820	31076	
1706	0	34105	31636	31020	
1707	0	32068	35202	30976	
1708	0	30724	34980	30920	
1709	0	30480	32950	30905	
1710	0	30920	32645	30880	
1711	0	31452	30842	30871	
1712	0	31620	30072	30900	
1713	0	31592	32201	30918	
1714	0	32585	36740	30928	
1715	0	32954	35140	30932	
1716	0	33312	34060	30928	
1717	0	33732	29498	30929	
1718	0	33916	27424	30948	
1719	0	34068	31736	30952	
1720	0	33381	37312	30972	
1721	0	33336	39261	30968	
1722	0	33880	38549	30968	
1723	0	33916	33855	30989	
1724	0	33209	35152	31000	
1725	0	32668	36046	31020	
1726	0	32236	33984	31034	
1727	0	31802	31076	31012	
1728	0	31705	30156	31018	
1729	0	31852	29328	31017	
1730	0	31832	31316	31000	
1731	0	31772	32358	31014	
1732	0	32200	32368	31202	
1733	0	32332	34142	31125	
1734	0	32919	33902	30944	
1735	0	33104	33304	30848	
1736	0	33248	32560	30952	
1737	0	33488	33524	31045	
1738	0	33580	30318	31076	
1739	0	33612	30985	31052	
1740	0	33728	32580	31026	
1741	0	33456	32896	30991	
1742	0	33508	32618	30968	
1743	0	33368	31808	30926	
1744	0	33040	30497	30916	
1745	0	32792	30892	30936	
1746	0	32390	32601	30936	
1747	0	32012	31468	30949	
1748	0	31808	31968	30992	
1749	0	31664	29076	31017	
1750	0	31732	28724	31016	
1751	0	31944	37808	31025	
1752	0	32268	40004	31053	
1753	0	32384	40693	31200	
1754	0	32628	33744	31080	
1755	0	32724	33788	30974	
1756	0	33056	31600	30904	
1757	0	33488	30905	30948	
1758	0	33840	33212	31020	
1759	0	33769	34168	31064	
1760	0	33684	32368	31076	
1761	0	32824	31058	31068	
1762	0	32648	33416	31049	
1763	0	33248	34992	31024	
1764	0	33145	34311	31012	
1765	0	33412	32108	31004	
1766	0	32728	33529	30996	
1767	0	31592	31466	31016	
1768	0	31193	29384	31116	
1769	0	31828	30316	30983	
1770	0	34340	33352	30838	
1771	0	34236	34724	30773	
1772	0	31978	31520	30867	
1773	0	31780	27900	30936	
1774	0	32100	27300	30981	
1775	0	32572	34036	30976	
1776	0	32960	38976	30930	
1777	0	33340	38858	30868	
1778	0	33284	33158	30812	
1779	0	33000	31102	30782	
1780	0	33088	34024	30744	
1781	0	33473	33472	30764	
1782	0	33456	31628	30780	
1783	0	33626	31553	30820	
1784	0	34248	34604	30856	
1785	0	33380	33428	30853	
1786	0	32597	31704	30840	
1787	0	31908	29641	30804	
1788	0	31536	30508	30764	
1789	0	31260	31005	30736	
1790	0	31360	32020	30690	
1791	0	31616	33188	30657	
1792	0	31856	32324	30644	
1793	0	31828	34040	30620	
1794	0	31920	33980	30628	
1795	0	32768	33812	30656	
1796	0	33316	32632	30681	
1797	0	33744	32180	30716	
1798	0	33864	32369	30764	
1799	0	34012	31708	30824	
1800	0	33944	29340	30900	
1801	0	33729	29081	30934	
1802	0	33348	34072	30996	
1803	0	33135	36300	31020	
1804	0	33050	35074	31057	
1805	0	33188	34001	31076	
1806	0	32372	33988	31100	
1807	0	33040	33342	31157	
1808	0	32340	32324	31154	
1809	0	31350	32300	31149	
1810	0	31746	33140	31148	
1811	0	32084	32630	31157	
1812	0	31696	32820	31158	
1813	0	31790	32786	31124	
1814	0	32224	32103	31120	
1815	0	32800	30348	31104	
1816	0	33220	30344	31056	
1817	0	33592	32902	31018	
1818	0	33640	35882	31024	
1819	0	33728	34220	30996	
1820	0	33749	28804	30968	
1821	0	33920	26286	30972	
1822	0	33808	31488	30949	
1823	0	33632	33334	30944	
1824	0	33388	33644	30940	
1825	0	33088	42276	30952	
1826	0	32172	39247	30961	
1827	0	31524	37592	30957	
1828	0	31609	33013	30961	
1829	0	31761	31553	30980	
1830	0	31388	31196	30978	
1831	0	31344	30132	30960	
1832	0	31664	30613	30956	
1833	0	32020	29950	30962	
1834	0	32312	31088	30940	
1835	0	32980	31132	30946	
1836	0	33284	30128	30932	
1837	0	33628	31812	30941	
1838	0	33856	34904	30944	
1839	0	34028	40372	30934	
1840	0	33948	38326	30928	
1841	0	33600	35640	30902	
1842	0	33557	33908	30912	
1843	0	33296	30352	30936	
1844	0	33520	30296	30940	
1845	0	31608	31980	30940	
1846	0	31336	32972	30970	
1847	0	30772	30996	30944	
1848	0	30388	29708	30960	
1849	0	31220	30608	30964	
1850	0	33012	32404	30964	
1851	0	34384	32872	30944	
1852	0	34656	31724	30924	
1853	0	34064	29672	30875	
1854	0	34008	31636	30832	
1855	0	34092	37024	30833	
1856	0	33612	34213	30848	
1857	0	32936	34655	30849	
1858	0	32868	32364	30853	
1859	0	33072	34100	30833	
1860	0	33208	34237	30844	
1861	0	33304	32333	30836	
1862	0	33524	30808	30829	
1863	0	33289	28140	30816	
1864	0	32910	29404	30800	
1865	0	32528	35172	30756	
1866	0	32128	35462	30744	
1867	0	31814	31960	30757	
1868	0	31637	35905	30777	
1869	0	31472	33145	30792	
1870	0	30362	35077	30812	
1871	0	30382	35617	30840	
1872	0	31252	33148	30846	
1873	0	31964	33588	30825	
1874	0	32872	31881	30830	
1875	0	33644	29176	30816	
1876	0	34016	26934	30790	
1877	0	33900	33340	30764	
1878	0	33660	35436	30736	
1879	0	33710	39804	30688	
1880	0	34012	35744	30672	
1881	0	33888	33960	30660	
1882	0	33628	32812	30656	
1883	0	33590	31046	30682	
1884	0	33286	31120	30708	
1885	0	32300	31264	30741	
1886	0	31580	30834	30790	
1887	0	31468	30097	30828	
1888	0	31056	32354	30829	
1889	0	30664	32223	30848	
1890	0	31689	31668	30857	
1891	0	33840	28649	30864	
1892	0	33024	35119	30884	
1893	0	32285	36944	30893	
1894	0	32700	34548	30896	
1895	0	33730	34878	30892	
1896	0	33604	34766	30874	
1897	0	33569	33324	30858	
1898	0	33656	33372	30867	
1899	0	33500	31892	30865	
1900	0	33400	31661	30875	
1901	0	33313	31094	30906	
1902	0	33962	31713	30900	
1903	0	34576	32924	30928	
1904	0	33712	33348	30916	
1905	0	32669	33352	30928	
1906	0	32236	30716	30944	
1907	0	31720	29574	30945	
1908	0	31460	29729	30972	
1909	0	31164	30796	30980	
1910	0	31128	36408	30980	
1911	0	31424	37532	30980	
1912	0	31712	40181	31020	
1913	0	31988	35420	31009	
1914	0	32444	32692	31020	
1915	0	32884	28469	31016	
1916	0	33216	27260	31005	
1917	0	33737	29913	30999	
1918	0	33900	28850	31000	
1919	0	33990	30988	30992	
1920	0	34030	30332	30961	
1921	0	34020	35396	30968	
1922	0	33978	40302	30983	
1923	0	33792	38536	30961	
1924	0	33224	34888	30971	
1925	0	32677	31792	30956	
1926	0	32188	33730	30956	
1927	0	31760	33041	30952	
1928	0	31568	32408	30948	
1929	0	32213	30092	30948	
1930	0	31576	31789	30952	
1931	0	31380	33296	30956	
1932	0	31584	33372	30952	
1933	0	31928	32716	30938	
1934	0	32156	34132	30928	
1935	0	32476	34841	30916	
1936	0	32957	31760	30916	
1937	0	33652	31388	30914	
1938	0	33992	32636	30920	
1939	0	34164	34920	30920	
1940	0	34980	35308	30932	
1941	0	34520	32768	30900	
1942	0	33912	27188	30872	
1943	0	33628	29582	30836	
1944	0	33076	33113	30829	
1945	0	32560	32548	30816	
1946	0	32040	32180	30812	
1947	0	31704	33638	30789	
1948	0	31360	34047	30784	
1949	0	31144	29624	30764	
1950	0	31574	31728	30741	
1951	0	31764	33632	30726	
1952	0	32004	33546	30701	
1953	0	32064	34636	30692	
1954	0	32432	32644	30685	
1955	0	32780	30224	30687	
1956	0	33140	33832	30693	
1957	0	33517	34634	30727	
1958	0	33812	35396	30737	
1959	0	33968	32200	30768	
1960	0	33700	30573	30765	
1961	0	33905	32184	30773	
1962	0	33936	32167	30773	
1963	0	33738	32170	30766	
1964	0	34284	30645	30769	
1965	0	33910	33357	30772	
1966	0	32668	32788	30784	
1967	0	31548	32861	30753	
1968	0	31193	33184	30760	
1969	0	30860	33490	30772	
1970	0	30688	34699	30761	
1971	0	31056	36500	30752	
1972	0	31340	38247	30753	
1973	0	32372	36448	30748	
1974	0	33536	31976	30721	
1975	0	33764	30868	30677	
1976	0	33484	32362	30641	
1977	0	33234	31964	30620	
1978	0	33222	32612	30616	
1979	0	33460	31360	30617	
1980	0	34029	29060	30636	
1981	0	34288	32648	30664	
1982	0	33924	33436	30703	
1983	0	33388	32574	30720	
1984	0	32932	31701	30727	
1985	0	32380	35780	30745	
1986	0	32564	34756	30756	
1987	0	32808	32546	30776	
1988	0	31233	31516	30788	
1989	0	30276	30484	30776	
1990	0	30012	31976	30778	
1991	0	30633	33172	30798	
1992	0	32566	31826	30800	
1993	0	33068	31302	30804	
1994	0	32845	34152	30794	
1995	0	32500	33988	30804	
1996	0	33028	31926	30804	
1997	0	34637	32647	30824	
1998	0	35648	33772	30816	
1999	0	35393	35360	30828	
2000	0	35292	34510	30852	
2001	0	34712	33709	30842	
2002	0	33552	31119	30845	
2003	0	32928	30310	30852	
2004	0	32528	26119	30884	
2005	0	32129	31216	30887	
2006	0	31804	31680	30879	
2007	0	31544	33288	30869	
2008	0	31504	37488	30872	
2009	0	31125	35205	30880	
2010	0	31012	34344	30897	
2011	0	31224	35581	30912	
2012	0	31540	33160	30944	
2013	0	31932	34557	30936	
2014	0	32265	29632	30976	
2015	0	32785	29080	30978	
2016	0	33194	31088	30956	
2017	0	33664	37000	30960	
2018	0	33824	37381	30960	
2019	0	34120	34904	30949	
2020	0	34356	31780	30924	
2021	0	34320	29521	30909	
2022	0	33872	30398	30888	
2023	0	33599	30976	30884	
2024	0	32948	35029	30888	
2025	0	32564	34981	30894	
2026	0	32216	32164	30896	
2027	0	32178	31148	30884	
2028	0	32180	30476	30886	
2029	0	31696	34956	30878	
2030	0	31416	34200	30860	
2031	0	31420	31001	30864	
2032	0	31574	33184	30837	
2033	0	32640	34086	30824	
2034	0	32396	33556	30836	
2035	0	32712	32544	30812	
2036	0	32844	30400	30812	
2037	0	33081	29294	30797	
2038	0	33513	35908	30820	
2039	0	33765	36400	30792	
2040	0	34144	35581	30800	
2041	0	34720	32052	30792	
2042	0	34200	30176	30800	
2043	0	33408	28319	30797	
2044	0	33032	29640	30796	
2045	0	32748	32293	30768	
2046	0	33312	34000	30756	
2047	0	32512	33533	30754	
2048	0	31864	40768	30736	
2049	0	31436	36485	30742	
2050	0	30784	31496	30726	
2051	0	30581	29580	30720	
2052	0	31168	32748	30705	
2053	0	31917	34212	30684	
2054	0	32521	33664	30692	
2055	0	33780	31276	30704	
2056	0	34120	30342	30702	
2057	0	33592	33956	30704	
2058	0	33408	33708	30716	
2059	0	33488	34761	30720	
2060	0	34076	31928	30736	
2061	0	34400	31596	30709	
2062	0	34117	32396	30724	
2063	0	33876	33037	30745	
2064	0	33648	31188	30757	
2065	0	33096	29423	30774	
2066	0	32044	30624	30784	
2067	0	31452	32806	30788	
2068	0	31218	34465	30801	
2069	0	30392	36085	30800	
2070	0	30085	34244	30798	
2071	0	29636	34828	30794	
2072	0	30048	32760	30792	
2073	0	30780	33857	30780	
2074	0	32848	33744	30770	
2075	0	35060	32262	30772	
2076	0	37172	31169	30786	
2077	0	36728	32636	30776	
2078	0	36136	32559	30777	
2079	0	34152	33799	30800	
2080	0	33328	32925	30826	
2081	0	33360	32678	30841	
2082	0	33340	32108	30837	
2083	0	33262	31999	30860	
2084	0	33044	31174	30884	
2085	0	32620	29788	30910	
2086	0	32040	33304	30901	
2087	0	31540	38808	30940	
2088	0	31264	31400	30948	
2089	0	30801	28908	30964	
2090	0	30900	28996	30966	
2091	0	31048	31709	30960	
2092	0	31248	36102	30974	
2093	0	31672	34874	30994	
2094	0	32172	35172	31012	
2095	0	32828	34257	31002	
2096	0	33257	35217	31018	
2097	0	33732	34764	31030	
2098	0	34204	32176	31024	
2099	0	34252	30364	31032	
2100	0	34492	30380	31032	
2101	0	34492	33260	31028	
2102	0	34016	35432	31019	
2103	0	33572	32872	31036	
2104	0	33248	30836	31052	
2105	0	32996	33732	31072	
2106	0	32484	34332	31084	
2107	0	31792	32728	31084	
2108	0	31592	30840	31073	
2109	0	31425	30668	31074	
2110	0	31216	31224	31060	
2111	0	31250	27593	31037	
2112	0	31540	29864	31014	
2113	0	31828	34668	31002	
2114	0	32324	39017	30976	
2115	0	32768	40336	30974	
2116	0	33312	34560	30956	
2117	0	33952	32532	30932	
2118	0	34308	32641	30908	
2119	0	34112	33268	30888	
2120	0	34052	32056	30900	
2121	0	33984	31558	30892	
2122	0	33892	31820	30904	
2123	0	33648	31409	30909	
2124	0	33508	32924	30908	
2125	0	32928	33006	30901	
2126	0	32436	32322	30914	
2127	0	31856	31180	30892	
2128	0	31598	27784	30864	
2129	0	31244	30621	30876	
2130	0	31152	35908	30900	
2131	0	31384	34204	30884	
2132	0	31504	34709	30868	
2133	0	31156	33818	30865	
2134	0	31612	34758	30872	
2135	0	32384	33725	30848	
2136	0	32668	32945	30837	
2137	0	34398	32624	30837	
2138	0	35997	32564	30821	
2139	0	35236	33382	30828	
2140	0	34436	32684	30812	
2141	0	34030	32604	30796	
2142	0	33452	33832	30797	
2143	0	33589	31613	30800	
2144	0	33120	32285	30806	
2145	0	32144	30896	30800	
2146	0	31636	29247	30789	
2147	0	32041	31989	30816	
2148	0	30984	33212	30828	
2149	0	30772	32128	30830	
2150	0	31840	32676	30833	
2151	0	32458	35232	30820	
2152	0	33088	35173	30844	
2153	0	33524	33919	30840	
2154	0	33697	30916	30812	
2155	0	32740	32033	30808	
2156	0	32273	33900	30809	
2157	0	32868	34281	30822	
2158	0	33424	35724	30824	
2159	0	33624	32880	30816	
2160	0	33600	31502	30816	
2161	0	33586	30684	30797	
2162	0	33733	32249	30805	
2163	0	33732	32384	30814	
2164	0	33348	33248	30828	
2165	0	32720	34756	30826	
2166	0	32324	33072	30855	
2167	0	31752	31548	30845	
2168	0	31410	34804	30844	
2169	0	31468	36628	30852	
2170	0	31588	34332	30824	
2171	0	31824	31860	30829	
2172	0	31800	31000	30852	
2173	0	31984	31224	30844	
2174	0	32432	33700	30836	
2175	0	32684	34494	30823	
2176	0	32864	34054	30812	
2177	0	33197	32548	30796	
2178	0	33429	31976	30792	
2179	0	33473	31300	30808	
2180	0	33644	28316	30800	
2181	0	33921	29537	30800	
2182	0	34144	30631	30812	
2183	0	34288	30672	30812	
2184	0	34000	36888	30824	
2185	0	33360	36524	30831	
2186	0	32962	34564	30833	
2187	0	32645	33544	30862	
2188	0	32194	35957	30876	
2189	0	31400	34612	30897	
2190	0	31052	33421	30892	
2191	0	31016	30500	30892	
2192	0	31122	28608	30908	
2193	0	31517	31480	30909	
2194	0	31912	32965	30902	
2195	0	32536	32648	30903	
2196	0	33840	33445	30898	
2197	0	33824	32420	30910	
2198	0	33982	33037	30932	
2199	0	33700	33918	30928	
2200	0	33952	34821	30912	
2201	0	34392	33663	30934	
2202	0	33992	32892	30944	
2203	0	33644	32742	30964	
2204	0	33520	31972	30988	
2205	0	33562	32104	30985	
2206	0	32640	30314	30998	
2207	0	31665	29676	30991	
2208	0	31216	30458	30988	
2209	0	31000	33985	31012	
2210	0	30948	32814	31011	
2211	0	31388	35112	30994	
2212	0	32284	37232	31024	
2213	0	31984	35264	31016	
2214	0	32186	35932	31004	
2215	0	32612	34470	30980	
2216	0	33220	33860	30976	
2217	0	33330	31452	30976	
2218	0	33814	30576	30984	
2219	0	34149	33124	30962	
2220	0	34340	32248	30955	
2221	0	34542	33973	30972	
2222	0	34300	31972	30977	
2223	0	33917	33329	30942	
2224	0	33376	32705	30925	
2225	0	32848	30794	30908	
2226	0	32268	32040	30901	
2227	0	31621	31748	30916	
2228	0	31408	29640	30912	
2229	0	31304	27788	30908	
2230	0	31176	33308	30913	
2231	0	31524	36570	30921	
2232	0	32050	36824	30910	
2233	0	31936	34188	30912	
2234	0	31924	31812	30920	
2235	0	32184	32180	30904	
2236	0	32780	32780	30896	
2237	0	33452	33188	30869	
2238	0	34000	32010	30836	
2239	0	34552	33556	30808	
2240	0	34708	34161	30836	
2241	0	34528	32548	30834	
2242	0	34076	32021	30838	
2243	0	33916	31734	30840	
2244	0	33448	33185	30841	
2245	0	32880	33336	30860	
2246	0	32376	33404	30868	
2247	0	31748	33332	30882	
2248	0	31404	33303	30877	
2249	0	31108	33668	30865	
2250	0	31180	30756	30890	
2251	0	31374	27292	30900	
2252	0	31424	25324	30912	
2253	0	31528	30448	30910	
2254	0	32264	38888	30916	
2255	0	32956	41760	30916	
2256	0	33446	34852	30900	
2257	0	33972	31556	30900	
2258	0	33972	30793	30896	
2259	0	33464	33562	30889	
2260	0	33407	35036	30904	
2261	0	33876	35288	30911	
2262	0	32676	32444	30884	
2263	0	32801	32420	30852	
2264	0	33736	31148	30833	
2265	0	34460	28777	30810	
2266	0	34036	30168	30788	
2267	0	33372	33376	30780	
2268	0	33124	33299	30800	
2269	0	31680	33081	30820	
2270	0	31432	32660	30830	
2271	0	31208	33360	30815	
2272	0	31030	34905	30817	
2273	0	31128	32320	30825	
2274	0	31596	30016	30820	
2275	0	32212	31520	30816	
2276	0	32728	31524	30824	
2277	0	33200	34345	30842	
2278	0	33660	35645	30830	
2279	0	33660	39140	30840	
2280	0	33852	37917	30840	
2281	0	34132	34873	30853	
2282	0	34220	29392	30849	
2283	0	34664	29830	30837	
2284	0	34372	30878	30852	
2285	0	33180	32126	30868	
2286	0	32352	31817	30888	
2287	0	31732	31225	30900	
2288	0	31652	32138	30929	
2289	0	31156	32980	30946	
2290	0	30844	32617	30956	
2291	0	31376	32804	30989	
2292	0	31802	33057	30976	
2293	0	31564	32057	30972	
2294	0	31984	33080	30940	
2295	0	32570	33830	30940	
2296	0	33236	32556	30944	
2297	0	33788	34532	30949	
2298	0	33940	34626	30932	
2299	0	34000	33053	30922	
2300	0	34314	30608	30920	
2301	0	34397	29309	30912	
2302	0	33884	29600	30908	
2303	0	33798	33572	30888	
2304	0	33412	39262	30885	
2305	0	32972	37612	30896	
2306	0	33072	33824	30876	
2307	0	32264	33824	30882	
2308	0	31368	32668	30880	
2309	0	30940	31844	30879	
2310	0	30760	31728	30884	
2311	0	31976	30936	30856	
2312	0	31622	30048	30850	
2313	0	31748	30906	30846	
2314	0	32196	33336	30862	
2315	0	32592	33572	30869	
2316	0	32940	32616	30859	
2317	0	33397	34376	30891	
2318	0	33788	33116	30856	
2319	0	34012	34209	30864	
2320	0	34192	33164	30848	
2321	0	34250	29852	30845	
2322	0	34048	30016	30869	
2323	0	34140	33201	30879	
2324	0	33634	32290	30892	
2325	0	32600	32186	30880	
2326	0	32256	36377	30896	
2327	0	31929	36444	30912	
2328	0	31860	35372	30908	
2329	0	31890	31456	30924	
2330	0	31788	31600	30929	
2331	0	31292	32028	30938	
2332	0	31344	29096	30944	
2333	0	31712	28144	30948	
2334	0	32081	35352	30948	
2335	0	32340	37444	30940	
2336	0	32576	35872	30920	
2337	0	33079	30092	30916	
2338	0	33764	31944	30916	
2339	0	34212	32936	30905	
2340	0	34996	29248	30918	
2341	0	35176	30060	30928	
2342	0	34388	33914	30928	
2343	0	33992	34673	30914	
2344	0	32660	34540	30914	
2345	0	32036	35221	30904	
2346	0	31968	31622	30908	
2347	0	31452	29918	30920	
2348	0	31136	28656	30916	
2349	0	31496	31258	30908	
2350	0	31728	34609	30912	
2351	0	32132	31681	30916	
2352	0	32676	33060	30900	
2353	0	33229	32488	30889	
2354	0	33464	40432	30908	
2355	0	32540	39104	30916	
2356	0	32172	35424	30892	
2357	0	32500	32752	30877	
2358	0	33132	31448	30872	
2359	0	33396	31392	30861	
2360	0	34776	30608	30855	
2361	0	34421	32092	30832	
2362	0	34256	33672	30836	
2363	0	34209	32060	30824	
2364	0	33616	30524	30824	
2365	0	32688	31644	30820	
2366	0	31996	31613	30844	
2367	0	31100	34870	30857	
2368	0	31048	32548	30852	
2369	0	31690	31879	30884	
2370	0	32216	33036	30874	
2371	0	32520	33237	30860	
2372	0	31784	32132	30846	
2373	0	31321	30324	30828	
2374	0	31800	30212	30806	
2375	0	32520	28952	30799	
2376	0	32932	31864	30792	
2377	0	33320	38008	30784	
2378	0	33828	39516	30768	
2379	0	34082	34165	30772	
2380	0	34232	33245	30799	
2381	0	34164	34754	30801	
2382	0	34124	34042	30830	
2383	0	33977	31768	30832	
2384	0	33601	30574	30844	
2385	0	33104	30532	30884	
2386	0	32624	29461	30906	
2387	0	31980	29092	30929	
2388	0	31377	30889	30952	
2389	0	31137	34108	30956	
2390	0	30876	39808	30976	
2391	0	31052	37282	30972	
2392	0	32008	35813	30946	
2393	0	31850	33192	30959	
2394	0	32116	30284	30942	
2395	0	32708	32278	30924	
2396	0	33036	32044	30910	
2397	0	33364	31081	30892	
2398	0	33838	30721	30902	
2399	0	34160	33836	30892	
2400	0	34080	34324	30876	
2401	0	34260	31452	30888	
2402	0	34552	31976	30900	
2403	0	34104	33884	30917	
2404	0	33416	34924	30964	
2405	0	32820	34664	30974	
2406	0	32396	32564	30981	
2407	0	32621	30529	30981	
2408	0	32258	31193	30978	
2409	0	31388	31504	30992	
2410	0	30868	32476	31008	
2411	0	30944	34517	30988	
2412	0	31300	33140	30980	
2413	0	31773	31096	30960	
2414	0	31888	32672	30945	
2415	0	32624	34292	30936	
2416	0	33508	30276	30936	
2417	0	33296	29092	30904	
2418	0	33264	33804	30892	
2419	0	33808	35116	30888	
2420	0	34328	37477	30894	
2421	0	34400	31504	30896	
2422	0	34456	28509	30904	
2423	0	34092	31980	30909	
2424	0	33620	34460	30929	
2425	0	33176	34614	30953	
2426	0	32313	34989	30948	
2427	0	31568	32622	30949	
2428	0	31392	31900	30954	
2429	0	30881	33217	30998	
2430	0	32404	34908	31016	
2431	0	32304	34430	31014	
2432	0	32064	35472	31008	
2433	0	31628	33680	31004	
2434	0	31744	31828	31012	
2435	0	32188	30476	31013	
2436	0	32594	28668	30988	
2437	0	33292	30112	30980	
2438	0	33996	35856	30964	
2439	0	34245	33028	30972	
2440	0	34280	32484	30960	
2441	0	34302	32514	30952	
2442	0	34244	32196	30949	
2443	0	34080	31862	30954	
2444	0	33684	33146	30960	
2445	0	33184	35124	30948	
2446	0	32644	36332	30924	
2447	0	32088	31826	30892	
2448	0	31538	30432	30880	
2449	0	31054	32190	30869	
2450	0	30768	31198	30876	
2451	0	31084	30456	30886	
2452	0	31546	34226	30884	
2453	0	31808	35825	30905	
2454	0	31885	32564	30884	
2455	0	32388	32362	30886	
2456	0	32804	34116	30878	
2457	0	33300	32566	30854	
2458	0	33672	32164	30849	
2459	0	34014	31525	30824	
2460	0	34389	28140	30836	
2461	0	35134	29034	30833	
2462	0	34848	35812	30837	
2463	0	34312	37264	30842	
2464	0	33504	38792	30844	
2465	0	33120	35172	30856	
2466	0	32728	32870	30860	
2467	0	32016	31876	30868	
2468	0	31356	31064	30849	
2469	0	31088	28868	30820	
2470	0	31048	30189	30794	
2471	0	31996	32748	30804	
2472	0	31749	34020	30808	
2473	0	30988	35380	30808	
2474	0	31209	34293	30830	
2475	0	32308	33124	30860	
2476	0	33200	29972	30868	
2477	0	33702	28751	30868	
2478	0	33964	31376	30862	
2479	0	34268	33057	30852	
2480	0	34477	35804	30849	
2481	0	34540	32988	30865	
2482	0	34384	32224	30846	
2483	0	33985	36265	30848	
2484	0	33348	36696	30857	
2485	0	32928	34927	30862	
2486	0	32676	33967	30860	
2487	0	32013	32796	30857	
2488	0	31600	31890	30872	
2489	0	31016	31359	30880	
2490	0	31124	32232	30880	
2491	0	31520	30990	30844	
2492	0	30393	31348	30853	
2493	0	30564	33215	30864	
2494	0	31128	32001	30868	
2495	0	32409	30988	30892	
2496	0	33746	32916	30890	
2497	0	34557	32034	30890	
2498	0	35417	34472	30885	
2499	0	36554	35612	30888	
2500	0	35624	32592	30886	
2501	0	34112	32164	30895	
2502	0	33508	31892	30881	
2503	0	33264	31912	30885	
2504	0	33364	32271	30894	
2505	0	32968	32256	30857	
2506	0	32132	32340	30868	
2507	0	31234	31476	30884	
2508	0	30976	31417	30896	
2509	0	30792	35192	30892	
2510	0	30728	36702	30895	
2511	0	30792	32980	30900	
2512	0	30452	32206	30902	
2513	0	31857	29344	30902	
2514	0	33265	31030	30900	
2515	0	33604	33902	30917	
2516	0	33169	35318	30900	
2517	0	33232	35000	30897	
2518	0	33612	35190	30892	
2519	0	34164	33268	30913	
2520	0	34308	31673	30917	
2521	0	34342	30058	30916	
2522	0	34144	32452	30924	
2523	0	34068	33973	30948	
2524	0	33776	33332	30934	
2525	0	33392	31440	30944	
2526	0	32868	29802	30944	
2527	0	32140	29975	30940	
2528	0	31616	31698	30948	
2529	0	31253	33128	30948	
2530	0	30884	33304	30953	
2531	0	30884	35512	30984	
2532	0	31254	33017	30956	
2533	0	31520	33915	30961	
2534	0	31988	36668	30968	
2535	0	32421	35666	30974	
2536	0	32977	34040	30961	
2537	0	33472	32822	30972	
2538	0	33788	33249	30984	
2539	0	34116	33338	30986	
2540	0	34176	32191	30993	
2541	0	34148	31102	30988	
2542	0	34496	31808	30960	
2543	0	34832	32658	30952	
2544	0	33980	33616	30922	
2545	0	33300	32390	30924	
2546	0	32748	32132	30913	
2547	0	32304	34020	30904	
2548	0	31754	32212	30925	
2549	0	31232	31012	30933	
2550	0	30880	30646	30936	
2551	0	30852	29540	30944	
2552	0	31102	29972	30928	
2553	0	31408	34536	30904	
2554	0	31868	37968	30904	
2555	0	32412	37341	30896	
2556	0	32932	32986	30861	
2557	0	33468	34820	30852	
2558	0	33828	31444	30844	
2559	0	33908	33021	30853	
2560	0	34012	30188	30844	
2561	0	34172	30888	30844	
2562	0	34528	31754	30852	
2563	0	34942	34616	30856	
2564	0	34532	32328	30874	
2565	0	33484	29436	30869	
2566	0	32436	28720	30870	
2567	0	31664	34628	30881	
2568	0	31160	35781	30852	
2569	0	30976	36226	30836	
2570	0	31820	30750	30833	
2571	0	31100	30013	30832	
2572	0	31152	36176	30816	
2573	0	31541	38664	30818	
2574	0	31852	35514	30814	
2575	0	32232	34104	30808	
2576	0	32660	32166	30804	
2577	0	33024	29460	30786	
2578	0	33530	28549	30764	
2579	0	34082	28728	30792	
2580	0	35444	29074	30800	
2581	0	35060	34808	30796	
2582	0	34152	39188	30788	
2583	0	33536	36897	30784	
2584	0	33297	32688	30804	
2585	0	32445	31496	30820	
2586	0	32044	32498	30828	
2587	0	32184	29646	30825	
2588	0	32660	29310	30832	
2589	0	32417	34604	30832	
2590	0	31988	34006	30836	
2591	0	31124	37100	30844	
2592	0	30751	34098	30848	
2593	0	31236	32320	30864	
2594	0	31662	30220	30858	
2595	0	32210	30160	30861	
2596	0	32932	34512	30872	
2597	0	33904	32176	30868	
2598	0	34970	33088	30852	
2599	0	34469	32352	30840	
2600	0	34140	33124	30833	
2601	0	33738	32542	30842	
2602	0	33594	31853	30852	
2603	0	33652	33620	30873	
2604	0	33820	33744	30884	
2605	0	33560	30932	30910	
2606	0	32916	29920	30913	
2607	0	32277	30344	30928	
2608	0	31544	33513	30920	
2609	0	31032	38292	30930	
2610	0	30708	36576	30932	
2611	0	30648	33820	30926	
2612	0	30929	32980	30936	
2613	0	31404	32048	30946	
2614	0	31960	32978	30921	
2615	0	32677	30372	30901	
2616	0	33232	27776	30928	
2617	0	33553	31434	30924	
2618	0	33882	33466	30920	
2619	0	34128	34493	30924	
2620	0	34213	35826	30920	
2621	0	34272	34200	30894	
2622	0	34216	33020	30902	
2623	0	34096	31680	30880	
2624	0	34910	30742	30869	
2625	0	33980	32184	30888	
2626	0	32620	34536	30874	
2627	0	31788	36148	30890	
2628	0	31156	33900	30885	
2629	0	31056	31580	30892	
2630	0	30801	31136	30870	
2631	0	31030	32428	30864	
2632	0	31576	31529	30864	
2633	0	31776	31990	30868	
2634	0	31800	32276	30896	
2635	0	32276	34496	30904	
2636	0	33192	31804	30908	
2637	0	34116	30684	30925	
2638	0	34100	29524	30922	
2639	0	34032	33704	30900	
2640	0	34148	37186	30904	
2641	0	34356	33932	30920	
2642	0	34272	34232	30929	
2643	0	34100	34320	30924	
2644	0	33862	32569	30964	
2645	0	33308	31032	30940	
2646	0	32708	31109	30952	
2647	0	32120	35030	30996	
2648	0	31308	31260	30976	
2649	0	30912	32052	30952	
2650	0	30804	32205	30964	
2651	0	30888	33740	30949	
2652	0	31289	32940	30948	
2653	0	31612	32444	30936	
2654	0	32032	32864	30912	
2655	0	32476	32216	30865	
2656	0	33004	33057	30847	
2657	0	33604	31800	30832	
2658	0	33936	32644	30821	
2659	0	34200	36264	30801	
2660	0	34301	36464	30784	
2661	0	34462	34132	30790	
2662	0	34316	31440	30765	
2663	0	34328	33030	30759	
2664	0	33956	31553	30760	
2665	0	33292	31670	30788	
2666	0	32500	31892	30816	
2667	0	31936	32833	30828	
2668	0	31328	32184	30836	
2669	0	31258	33021	30848	
2670	0	31416	32886	30849	
2671	0	31562	32604	30832	
2672	0	31040	31267	30848	
2673	0	31256	30748	30836	
2674	0	31732	33068	30844	
2675	0	32512	36344	30852	
2676	0	32786	32712	30848	
2677	0	33492	32850	30864	
2678	0	34124	33712	30861	
2679	0	34240	32993	30836	
2680	0	34108	32936	30808	
2681	0	34764	32430	30806	
2682	0	34746	32376	30828	
2683	0	34392	33105	30837	
2684	0	34020	32092	30832	
2685	0	33265	32348	30836	
2686	0	32464	31583	30848	
2687	0	32048	26693	30868	
2688	0	31340	34756	30880	
2689	0	30836	35376	30892	
2690	0	30285	33774	30878	
2691	0	30636	36120	30880	
2692	0	31556	34100	30880	
2693	0	32013	35252	30884	
2694	0	31888	32836	30860	
2695	0	32484	31080	30846	
2696	0	32748	36000	30852	
2697	0	32732	32284	30836	
2698	0	33679	29396	30836	
2699	0	33876	30069	30829	
2700	0	35308	31304	30820	
2701	0	35460	33009	30802	
2702	0	34209	34080	30828	
2703	0	33456	34552	30854	
2704	0	32992	34378	30869	
2705	0	33092	32872	30872	
2706	0	33484	32148	30877	
2707	0	33344	32240	30884	
2708	0	32836	32504	30895	
2709	0	32608	33232	30882	
2710	0	31708	32160	30896	
2711	0	30273	31040	30906	
2712	0	30384	31406	30932	
2713	0	30820	33496	30932	
2714	0	31396	35076	30959	
2715	0	32008	33800	30975	
2716	0	32708	32900	30956	
2717	0	33132	32249	30977	
2718	0	33628	31446	30964	
2719	0	33956	30164	30964	
2720	0	34600	28552	30968	
2721	0	34804	34384	30976	
2722	0	34628	37608	30956	
2723	0	34332	38497	30944	
2724	0	33814	34889	30924	
2725	0	32784	32210	30937	
2726	0	32020	31357	30938	
2727	0	31588	30780	30940	
2728	0	31433	31577	30940	
2729	0	32474	34168	30938	
2730	0	31708	31932	30948	
2731	0	31068	30472	30968	
2732	0	31312	29144	30960	
2733	0	31616	30341	30940	
2734	0	31870	36120	30916	
2735	0	32344	33900	30916	
2736	0	32758	31636	30904	
2737	0	33160	34252	30904	
2738	0	33725	36052	30880	
2739	0	34140	34762	30885	
2740	0	34344	33748	30916	
2741	0	34648	33764	30901	
2742	0	34640	35365	30884	
2743	0	34135	34216	30877	
2744	0	33424	32428	30882	
2745	0	33025	32132	30885	
2746	0	33188	30781	30884	
2747	0	32856	31385	30897	
2748	0	31576	32232	30888	
2749	0	31152	32302	30908	
2750	0	30684	31989	30932	
2751	0	30504	32728	30940	
2752	0	30748	31750	30940	
2753	0	31497	32342	30937	
2754	0	32132	30962	30936	
2755	0	32632	30620	30910	
2756	0	33320	33146	30894	
2757	0	33340	37100	30885	
2758	0	33972	33476	30874	
2759	0	34581	33199	30876	
2760	0	34520	32972	30868	
2761	0	34344	32519	30860	
2762	0	34500	34232	30844	
2763	0	34440	33316	30856	
2764	0	33908	31172	30852	
2765	0	33200	31503	30860	
2766	0	32558	31636	30844	
2767	0	32076	32756	30836	
2768	0	31605	35148	30848	
2769	0	31188	34116	30868	
2770	0	30792	32007	30868	
2771	0	30808	34415	30878	
2772	0	31076	29786	30884	
2773	0	31376	32281	30880	
2774	0	31696	33244	30873	
2775	0	32314	32716	30868	
2776	0	32910	33700	30853	
2777	0	33276	31481	30852	
2778	0	33758	30784	30852	
2779	0	34036	33940	30874	
2780	0	34496	31621	30848	
2781	0	34772	34760	30840	
2782	0	34621	33780	30850	
2783	0	34144	31884	30853	
2784	0	33685	29394	30854	
2785	0	33341	31780	30850	
2786	0	32866	33900	30852	
2787	0	32224	34602	30865	
2788	0	31590	36948	30865	
2789	0	31408	35480	30876	
2790	0	31185	33868	30904	
2791	0	31000	32800	30894	
2792	0	31136	31392	30888	
2793	0	31536	32526	30908	
2794	0	31620	32238	30903	
2795	0	31976	28014	30893	
2796	0	32548	32312	30908	
2797	0	33148	34448	30912	
2798	0	33800	33077	30908	
2799	0	35184	36829	30888	
2800	0	34744	33817	30874	
2801	0	34292	34450	30884	
2802	0	34152	32644	30860	
2803	0	33892	32477	30852	
2804	0	33744	31348	30852	
2805	0	33424	31572	30856	
2806	0	32932	31076	30880	
2807	0	32416	31321	30884	
2808	0	31472	30854	30893	
2809	0	31620	31200	30926	
2810	0	31553	33205	30912	
2811	0	31152	34202	30908	
2812	0	31452	33321	30893	
2813	0	31676	33200	30908	
2814	0	31518	33119	30920	
2815	0	31822	32404	30916	
2816	0	32348	33928	30916	
2817	0	33008	31244	30924	
2818	0	33728	33860	30928	
2819	0	35196	34048	30942	
2820	0	34512	31040	30950	
2821	0	34332	34556	30971	
2822	0	34332	32936	30978	
2823	0	34232	32196	30964	
2824	0	33804	33186	30961	
2825	0	33704	34226	30980	
2826	0	32904	33758	30996	
2827	0	32068	32588	30989	
2828	0	31560	31190	30972	
2829	0	30920	31684	30972	
2830	0	30560	32336	30960	
2831	0	29833	34174	30968	
2832	0	29972	32392	30960	
2833	0	30968	30280	30940	
2834	0	32396	31310	30940	
2835	0	33092	34560	30949	
2836	0	33924	33637	30956	
2837	0	34849	35464	30964	
2838	0	35624	34256	30964	
2839	0	34772	32260	30972	
2840	0	33868	31992	30968	
2841	0	33836	32644	30977	
2842	0	33815	30924	30982	
2843	0	33896	30004	30992	
2844	0	33932	31396	30998	
2845	0	33302	33162	30992	
2846	0	32700	37465	31018	
2847	0	32373	34677	31024	
2848	0	31584	33788	31029	
2849	0	30996	31532	31028	
2850	0	30776	29424	31028	
2851	0	30624	32872	31020	
2852	0	30992	36460	31008	
2853	0	31448	35145	31004	
2854	0	31856	33120	30983	
2855	0	32384	33232	30972	
2856	0	32916	32660	30988	
2857	0	33288	31496	30969	
2858	0	33812	32056	30929	
2859	0	34229	31252	30932	
2860	0	34448	31076	30928	
2861	0	34604	31056	30924	
2862	0	34432	34941	30948	
2863	0	33772	31785	30913	
2864	0	33633	31909	30925	
2865	0	33380	31088	30938	
2866	0	32952	31236	30948	
2867	0	33308	32805	30940	
2868	0	32233	33470	30940	
2869	0	31180	32848	30924	
2870	0	30616	34132	30932	
2871	0	30676	32660	30940	
2872	0	31072	33326	30952	
2873	0	31236	33967	30940	
2874	0	31380	38290	30933	
2875	0	31912	34660	30900	
2876	0	32612	30372	30880	
2877	0	33076	31236	30840	
2878	0	34105	34472	30828	
2879	0	35144	34560	30828	
2880	0	34784	32720	30840	
2881	0	34753	31007	30864	
2882	0	34564	30540	30872	
2883	0	34244	30600	30892	
2884	0	33926	32256	30889	
2885	0	33552	32716	30912	
2886	0	32968	35232	30908	
2887	0	32288	34524	30884	
2888	0	31448	34090	30868	
2889	0	31092	32236	30888	
2890	0	30765	31709	30900	
2891	0	30356	31556	30918	
2892	0	30681	31249	30917	
2893	0	31108	33565	30908	
2894	0	31380	33770	30937	
2895	0	32784	34165	30936	
2896	0	33220	30525	30960	
2897	0	33741	32231	30952	
2898	0	34136	31301	30940	
2899	0	34489	31286	30925	
2900	0	34316	30648	30920	
2901	0	34284	34388	30908	
2902	0	34524	35296	30901	
2903	0	34448	35958	30888	
2904	0	34032	35356	30908	
2905	0	33444	34453	30919	
2906	0	32773	32780	30918	
2907	0	32276	32132	30917	
2908	0	31566	32412	30928	
2909	0	31172	32351	30952	
2910	0	30929	32442	30952	
2911	0	30800	31865	30965	
2912	0	30820	31589	30985	
2913	0	31020	32969	30976	
2914	0	31492	33815	30992	
2915	0	32100	33312	30998	
2916	0	32856	31948	30956	
2917	0	33392	32919	30948	
2918	0	34016	34384	30937	
2919	0	34468	31426	30940	
2920	0	34561	33253	30940	
2921	0	34465	31704	30956	
2922	0	34568	31956	30964	
2923	0	34584	32208	30976	
2924	0	34344	31357	30966	
2925	0	33772	30252	30962	
2926	0	32964	30492	30972	
2927	0	32388	32586	30964	
2928	0	31580	35092	30988	
2929	0	30896	36476	30964	
2930	0	30328	34140	30960	
2931	0	30112	32856	30960	
2932	0	30564	34198	30941	
2933	0	31752	33809	30965	
2934	0	31942	32573	30966	
2935	0	32032	34024	30968	
2936	0	32976	33828	30973	
2937	0	33460	32263	31004	
2938	0	33689	32992	30992	
2939	0	34520	32579	30997	
2940	0	35240	30644	31012	
2941	0	34772	29506	30992	
2942	0	34718	31382	31032	
2943	0	34580	33266	31020	
2944	0	33988	36009	31016	
2945	0	33244	34196	30980	
2946	0	32664	34224	30980	
2947	0	32468	33352	30992	
2948	0	32137	32474	30972	
2949	0	31488	31522	30976	
2950	0	30677	32093	30982	
2951	0	30372	30381	30972	
2952	0	30684	30726	30984	
2953	0	31228	34937	30956	
2954	0	31631	34992	30971	
2955	0	31964	34372	30960	
2956	0	32628	32164	30968	
2957	0	33156	30337	30964	
2958	0	33772	32644	30973	
2959	0	34682	34197	30966	
2960	0	35004	34228	30974	
2961	0	34608	34816	30984	
2962	0	34440	30692	30979	
2963	0	34148	28772	30988	
2964	0	34004	29818	30976	
2965	0	33608	34512	30997	
2966	0	32866	34049	31000	
2967	0	32190	33868	30988	
2968	0	31508	36989	30976	
2969	0	31184	32568	30948	
2970	0	30752	31377	30928	
2971	0	30752	30452	30903	
2972	0	31080	30544	30896	
2973	0	31380	35172	30868	
2974	0	31604	34625	30864	
2975	0	32330	32380	30841	
2976	0	32920	32756	30834	
2977	0	33240	36517	30838	
2978	0	33660	33616	30840	
2979	0	33924	32815	30840	
2980	0	34448	32657	30840	
2981	0	34740	33916	30856	
2982	0	34956	32512	30862	
2983	0	34698	30704	30871	
2984	0	34412	31340	30880	
2985	0	33744	32409	30901	
2986	0	32904	34369	30888	
2987	0	32413	34176	30917	
2988	0	31832	32221	30913	
2989	0	31172	29856	30908	
2990	0	30744	31436	30906	
2991	0	30484	32232	30916	
2992	0	30660	33408	30916	
2993	0	31104	35412	30932	
2994	0	31432	32068	30924	
2995	0	31916	32460	30932	
2996	0	32664	34680	30922	
2997	0	33248	33084	30944	
2998	0	33728	31968	30948	
2999	0	34276	31345	30936	
3000	0	34512	31888	30962	
3001	0	34738	32716	30964	
3002	0	34840	33805	30976	
3003	0	34200	33068	30968	
3004	0	33558	29402	30976	
3005	0	33116	33004	30944	
3006	0	32680	33634	30944	
3007	0	32630	31332	30938	
3008	0	33484	28368	30916	
3009	0	32476	33780	30902	
3010	0	31168	37600	30932	
3011	0	30188	38112	30942	
3012	0	30224	34824	30946	
3013	0	30985	32254	30941	
3014	0	32034	32356	30924	
3015	0	31908	33003	30932	
3016	0	32308	34300	30961	
3017	0	32960	30742	30956	
3018	0	33756	33152	30956	
3019	0	34257	35984	30964	
3020	0	34617	33536	30980	
3021	0	34556	32388	30988	
3022	0	34600	28891	30974	
3023	0	34460	30213	30972	
3024	0	34464	30672	30986	
3025	0	33684	32020	30996	
3026	0	33800	32172	30980	
3027	0	32676	32432	30989	
3028	0	31312	32076	31000	
3029	0	30593	33452	31002	
3030	0	30185	34381	31009	
3031	0	29868	35656	31010	
3032	0	29916	34912	31005	
3033	0	31072	33036	31006	
3034	0	31824	33200	31019	
3035	0	32688	32472	31008	
3036	0	33238	32224	31014	
3037	0	33196	31952	31010	
3038	0	34208	30616	30982	
3039	0	35064	30096	30972	
3040	0	34838	33367	30972	
3041	0	34880	31944	30964	
3042	0	34928	34840	30944	
3043	0	34640	34746	30926	
3044	0	34281	33525	30932	
3045	0	33652	32283	30920	
3046	0	32928	33876	30920	
3047	0	32336	33012	30916	
3048	0	31616	34018	30905	
3049	0	31042	34401	30926	
3050	0	30496	31884	30940	
3051	0	30308	30337	30938	
3052	0	30328	29928	30924	
3053	0	30764	29552	30920	
3054	0	31168	34324	30940	
3055	0	31744	36292	30958	
3056	0	32532	32476	30968	
3057	0	33304	31820	30956	
3058	0	34058	34209	30950	
3059	0	34676	33384	30936	
3060	0	34884	34536	30932	
3061	0	35040	32180	30924	
3062	0	34876	30092	30950	
3063	0	34576	30438	30944	
3064	0	34348	33408	30944	
3065	0	33844	35732	30958	
3066	0	33314	32929	30972	
3067	0	32500	33072	30960	
3068	0	31624	34104	30967	
3069	0	31076	34980	30976	
3070	0	30624	33926	30978	
3071	0	30292	31028	30978	
3072	0	30588	30820	30976	
3073	0	30988	32016	30952	
3074	0	31488	32430	30936	
3075	0	31978	31328	30928	
3076	0	32640	31749	30930	
3077	0	33192	33672	30916	
3078	0	33921	33433	30908	
3079	0	34368	36660	30936	
3080	0	34488	35452	30924	
3081	0	34812	31604	30926	
3082	0	34792	33784	30915	
3083	0	34668	34249	30917	
3084	0	34560	32420	30924	
3085	0	34340	31564	30925	
3086	0	33400	30784	30932	
3087	0	32580	31218	30912	
3088	0	31584	32276	30912	
3089	0	30946	33176	30912	
3090	0	30252	32120	30917	
3091	0	29848	31572	30900	
3092	0	30158	33684	30898	
3093	0	30396	32792	30908	
3094	0	32464	30645	30904	
3095	0	32724	32672	30913	
3096	0	33164	31600	30908	
3097	0	33556	31714	30928	
3098	0	33848	33736	30924	
3099	0	34328	35514	30936	
3100	0	34508	35512	30949	
3101	0	34680	34213	30945	
3102	0	34645	32976	30960	
3103	0	34416	32436	30985	
3104	0	34228	32118	30960	
3105	0	33556	31420	30980	
3106	0	33012	32080	30970	
3107	0	32976	32880	30958	
3108	0	31829	30812	30981	
3109	0	30936	33856	30990	
3110	0	31020	32596	30993	
3111	0	30893	32744	31008	
3112	0	30729	37249	30978	
3113	0	31024	35792	30975	
3114	0	31324	34541	30974	
3115	0	31830	32756	30976	
3116	0	32480	31740	30949	
3117	0	33092	29316	30940	
3118	0	33692	30966	30956	
3119	0	34063	31372	30969	
3120	0	34352	33864	30976	
3121	0	34628	29485	30970	
3122	0	34920	33034	30964	
3123	0	34712	35344	30986	
3124	0	34224	34364	30968	
3125	0	33912	35020	30984	
3126	0	33304	31965	30992	
3127	0	32488	32280	30974	
3128	0	31714	30808	30976	
3129	0	31160	32684	30961	
3130	0	30760	34512	30980	
3131	0	30424	33264	31000	
3132	0	30720	35280	31006	
3133	0	31236	33580	31012	
3134	0	31484	31220	31017	
3135	0	31945	32216	31020	
3136	0	32608	32851	31016	
3137	0	33228	31158	31018	
3138	0	33901	31432	31006	
3139	0	34316	33780	30993	
3140	0	34640	34640	30976	
3141	0	34838	32772	30980	
3142	0	34744	32263	30986	
3143	0	34436	31214	30961	
3144	0	34308	30687	30972	
3145	0	33504	34782	30992	
3146	0	33129	35002	30996	
3147	0	32918	33576	31012	
3148	0	32008	32459	31005	
3149	0	31144	34353	31014	
3150	0	30730	33506	31028	
3151	0	30456	31766	31017	
3152	0	30580	31324	31029	
3153	0	31028	31276	31021	
3154	0	31428	32743	31024	
3155	0	32013	31936	31016	
3156	0	32712	32008	31030	
3157	0	33217	33056	31032	
3158	0	33800	33732	31036	
3159	0	34126	34224	31029	
3160	0	34100	34492	31028	
3161	0	34232	32788	31038	
3162	0	34208	30668	31049	
3163	0	34020	32016	31049	
3164	0	34756	33420	31036	
3165	0	34816	33340	31009	
3166	0	34124	29864	31010	
3167	0	32728	31613	31032	
3168	0	31676	32610	31048	
3169	0	31240	31472	31040	
3170	0	31248	34520	31028	
3171	0	30702	39408	31040	
3172	0	30536	34849	31024	
3173	0	31040	33132	31020	
3174	0	31064	33590	31000	
3175	0	31604	31959	30964	
3176	0	32208	31608	30961	
3177	0	32964	34724	30992	
3178	0	33576	33722	30976	
3179	0	34452	31700	30989	
3180	0	34916	32296	30996	
3181	0	34852	30384	30964	
3182	0	35188	30256	30956	
3183	0	35012	27393	30976	
3184	0	34466	32396	30966	
3185	0	33748	37824	30970	
3186	0	33016	34425	30980	
3187	0	32356	32952	30990	
3188	0	31660	33100	30980	
3189	0	31060	35724	30972	
3190	0	30556	35264	30948	
3191	0	30292	33024	30936	
3192	0	30484	31784	30932	
3193	0	30868	31245	30941	
3194	0	31244	34806	30942	
3195	0	32148	33761	30952	
3196	0	32780	29172	30945	
3197	0	33116	27732	30924	
3198	0	33721	31120	30928	
3199	0	34216	35192	30913	
3200	0	34528	31884	30905	
3201	0	34806	32615	30893	
3202	0	34940	34036	30860	
3203	0	34744	35944	30852	
3204	0	34457	33508	30865	
3205	0	33864	32913	30885	
3206	0	33232	32724	30912	
3207	0	32528	32568	30930	
3208	0	31676	32436	30952	
3209	0	31048	33500	30984	
3210	0	30760	33318	31016	
3211	0	30524	32668	31016	
3212	0	30472	31788	31008	
3213	0	31140	30892	31016	
3214	0	31486	31632	31025	
3215	0	31892	32873	31002	
3216	0	32364	34764	30983	
3217	0	32889	35408	30976	
3218	0	33784	32039	30982	
3219	0	34212	33777	30976	
3220	0	34136	32852	30982	
3221	0	34644	31416	30976	
3222	0	34865	30822	30958	
3223	0	34632	33356	30969	
3224	0	35170	34556	30981	
3225	0	35276	32796	30984	
3226	0	33848	33028	30978	
3227	0	33050	33049	31002	
3228	0	31524	32844	31028	
3229	0	30775	32645	31049	
3230	0	30388	32496	31052	
3231	0	30114	32464	31045	
3232	0	30428	32637	31044	
3233	0	30968	31945	31061	
3234	0	31284	33190	31068	
3235	0	31640	33648	31061	
3236	0	32300	33940	31052	
3237	0	32924	34004	31026	
3238	0	33668	32092	31015	
3239	0	34272	31669	31000	
3240	0	34516	32420	30988	
3241	0	34656	33265	30980	
3242	0	34740	32513	30966	
3243	0	34680	32677	30957	
3244	0	34528	32853	30969	
3245	0	34200	32873	30950	
3246	0	33466	32012	30968	
3247	0	32808	32365	30949	
3248	0	31848	33064	30956	
3249	0	31114	33568	30972	
3250	0	30712	32212	30968	
3251	0	30653	32240	30981	
3252	0	30536	32820	30976	
3253	0	30784	31092	30968	
3254	0	31096	33864	30980	
3255	0	31716	33009	30956	
3256	0	32588	33657	30948	
3257	0	33096	33026	30948	
3258	0	33608	31308	30950	
3259	0	34280	30752	30961	
3260	0	34790	32124	30949	
3261	0	35164	32657	30964	
3262	0	35044	33295	30954	
3263	0	34656	34292	30972	
3264	0	34385	37345	30972	
3265	0	33928	35414	30962	
3266	0	33192	32788	30960	
3267	0	32500	30119	30964	
3268	0	31712	29552	30983	
3269	0	31168	32310	30968	
3270	0	30760	35632	30976	
3271	0	30502	36100	30996	
3272	0	30616	33428	31000	
3273	0	30960	32185	30980	
3274	0	31432	33605	30941	
3275	0	31884	33584	30951	
3276	0	32373	30492	30969	
3277	0	32910	34276	30964	
3278	0	33521	33044	30960	
3279	0	34226	33341	30928	
3280	0	34748	29696	30896	
3281	0	34821	28065	30911	
3282	0	34784	30220	30909	
3283	0	34748	32770	30896	
3284	0	34708	31832	30886	
3285	0	34108	31014	30885	
3286	0	33440	36580	30898	
3287	0	32812	37873	30900	
3288	0	32152	35820	30882	
3289	0	31368	34128	30904	
3290	0	30568	32058	30902	
3291	0	30056	33296	30901	
3292	0	30160	33126	30905	
3293	0	30628	32685	30940	
3294	0	30856	31780	30929	
3295	0	31168	30096	30912	
3296	0	31728	31668	30908	
3297	0	32864	31865	30920	
3298	0	34404	33072	30902	
3299	0	34937	35704	30897	
3300	0	35940	34656	30894	
3301	0	36064	31764	30900	
3302	0	35398	28392	30920	
3303	0	34568	29020	30921	
3304	0	34072	35233	30928	
3305	0	33704	33786	30932	
3306	0	33076	33304	30943	
3307	0	32364	34311	30936	
3308	0	31572	33820	30928	
3309	0	30956	30406	30937	
3310	0	30666	32336	30948	
3311	0	30440	38376	30982	
3312	0	30806	35716	30972	
3313	0	31532	33708	30967	
3314	0	31180	29436	30984	
3315	0	31494	27426	30996	
3316	0	32175	34216	30978	
3317	0	32884	35937	30976	
3318	0	33488	35204	30977	
3319	0	34240	32186	30976	
3320	0	34492	31412	30985	
3321	0	34788	32145	30986	
3322	0	34916	31280	30992	
3323	0	34792	30676	30993	
3324	0	34540	32672	31009	
3325	0	34072	33252	31030	
3326	0	33344	32960	31040	
3327	0	32481	32396	31008	
3328	0	31692	33845	31040	
3329	0	31204	34822	31048	
3330	0	30892	33285	31054	
3331	0	30468	33127	31061	
3332	0	30288	32544	31068	
3333	0	30697	32248	31053	
3334	0	31660	32534	31064	
3335	0	32384	33014	31068	
3336	0	32813	33241	31056	
3337	0	33196	29020	31024	
3338	0	33528	30967	31020	
3339	0	34208	31132	31032	
3340	0	34462	35040	31056	
3341	0	34724	36036	31040	
3342	0	34852	34205	31036	
3343	0	34320	34156	31060	
3344	0	33994	33448	31085	
3345	0	33668	30548	31080	
3346	0	33020	30588	31081	
3347	0	33237	32244	31101	
3348	0	33128	34468	31132	
3349	0	31520	33246	31134	
3350	0	30748	34240	31116	
3351	0	30248	36780	31108	
3352	0	30576	32677	31092	
3353	0	30928	30300	31064	
3354	0	31072	30209	31052	
3355	0	31688	36493	31056	
3356	0	32672	33012	31061	
3357	0	32588	29760	31062	
3358	0	33484	29872	31056	
3359	0	34260	31484	31044	
3360	0	34473	32908	31050	
3361	0	34848	34120	31054	
3362	0	35012	33714	31042	
3363	0	34812	36244	31068	
3364	0	34584	32752	31048	
3365	0	34016	31133	31038	
3366	0	33308	35888	31016	
3367	0	32888	33460	31000	
3368	0	31936	26126	31004	
3369	0	31185	31316	31012	
3370	0	30694	38836	31032	
3371	0	30306	35528	31032	
3372	0	30312	32188	31014	
3373	0	30648	32320	31033	
3374	0	30998	32696	31028	
3375	0	31658	33440	31014	
3376	0	32400	33144	31020	
3377	0	32957	32248	31012	
3378	0	33796	32414	31020	
3379	0	34480	32300	31012	
3380	0	34772	31920	31012	
3381	0	34920	30938	31004	
3382	0	35072	30440	31028	
3383	0	34752	30664	31048	
3384	0	34502	34996	31036	
3385	0	34058	36835	31044	
3386	0	33317	34360	31048	
3387	0	32637	33260	31034	
3388	0	32216	31704	31030	
3389	0	31632	33109	31044	
3390	0	30756	32924	31053	
3391	0	30305	33116	31064	
3392	0	30276	32568	31056	
3393	0	30648	32684	31060	
3394	0	30968	31672	31032	
3395	0	31356	29288	31035	
3396	0	32077	35196	31052	
3397	0	32852	32288	31055	
3398	0	33312	36205	31068	
3399	0	33836	32958	31052	
3400	0	34532	32716	31064	
3401	0	34794	33522	31060	
3402	0	35112	33224	31056	
3403	0	35956	31448	31050	
3404	0	36748	31784	31029	
3405	0	34837	33616	31016	
3406	0	33216	33760	31030	
3407	0	32345	31449	31020	
3408	0	31680	31268	30992	
3409	0	31004	31988	31004	
3410	0	30646	30560	30989	
3411	0	30376	33852	31012	
3412	0	30236	34148	30989	
3413	0	30456	34430	31004	
3414	0	30885	33380	31002	
3415	0	31440	33014	30996	
3416	0	32074	31950	30976	
3417	0	32764	30431	30992	
3418	0	33356	31012	30982	
3419	0	34204	33988	31000	
3420	0	34616	32360	31017	
3421	0	34808	35680	31044	
3422	0	35100	36004	31026	
3423	0	34952	34804	31006	
3424	0	34804	31576	31008	
3425	0	34332	29785	30972	
3426	0	33655	31439	30958	
3427	0	32744	30752	30944	
3428	0	31976	30711	30936	
3429	0	31244	32768	30934	
3430	0	30741	35228	30938	
3431	0	30365	35032	30937	
3432	0	30309	34644	30948	
3433	0	30657	33188	30966	
3434	0	31040	32108	30981	
3435	0	31504	34580	30960	
3436	0	32182	33958	30965	
3437	0	32784	32546	30948	
3438	0	33464	31512	30933	
3439	0	34172	32004	30936	
3440	0	34632	33380	30920	
3441	0	34980	31040	30924	
3442	0	35236	27428	30934	
3443	0	35148	31428	30944	
3444	0	34796	36996	30948	
3445	0	34269	39269	30944	
3446	0	33526	35556	30921	
3447	0	32830	31829	30910	
3448	0	32024	31374	30908	
3449	0	31317	32606	30928	
3450	0	30908	32663	30916	
3451	0	30357	32588	30916	
3452	0	30132	32324	30924	
3453	0	30441	32146	30920	
3454	0	30692	32666	30952	
3455	0	31208	33473	30960	
3456	0	31792	33288	30973	
3457	0	32360	32128	30984	
3458	0	33508	34564	30968	
3459	0	34496	31932	30984	
3460	0	34700	31590	30975	
3461	0	36024	31100	30972	
3462	0	36092	30368	30980	
3463	0	35232	29742	30980	
3464	0	34660	34144	30972	
3465	0	33928	34762	30989	
3466	0	33028	34816	31001	
3467	0	32504	33801	31008	
3468	0	32112	34436	30984	
3469	0	31501	31844	30973	
3470	0	31517	31924	30976	
3471	0	30612	33180	30974	
3472	0	29949	32144	30947	
3473	0	29952	31958	30952	
3474	0	30406	33304	30952	
3475	0	31032	35072	30948	
3476	0	32268	35336	30948	
3477	0	33652	30297	30925	
3478	0	33326	29364	30923	
3479	0	34105	33530	30913	
3480	0	35017	33932	30907	
3481	0	35248	32071	30893	
3482	0	35272	31460	30908	
3483	0	35140	36456	30946	
3484	0	34728	34657	30944	
3485	0	34272	31408	30943	
3486	0	33432	32740	30947	
3487	0	32444	32877	30944	
3488	0	31800	31921	30958	
3489	0	31092	31652	30949	
3490	0	30800	33768	30952	
3491	0	30804	34910	30969	
3492	0	30416	34124	30968	
3493	0	30553	33332	30980	
3494	0	31110	31646	30972	
3495	0	31560	32356	30980	
3496	0	32020	31176	30982	
3497	0	32486	33553	30990	
3498	0	33216	34984	30993	
3499	0	34056	34324	31000	
3500	0	34600	35549	30991	
3501	0	35108	29196	30993	
3502	0	35581	28026	30988	
3503	0	35228	29950	30980	
3504	0	34884	32940	30982	
3505	0	34524	34200	30946	
3506	0	33752	33757	30948	
3507	0	32920	33540	30944	
3508	0	32068	33796	30960	
3509	0	31244	33020	30952	
3510	0	30727	32432	30968	
3511	0	30230	32068	30964	
3512	0	30176	31020	30985	
3513	0	30472	28156	30972	
3514	0	30733	32764	30952	
3515	0	31204	36012	30948	
3516	0	31808	37712	30952	
3517	0	32621	35559	30944	
3518	0	33458	34374	30939	
3519	0	34188	33872	30944	
3520	0	34752	32772	30916	
3521	0	35416	31401	30940	
3522	0	35351	31444	30953	
3523	0	34902	31925	30966	
3524	0	34752	32005	30964	
3525	0	34372	32246	30964	
3526	0	33704	32981	30980	
3527	0	32988	32804	30992	
3528	0	32289	32704	30974	
3529	0	31356	32756	30980	
3530	0	30752	33158	30964	
3531	0	30168	32648	30980	
3532	0	30084	32080	30964	
3533	0	30764	31252	30956	
3534	0	31184	31064	30976	
3535	0	31356	35334	30984	
3536	0	31796	34496	31005	
3537	0	32588	33128	30996	
3538	0	33472	32685	30976	
3539	0	33948	32469	30996	
3540	0	34404	30844	30981	
3541	0	35300	28810	30984	
3542	0	35268	31801	31004	
3543	0	35496	35206	31003	
3544	0	35372	38540	31012	
3545	0	34424	34044	31002	
3546	0	33620	36136	31025	
3547	0	32902	30756	31032	
3548	0	32172	30773	31033	
3549	0	31304	35372	31033	
3550	0	30724	31536	31006	
3551	0	30200	29712	30996	
3552	0	30048	31468	31009	
3553	0	30368	32228	31009	
3554	0	30744	36084	31029	
3555	0	31208	35129	31017	
3556	0	31840	33749	31025	
3557	0	32424	33292	31036	
3558	0	33136	34488	31024	
3559	0	34016	32092	31024	
3560	0	34712	31348	31016	
3561	0	35052	32232	31004	
3562	0	35604	31329	31009	
3563	0	35896	32636	31016	
3564	0	35212	31303	31032	
3565	0	34464	30952	31023	
3566	0	33688	31789	31014	
3567	0	32936	33232	31007	
3568	0	32056	32716	31014	
3569	0	31350	31260	31028	
3570	0	30616	32953	31024	
3571	0	29888	35726	31012	
3572	0	29814	32420	31008	
3573	0	30180	34101	31000	
3574	0	30744	34212	30994	
3575	0	32066	33542	30972	
3576	0	32449	32456	30956	
3577	0	32792	31200	30944	
3578	0	33084	30842	30945	
3579	0	33108	34064	30952	
3580	0	33976	34272	30940	
3581	0	35072	32972	30945	
3582	0	35724	32552	30958	
3583	0	36030	31045	30968	
3584	0	35808	33020	30948	
3585	0	34988	34220	30948	
3586	0	33782	32798	30936	
3587	0	32693	32686	30940	
3588	0	31993	32729	30932	
3589	0	31212	34031	30925	
3590	0	30588	32192	30925	
3591	0	30081	31488	30916	
3592	0	29932	29721	30889	
3593	0	30168	31560	30904	
3594	0	30693	35384	30916	
3595	0	31406	37468	30913	
3596	0	32024	35680	30892	
3597	0	32652	31036	30876	
3598	0	33312	28528	30884	
3599	0	34072	31640	30896	
3600	0	34716	35372	30900	
3601	0	35080	34017	30904	
3602	0	35136	32356	30902	
3603	0	35100	32836	30910	
3604	0	34916	33924	30896	
3605	0	34556	36712	30896	
3606	0	33764	32536	30912	
3607	0	33084	31320	30926	
3608	0	32272	30408	30928	
3609	0	31284	29992	30920	
3610	0	30560	35289	30948	
3611	0	30152	34356	30948	
3612	0	30028	32312	30948	
3613	0	30080	32066	30957	
3614	0	30680	32433	30952	
3615	0	32662	33329	30947	
3616	0	33040	32132	30944	
3617	0	32860	32437	30920	
3618	0	33112	31782	30928	
3619	0	33736	32288	30932	
3620	0	34420	32592	30940	
3621	0	34877	32420	30940	
3622	0	35116	32788	30944	
3623	0	34952	33793	30922	
3624	0	34760	33816	30925	
3625	0	34360	33496	30951	
3626	0	33680	32541	30965	
3627	0	32944	32172	31016	
3628	0	32244	32556	31038	
3629	0	31422	32280	31028	
3630	0	31068	32828	31052	
3631	0	30564	33910	31068	
3632	0	30200	34381	31066	
3633	0	30252	31556	31024	
3634	0	30848	32397	31025	
3635	0	31176	32521	31044	
3636	0	31808	34232	31034	
3637	0	32826	32320	31035	
3638	0	33483	31821	31005	
3639	0	34069	32324	30978	
3640	0	34440	33782	30980	
3641	0	34968	33610	30972	
3642	0	35128	32609	30972	
3643	0	35108	32745	30988	
3644	0	34921	32572	30981	
3645	0	34492	31932	30988	
3646	0	33776	30396	31013	
3647	0	33060	32580	31004	
3648	0	32248	35864	31021	
3649	0	31552	34161	30984	
3650	0	30841	33889	30997	
3651	0	29972	32316	31013	
3652	0	29644	33832	31036	
3653	0	30080	31676	31024	
3654	0	30720	30352	31028	
3655	0	32760	31508	31028	
3656	0	32540	31010	31000	
3657	0	32996	34916	30988	
3658	0	33368	35847	30972	
3659	0	33964	34708	30968	
3660	0	34460	31484	30968	
3661	0	34878	31440	30945	
3662	0	35346	30501	30952	
3663	0	35076	32133	30942	
3664	0	34420	32668	30927	
3665	0	34468	34204	30915	
3666	0	33480	33632	30912	
3667	0	32512	31384	30900	
3668	0	31952	34664	30920	
3669	0	31352	33172	30945	
3670	0	31328	31528	30948	
3671	0	30980	30768	30954	
3672	0	30404	34660	30992	
3673	0	30417	35620	31004	
3674	0	30624	31954	31006	
3675	0	31108	31624	30992	
3676	0	31728	34530	31000	
3677	0	32548	35172	30989	
3678	0	33328	33640	30988	
3679	0	34208	32460	30990	
3680	0	34780	31792	30998	
3681	0	34916	31324	31028	
3682	0	34972	32588	31028	
3683	0	34800	32748	31024	
3684	0	34560	32356	31025	
3685	0	34340	32322	31024	
3686	0	34496	32011	31033	
3687	0	34008	32676	31022	
3688	0	32436	33148	31028	
3689	0	31560	33548	31016	
3690	0	30698	31952	31037	
3691	0	30200	31877	31028	
3692	0	29964	32880	30992	
3693	0	30328	32184	31004	
3694	0	30932	32782	31020	
3695	0	31253	33197	31020	
3696	0	31776	34384	31016	
3697	0	32568	33596	31020	
3698	0	33309	35890	31014	
3699	0	34012	35204	31016	
3700	0	34548	32164	31000	
3701	0	34925	32304	30988	
3702	0	35184	31601	30976	
3703	0	35152	32226	30976	
3704	0	35000	31640	30948	
3705	0	34624	32830	30928	
3706	0	33956	33604	30920	
3707	0	33182	33463	30945	
3708	0	32340	33029	30943	
3709	0	31232	32708	30936	
3710	0	30708	32730	30949	
3711	0	30200	31336	30940	
3712	0	29964	30825	30936	
3713	0	30360	32690	30918	
3714	0	30748	33000	30916	
3715	0	31253	32774	30940	
3716	0	31928	32716	30932	
3717	0	32616	32670	30949	
3718	0	33244	32954	30952	
3719	0	34092	33496	30937	
3720	0	34704	33084	30916	
3721	0	35012	32820	30920	
3722	0	35312	32304	30932	
3723	0	35134	32604	30932	
3724	0	35020	32756	30948	
3725	0	34648	32920	30949	
3726	0	33697	28437	30940	
3727	0	32940	27812	30944	
3728	0	32180	32784	30932	
3729	0	31500	39748	30948	
3730	0	31012	38089	30928	
3731	0	30344	35998	30944	
3732	0	30036	35056	30929	
3733	0	30264	32416	30914	
3734	0	30648	32037	30916	
3735	0	31264	31802	30908	
3736	0	31956	31612	30900	
3737	0	32644	31480	30926	
3738	0	33324	32460	30932	
3739	0	34176	32888	30940	
3740	0	34736	31773	30948	
3741	0	35160	32810	30960	
3742	0	35144	32231	30961	
3743	0	35040	32508	30946	
3744	0	34940	31788	30942	
3745	0	34552	29674	30952	
3746	0	33840	30025	30966	
3747	0	33136	36552	30980	
3748	0	32340	36944	30972	
3749	0	31280	31196	30968	
3750	0	30600	28834	31000	
3751	0	30220	32546	31016	
3752	0	30320	34074	31008	
3753	0	30556	38840	31024	
3754	0	30733	37655	31045	
3755	0	31057	33672	31016	
3756	0	31584	31194	30988	
3757	0	32236	31712	30996	
3758	0	33396	30308	30982	
3759	0	35008	32272	30975	
3760	0	34888	33308	30950	
3761	0	34792	31886	30961	
3762	0	35404	30956	30966	
3763	0	35256	30684	30951	
3764	0	35005	32876	30972	
3765	0	34594	33720	30964	
3766	0	33892	34416	30960	
3767	0	32964	34030	30968	
3768	0	32120	32714	30952	
3769	0	31332	33116	30972	
3770	0	30536	33015	30968	
3771	0	30113	32532	30966	
3772	0	29940	31613	30960	
3773	0	30212	32668	30964	
3774	0	30646	33324	30983	
3775	0	31156	32840	30986	
3776	0	31928	32896	30966	
3777	0	32714	32624	30992	
3778	0	33592	33597	31004	
3779	0	34537	33777	30974	
3780	0	34620	33108	30984	
3781	0	34848	32036	30982	
3782	0	35457	32628	30972	
3783	0	35136	32876	30981	
3784	0	34582	30052	30969	
3785	0	34357	30112	30992	
3786	0	33652	32993	30976	
3787	0	32980	36888	30986	
3788	0	32604	36300	30988	
3789	0	31860	34487	30978	
3790	0	31385	32790	30992	
3791	0	30412	31316	30995	
3792	0	29972	31357	30966	
3793	0	30276	31612	30936	
3794	0	30648	32876	30928	
3795	0	31140	33580	30926	
3796	0	31865	33072	30940	
3797	0	32588	31853	30940	
3798	0	33226	31809	30940	
3799	0	34000	31844	30966	
3800	0	34615	31488	30960	
3801	0	34924	32012	30949	
3802	0	35264	33596	30957	
3803	0	35224	35129	30969	
3804	0	34996	31912	30960	
3805	0	34541	33557	30952	
3806	0	33780	33504	30944	
3807	0	32940	33796	30913	
3808	0	32292	33175	30914	
3809	0	31440	32897	30892	
3810	0	30962	30144	30884	
3811	0	30472	29908	30872	
3812	0	30120	36375	30872	
3813	0	30352	34833	30870	
3814	0	30809	34072	30858	
3815	0	31144	34128	30854	
3816	0	31865	32552	30862	
3817	0	32596	31893	30844	
3818	0	33346	32548	30884	
3819	0	34070	32484	30890	
3820	0	34604	32908	30884	
3821	0	34957	32852	30898	
3822	0	35225	32412	30904	
3823	0	35122	32468	30928	
3824	0	34972	32773	30928	
3825	0	34592	33020	30948	
3826	0	33840	32424	30948	
3827	0	33048	32032	30954	
3828	0	32330	32712	30976	
3829	0	31576	32841	31004	
3830	0	30834	32100	31007	
3831	0	30052	32057	31008	
3832	0	29576	34632	31009	
3833	0	29856	34518	31001	
3834	0	30632	34013	31008	
3835	0	31384	33957	30992	
3836	0	32800	30984	30978	
3837	0	33889	31784	30960	
3838	0	33600	30412	30956	
3839	0	34032	33108	30976	
3840	0	34670	35015	30972	
3841	0	34890	33959	30964	
3842	0	35028	31824	30949	
3843	0	34948	28946	30936	
3844	0	34816	28453	30934	
3845	0	34556	32536	30945	
3846	0	33742	37350	30970	
3847	0	32824	38364	30980	
3848	0	31976	35508	30969	
3849	0	31168	32394	30996	
3850	0	30456	31440	30993	
3851	0	30554	32132	30980	
3852	0	30384	32300	30976	
3853	0	30320	32812	30980	
3854	0	30716	32672	30952	
3855	0	32012	32806	30951	
3856	0	32096	32492	30951	
3857	0	32524	32548	30957	
3858	0	33208	32228	30974	
3859	0	33908	32304	30980	
3860	0	34464	31724	30973	
3861	0	35004	31684	30984	
3862	0	35288	31244	30992	
3863	0	35236	32824	31006	
3864	0	35064	33760	31000	
3865	0	34668	34148	30972	
3866	0	33964	32012	30980	
3867	0	33156	32156	30976	
3868	0	32185	31856	30961	
3869	0	31236	33748	30950	
3870	0	30548	34736	30952	
3871	0	30178	34968	30941	
3872	0	30044	34764	30924	
3873	0	30336	33263	30921	
3874	0	30716	33941	30948	
3875	0	31280	32792	30941	
3876	0	32153	31930	30940	
3877	0	32780	32200	30949	
3878	0	33196	32468	30956	
3879	0	33828	32790	30968	
3880	0	34404	31846	30968	
3881	0	34830	30051	30964	
3882	0	35310	30926	30960	
3883	0	35332	33691	30972	
3884	0	35209	33708	30991	
3885	0	34682	30877	30981	
3886	0	33917	31089	30980	
3887	0	33120	36356	30974	
3888	0	32404	34540	30984	
3889	0	31272	33758	30978	
3890	0	30672	33082	30956	
3891	0	30144	32724	30940	
3892	0	29873	33196	30938	
3893	0	30346	33809	30937	
3894	0	31112	32582	30936	
3895	0	31548	32629	30944	
3896	0	32024	32807	30948	
3897	0	32682	31321	30948	
3898	0	33232	31385	30940	
3899	0	34004	32792	30948	
3900	0	34544	33393	30941	
3901	0	34989	32596	30944	
3902	0	35224	31268	30949	
3903	0	35344	32262	30928	
3904	0	35169	33185	30924	
3905	0	34620	31244	30936	
3906	0	33953	33280	30956	
3907	0	33041	34932	30962	
3908	0	32184	34116	30964	
3909	0	31280	33544	30968	
3910	0	30768	32966	30958	
3911	0	30304	33108	30924	
3912	0	30084	32609	30932	
3913	0	30248	32820	30928	
3914	0	30418	33472	30920	
3915	0	30864	33481	30932	
3916	0	31644	30912	30942	
3917	0	32428	32905	30928	
3918	0	33776	32769	30912	
3919	0	34501	29324	30897	
3920	0	34612	30125	30896	
3921	0	34713	33877	30921	
3922	0	35380	34696	30924	
3923	0	35664	36032	30925	
3924	0	34956	35124	30928	
3925	0	34448	32298	30940	
3926	0	33800	31656	30937	
3927	0	33164	31588	30948	
3928	0	32548	32552	30957	
3929	0	31629	33304	30949	
3930	0	30916	34390	30944	
3931	0	30186	33974	30948	
3932	0	29916	32244	30933	
3933	0	30216	32104	30950	
3934	0	30628	32292	30957	
3935	0	31052	32240	30961	
3936	0	31764	34118	30969	
3937	0	32664	33704	30965	
3938	0	33420	29848	30964	
3939	0	34164	29392	30960	
3940	0	34752	33868	30980	
3941	0	34880	37360	30960	
3942	0	35064	37710	30940	
3943	0	35256	31868	30932	
3944	0	35121	30272	30948	
3945	0	34480	30558	30924	
3946	0	33889	31993	30940	
3947	0	33344	33428	30968	
3948	0	32308	34188	30972	
3949	0	31057	32538	30974	
3950	0	30681	31592	30954	
3951	0	30430	32120	30940	
3952	0	30424	33760	30934	
3953	0	30788	34992	30916	
3954	0	30856	33566	30904	
3955	0	31241	32948	30904	
3956	0	31736	32508	30900	
3957	0	32444	32256	30908	
3958	0	33196	31913	30890	
3959	0	34080	31828	30912	
3960	0	34628	31914	30924	
3961	0	35080	33582	30936	
3962	0	35140	32262	30925	
3963	0	34888	31991	30924	
3964	0	34556	34412	30933	
3965	0	34288	38090	30952	
3966	0	34024	34108	30956	
3967	0	33464	32352	30951	
3968	0	32532	28284	30932	
3969	0	31456	33583	30928	
3970	0	30773	33535	30938	
3971	0	30256	31944	30936	
3972	0	30152	32048	30926	
3973	0	29870	35640	30950	
3974	0	30130	33574	30965	
3975	0	31668	29220	30932	
3976	0	31836	27832	30944	
3977	0	32482	30416	30956	
3978	0	34420	35968	30948	
3979	0	34456	37793	30937	
3980	0	34624	35708	30930	
3981	0	35117	33977	30932	
3982	0	35312	31740	30935	
3983	0	35048	32216	30936	
3984	0	34857	31854	30916	
3985	0	34384	31869	30924	
3986	0	33744	32240	30937	
3987	0	32958	32660	30956	
3988	0	32304	32440	30944	
3989	0	31452	32733	30974	
3990	0	30741	32964	30960	
3991	0	30264	31430	30959	
3992	0	29932	29796	30948	
3993	0	30168	35204	30972	
3994	0	30572	35748	30985	
3995	0	31048	32208	30968	
3996	0	31760	34293	30976	
3997	0	32624	34540	31000	
3998	0	33317	32772	31017	
3999	0	34212	30492	30998	
4000	0	34880	30878	31002	
4001	0	35540	34110	31012	
4002	0	35530	34108	31010	
4003	0	35185	31969	31000	
4004	0	34952	32004	30996	
4005	0	34549	30252	30992	
4006	0	33796	33164	30980	
4007	0	32801	38068	30980	
4008	0	31972	33936	30976	
4009	0	31176	32420	30977	
4010	0	30673	36292	30980	
4011	0	30092	31492	30974	
4012	0	30484	31317	30992	
4013	0	31216	33865	30976	
4014	0	31336	33373	30976	
4015	0	31324	32744	30992	
4016	0	31702	34412	30986	
4017	0	32472	33192	30984	
4018	0	33088	30292	30983	
4019	0	33856	31652	30976	
4020	0	34476	31880	30975	
4021	0	34868	31309	30984	
4022	0	35404	31290	30976	
4023	0	35528	31292	30993	
4024	0	35077	31725	30964	
4025	0	34532	32076	30970	
4026	0	33664	33732	30976	
4027	0	33044	35670	30976	
4028	0	32600	34780	30949	
4029	0	31404	34696	30941	
4030	0	30652	31316	30961	
4031	0	30220	30449	30964	
4032	0	30000	31830	30966	
4033	0	30280	32284	30957	
4034	0	30696	33312	30962	
4035	0	31196	34396	30964	
4036	0	31780	33389	30950	
4037	0	32612	33348	30948	
4038	0	33268	34300	30948	
4039	0	34010	33556	30960	
4040	0	34661	33500	30954	
4041	0	35208	32647	30940	
4042	0	35609	32484	30940	
4043	0	35196	32692	30964	
4044	0	35080	34358	30948	
4045	0	34620	32621	30928	
4046	0	33880	30568	30926	
4047	0	32711	32568	30936	
4048	0	31924	31380	30944	
4049	0	31032	30452	30940	
4050	0	30446	32980	30972	
4051	0	30172	33574	30988	
4052	0	30750	33740	30948	
4053	0	31168	35564	30956	
4054	0	31348	32176	30936	
4055	0	31052	31657	30916	
4056	0	31570	32144	30910	
4057	0	32452	31556	30934	
4058	0	33231	32953	30957	
4059	0	33954	33566	30940	
4060	0	34488	35152	30968	
4061	0	34860	30924	30992	
4062	0	35097	31208	30968	
4063	0	35142	36580	30950	
4064	0	35088	32665	30958	
4065	0	34722	33704	30957	
4066	0	34104	34064	30948	
4067	0	33532	31580	30960	
4068	0	32344	31732	30965	
4069	0	31360	31516	30992	
4070	0	30617	31797	31004	
4071	0	30232	31704	30997	
4072	0	30140	31825	30964	
4073	0	30436	31527	30970	
4074	0	30772	33985	30972	
4075	0	31084	36532	30957	
4076	0	31416	35956	30954	
4077	0	32369	32568	30956	
4078	0	33204	32648	30968	
4079	0	34100	31630	30956	
4080	0	34629	30134	30968	
4081	0	35052	32604	31004	
4082	0	35280	34404	30988	
4083	0	35044	35324	30977	
4084	0	34764	32852	30986	
4085	0	34437	32101	30992	
4086	0	33680	31352	30978	
4087	0	32708	33142	30986	
4088	0	32756	33853	30996	
4089	0	31900	33950	30996	
4090	0	31324	33376	30992	
4091	0	30816	32752	30988	
4092	0	30502	31700	31000	
4093	0	30468	32340	30990	
4094	0	30564	31554	31004	
4095	0	31192	29103	31004	
4096	0	31912	31802	31004	
4097	0	32448	34724	30996	
4098	0	33060	32937	30997	
4099	0	33948	32273	30964	
4100	0	34488	32496	30968	
4101	0	34844	33440	31004	
4102	0	35226	33044	30992	
4103	0	35168	32463	30980	
4104	0	34992	33494	30980	
4105	0	34720	33048	30985	
4106	0	33960	33519	30989	
4107	0	33088	34245	31000	
4108	0	32336	33422	31009	
4109	0	31480	32484	31017	
4110	0	30882	34372	30994	
4111	0	30344	34440	30982	
4112	0	30048	32980	31005	
4113	0	30228	34250	31000	
4114	0	30820	34041	31000	
4115	0	31172	31424	30996	
4116	0	31808	32874	30972	
4117	0	32452	30170	30956	
4118	0	32944	29098	30942	
4119	0	33984	33204	30964	
4120	0	34616	31581	30944	
4121	0	35120	30930	30951	
4122	0	35668	34236	30962	
4123	0	35404	33540	30976	
4124	0	34964	32976	30962	
4125	0	34584	33201	30968	
4126	0	33892	33056	30965	
4127	0	33152	33332	30966	
4128	0	32376	33197	30990	
4129	0	31424	32180	30969	
4130	0	30940	32780	30981	
4131	0	30280	33828	30982	
4132	0	29768	34174	30972	
4133	0	29729	33840	31004	
4134	0	30104	32832	30970	
4135	0	30656	32760	30961	
4136	0	32142	33460	30944	
4137	0	34068	33701	30944	
4138	0	34312	33592	30932	
4139	0	34048	30701	30906	
4140	0	34104	30346	30904	
4141	0	34652	31156	30893	
4142	0	35006	30236	30880	
4143	0	34988	26840	30880	
4144	0	34916	32068	30860	
4145	0	34644	38376	30871	
4146	0	33948	35970	30892	
4147	0	33276	37144	30893	
4148	0	32602	35660	30894	
4149	0	31692	31640	30900	
4150	0	30853	33474	30904	
4151	0	30304	30112	30890	
4152	0	30104	31205	30912	
4153	0	30328	36049	30912	
4154	0	30720	36284	30916	
4155	0	31078	32564	30920	
4156	0	31680	32252	30908	
4157	0	32318	32700	30916	
4158	0	33204	30957	30916	
4159	0	33852	32068	30888	
4160	0	34485	32352	30904	
4161	0	34952	31508	30914	
4162	0	35468	30982	30900	
4163	0	35306	30591	30897	
4164	0	35152	31500	30912	
4165	0	34825	34728	30954	
4166	0	34072	33820	30961	
4167	0	33052	32268	30948	
4168	0	32232	34066	30956	
4169	0	31348	35756	30976	
4170	0	30748	32132	31004	
4171	0	30296	31368	30989	
4172	0	30218	33200	31004	
4173	0	30448	30464	31004	
4174	0	30629	33374	31000	
4175	0	31157	36478	31011	
4176	0	31732	33236	30997	
4177	0	32404	31968	31012	
4178	0	33365	31342	31000	
4179	0	34672	31074	30994	
4180	0	34992	32136	30988	
4181	0	35032	33040	31008	
4182	0	35088	33330	31008	
4183	0	34816	33244	30980	
4184	0	34720	32450	31004	
4185	0	34557	32661	31000	
4186	0	33812	29896	31008	
4187	0	33064	30520	31024	
4188	0	32172	34916	31028	
4189	0	31308	37056	31050	
4190	0	30924	36120	31050	
4191	0	30792	31532	31042	
4192	0	29988	31100	31052	
4193	0	30032	33316	31036	
4194	0	30657	34336	31040	
4195	0	31100	35112	31016	
4196	0	31520	32494	31000	
4197	0	32380	30120	31013	
4198	0	33988	32673	31008	
4199	0	34620	32884	31009	
4200	0	34685	33775	30968	
4201	0	34944	33420	30980	
4202	0	35240	32644	30940	
4203	0	35172	31592	30936	
4204	0	34997	31321	30925	
4205	0	34652	33021	30937	
4206	0	33929	33118	30964	
4207	0	33160	33025	30982	
4208	0	32396	32740	30970	
4209	0	31216	32864	30991	
4210	0	30544	32692	31024	
4211	0	30216	32000	31024	
4212	0	30092	31944	31020	
4213	0	30480	30308	31042	
4214	0	30800	33208	31028	
4215	0	31093	36681	31012	
4216	0	31829	34752	31016	
4217	0	33084	33412	31012	
4218	0	33144	36460	31020	
4219	0	33732	32000	31022	
4220	0	34276	30890	31024	
4221	0	34724	31554	31025	
4222	0	35528	32160	31020	
4223	0	35704	33057	30998	
4224	0	35128	33852	31010	
4225	0	34704	33240	30992	
4226	0	34021	32533	30976	
4227	0	33204	31838	30985	
4228	0	32384	31073	30976	
4229	0	31444	31686	30996	
4230	0	30856	32756	31001	
4231	0	30297	33705	31001	
4232	0	29916	32893	31016	
4233	0	30144	32376	31004	
4234	0	30602	33173	30992	
4235	0	30904	34184	30980	
4236	0	31720	31765	30980	
4237	0	32808	32640	30967	
4238	0	33200	34460	30970	
4239	0	33940	32720	30952	
4240	0	34532	31708	30948	
4241	0	34866	32440	30949	
4242	0	35175	32016	30956	
4243	0	35224	31392	30950	
4244	0	35156	31449	30936	
4245	0	34772	31756	30934	
4246	0	34100	34192	30948	
4247	0	33120	36616	30956	
4248	0	32448	34408	30952	
4249	0	31392	32080	30948	
4250	0	30860	32548	30960	
4251	0	30380	34336	30988	
4252	0	30026	33797	31000	
4253	0	30276	32044	30982	
4254	0	30656	32109	30976	
4255	0	31204	33367	30960	
4256	0	32096	34396	30976	
4257	0	32720	33528	30988	
4258	0	33168	32428	30983	
4259	0	33804	31548	30953	
4260	0	34504	32492	30908	
4261	0	34868	32304	30896	
4262	0	35204	32449	30885	
4263	0	35132	31993	30884	
4264	0	34964	31880	30904	
4265	0	34564	30983	30928	
4266	0	33998	32452	30932	
4267	0	33226	32815	30933	
4268	0	32809	33752	30956	
4269	0	31944	36348	30976	
4270	0	30992	31036	30996	
4271	0	30148	30720	31008	
4272	0	29784	30812	31012	
4273	0	30108	34412	30992	
4274	0	30260	37068	30993	
4275	0	30669	30868	30997	
4276	0	31584	31846	30976	
4277	0	32280	33634	30936	
4278	0	33586	34516	30932	
4279	0	35516	36956	30960	
4280	0	35076	34260	30968	
4281	0	34908	31996	30962	
4282	0	35172	29284	30980	
4283	0	35196	30442	30989	
4284	0	34912	32705	30992	
4285	0	34452	32072	30988	
4286	0	33725	31972	30996	
4287	0	32929	32478	31016	
4288	0	32236	33176	31012	
4289	0	31536	33748	31009	
4290	0	31564	33900	31010	
4291	0	30549	34055	31020	
4292	0	29884	32232	31022	
4293	0	30056	31497	31024	
4294	0	30592	32080	31028	
4295	0	31281	32977	31050	
4296	0	32005	32104	31032	
4297	0	32712	30988	31009	
4298	0	33112	33612	31028	
4299	0	33737	33616	31020	
4300	0	34400	37305	31032	
4301	0	34652	34912	31010	
4302	0	34900	32944	30998	
4303	0	35080	31620	30992	
4304	0	35028	30236	30960	
4305	0	34820	32088	30964	
4306	0	34212	32861	30976	
4307	0	33166	32136	30977	
4308	0	32286	32218	30982	
4309	0	31536	32917	31004	
4310	0	30772	32022	31013	
4311	0	30528	33454	31004	
4312	0	30676	34734	31010	
4313	0	30684	33812	31012	
4314	0	30688	33020	31004	
4315	0	31073	33440	31022	
4316	0	31681	32912	31028	
4317	0	32372	33040	31020	
4318	0	32892	32892	30999	
4319	0	33708	32416	31000	
4320	0	34448	32034	30984	
4321	0	34904	32036	30964	
4322	0	35290	31978	30982	
4323	0	35522	31996	31000	
4324	0	35096	31547	31000	
4325	0	34752	32022	30994	
4326	0	34137	34820	30996	
4327	0	33312	33868	30984	
4328	0	32536	33711	30992	
4329	0	31580	32904	30989	
4330	0	30956	33364	31020	
4331	0	30348	34388	31007	
4332	0	30068	33988	31000	
4333	0	30180	29252	31001	
4334	0	30518	30796	31008	
4335	0	30956	33256	30988	
4336	0	31628	35744	30961	
4337	0	32428	34832	30968	
4338	0	33152	32584	30964	
4339	0	33820	33168	30957	
4340	0	34548	30624	30968	
4341	0	35076	32136	30964	
4342	0	35344	32263	30968	
4343	0	35216	34598	30956	
4344	0	34924	31468	30932	
4345	0	34596	31941	30932	
4346	0	34024	31332	30962	
4347	0	33320	31822	30964	
4348	0	32476	32259	30986	
4349	0	31648	33724	30990	
4350	0	31064	34612	30969	
4351	0	30553	34385	30982	
4352	0	30064	33666	30984	
4353	0	29984	32884	30992	
4354	0	30140	32464	30977	
4355	0	30572	30820	30968	
4356	0	31590	31582	30992	
4357	0	32608	32009	30968	
4358	0	33220	32013	30988	
4359	0	34334	35000	30976	
4360	0	34717	31416	31008	
4361	0	34736	34432	31050	
4362	0	34868	34668	31046	
4363	0	36056	34248	31004	
4364	0	36376	32216	30945	
4365	0	34928	32720	30894	
4366	0	34057	33383	30878	
4367	0	33168	33832	30897	
4368	0	32440	31660	30892	
4369	0	31572	32481	30904	
4370	0	30724	35621	30932	
4371	0	30220	33512	30952	
4372	0	29760	32080	30972	
4373	0	29940	32561	30984	
4374	0	30432	31901	31012	
4375	0	30888	31561	31010	
4376	0	31592	31924	30968	
4377	0	32444	33004	30949	
4378	0	33338	33908	30944	
4379	0	33860	33344	30953	
4380	0	34340	33684	30950	
4381	0	34852	31455	30956	
4382	0	35229	30580	30953	
4383	0	35196	33980	30968	
4384	0	35138	34132	30972	
4385	0	35016	31656	30952	
4386	0	34272	32482	30972	
4387	0	33345	33812	30967	
4388	0	32652	31321	30972	
4389	0	31748	34252	30965	
4390	0	31028	31209	30960	
4391	0	30416	30176	30952	
4392	0	30026	35124	30944	
4393	0	30124	35254	30944	
4394	0	30600	32452	30942	
4395	0	31020	34025	30948	
4396	0	31613	31457	30952	
4397	0	32412	32471	30964	
4398	0	33072	35080	30945	
4399	0	33788	34108	30895	
4400	0	34533	33280	30900	
4401	0	34964	31344	30908	
4402	0	35284	30040	30924	
4403	0	35272	31936	30922	
4404	0	35120	32392	30948	
4405	0	34724	32158	30961	
4406	0	34096	31689	30964	
4407	0	33088	31064	30968	
4408	0	32440	32852	30972	
4409	0	31504	35012	30956	
4410	0	30880	36128	30965	
4411	0	30661	34328	30989	
4412	0	30484	33782	30960	
4413	0	30332	33252	30973	
4414	0	30660	29989	30944	
4415	0	31305	29300	30960	
4416	0	31598	34200	30960	
4417	0	32088	35084	30968	
4418	0	32772	34796	30968	
4419	0	33552	32961	30980	
4420	0	34944	31626	30964	
4421	0	35416	31220	30948	
4422	0	35300	32889	30951	
4423	0	35096	32213	30958	
4424	0	34920	30036	30974	
4425	0	34744	31396	30981	
4426	0	34272	37796	30980	
4427	0	33480	32904	31002	
4428	0	32392	31856	31008	
4429	0	31360	34114	31008	
4430	0	30552	32685	31010	
4431	0	30260	34142	31020	
4432	0	30740	34614	31021	
4433	0	30644	35357	31008	
4434	0	30665	31204	31032	
4435	0	31184	30805	31022	
4436	0	31740	31400	31016	
4437	0	32096	30732	31024	
4438	0	32860	33064	31012	
4439	0	33846	34048	31012	
4440	0	34656	34812	31012	
4441	0	34732	33176	31008	
4442	0	35132	32082	31016	
4443	0	35172	31508	31029	
4444	0	34893	31817	31034	
4445	0	34612	32574	31024	
4446	0	34100	33518	31015	
4447	0	33294	32736	30992	
4448	0	32936	32012	30974	
4449	0	32585	33836	30985	
4450	0	31096	34648	30958	
4451	0	30316	32812	30953	
4452	0	29860	34024	30956	
4453	0	30096	30621	30964	
4454	0	30476	31092	30960	
4455	0	30900	34836	30970	
4456	0	31560	32552	30968	
4457	0	32280	31420	30958	
4458	0	32980	32543	30937	
4459	0	33800	31706	30916	
4460	0	34440	32620	30897	
4461	0	34812	33877	30900	
4462	0	35104	32524	30892	
4463	0	35052	30324	30893	
4464	0	34972	30376	30894	
4465	0	34680	35476	30916	
4466	0	34256	34244	30928	
4467	0	33644	33388	30924	
4468	0	33256	34632	30932	
4469	0	32200	33310	30924	
4470	0	31124	33720	30920	
4471	0	30452	32968	30936	
4472	0	29885	29693	30936	
4473	0	29948	32284	30944	
4474	0	30464	36352	30936	
4475	0	30912	35732	30940	
4476	0	31456	35984	30916	
4477	0	32301	33476	30933	
4478	0	32968	30948	30932	
4479	0	33744	30140	30918	
4480	0	34384	31203	30924	
4481	0	34828	30072	30908	
4482	0	35108	27961	30897	
4483	0	35100	31169	30913	
4484	0	35268	36356	30908	
4485	0	34900	35733	30908	
4486	0	34416	35052	30906	
4487	0	33660	32513	30932	
4488	0	32960	32241	30945	
4489	0	31732	31941	30948	
4490	0	30839	32496	30970	
4491	0	30314	36436	30969	
4492	0	29876	34693	30967	
4493	0	30024	33370	30956	
4494	0	30709	32152	30952	
4495	0	31353	31720	30945	
4496	0	31432	31412	30950	
4497	0	32200	31938	30942	
4498	0	32798	34516	30960	
4499	0	33591	35300	30949	
4500	0	34330	32052	30968	
4501	0	34776	30612	30968	
4502	0	35044	29420	30957	
4503	0	34964	30905	30953	
4504	0	34846	31877	30960	
4505	0	35080	33685	30965	
4506	0	34820	34580	30977	
4507	0	33820	32240	30981	
4508	0	33632	32864	30989	
4509	0	32556	34124	31010	
4510	0	30920	33385	31005	
4511	0	30102	33564	30992	
4512	0	29737	33828	30984	
4513	0	29820	33542	30964	
4514	0	30304	33228	30976	
4515	0	30784	33064	30944	
4516	0	31368	33157	30936	
4517	0	31970	32836	30956	
4518	0	32956	31000	30940	
4519	0	33745	32148	30932	
4520	0	34423	33488	30938	
4521	0	34860	32138	30908	
4522	0	35184	31576	30932	
4523	0	35400	30832	30944	
4524	0	35228	32314	30932	
4525	0	34956	33092	30938	
4526	0	34276	34578	30938	
4527	0	33388	34880	30944	
4528	0	32528	33672	30944	
4529	0	31564	30588	30956	
4530	0	30880	31160	30954	
4531	0	30508	34236	30948	
4532	0	30372	33974	30956	
4533	0	30496	34846	30974	
4534	0	30516	35492	30952	
4535	0	30769	34344	30948	
4536	0	31485	31909	30951	
4537	0	32416	31152	30956	
4538	0	33076	32740	30960	
4539	0	33846	30285	30966	
4540	0	34356	32104	30972	
4541	0	34704	30674	30952	
4542	0	35274	33692	30945	
4543	0	35248	32600	30948	
4544	0	35016	36812	30933	
4545	0	34688	33520	30930	
4546	0	34119	32665	30928	
4547	0	33292	30454	30944	
4548	0	32708	31364	30934	
4549	0	32024	34292	30936	
4550	0	31996	33774	30964	
4551	0	30648	31724	30973	
4552	0	29948	30208	30966	
4553	0	29940	32876	30988	
4554	0	30368	36196	30993	
4555	0	30816	33765	30989	
4556	0	31417	32101	31004	
4557	0	32180	33485	30998	
4558	0	32820	31498	30997	
4559	0	33492	32744	31013	
4560	0	34169	32932	31026	
4561	0	34635	31880	31016	
4562	0	35416	34181	31032	
4563	0	35866	34378	31028	
4564	0	35544	31945	30986	
4565	0	34993	31345	31000	
4566	0	34240	32492	31015	
4567	0	33168	32340	31009	
4568	0	32500	33130	30981	
4569	0	31560	32812	30996	
4570	0	31004	32788	31005	
4571	0	31052	33304	30985	
4572	0	30340	33548	31000	
4573	0	30590	33848	30985	
4574	0	30725	33215	30968	
4575	0	30804	32767	30968	
4576	0	31242	32476	30960	
4577	0	31917	32084	30972	
4578	0	32668	32265	30953	
4579	0	33430	33188	30945	
4580	0	34233	32724	30940	
4581	0	34832	32768	30964	
4582	0	35628	32628	30937	
4583	0	35808	32334	30936	
4584	0	35056	31302	30920	
4585	0	34704	31714	30908	
4586	0	34253	28408	30914	
4587	0	33464	28327	30928	
4588	0	32769	32776	30908	
4589	0	31912	40848	30913	
4590	0	31140	40152	30924	
4591	0	30301	36852	30948	
4592	0	30302	33316	30960	
4593	0	30256	31099	30961	
4594	0	30234	31562	30964	
4595	0	30676	33076	30944	
4596	0	31343	32424	30947	
4597	0	32136	33116	30936	
4598	0	33041	32540	30957	
4599	0	33688	29794	30953	
4600	0	34445	30281	30949	
4601	0	34876	31581	30944	
4602	0	35172	31089	30944	
4603	0	35312	33768	30924	
4604	0	35128	35692	30929	
4605	0	35020	31405	30914	
4606	0	34372	30382	30912	
4607	0	33592	27421	30948	
4608	0	32916	30904	30940	
4609	0	31932	34685	30960	
4610	0	30856	36648	30957	
4611	0	30444	39040	30956	
4612	0	30308	34782	30968	
4613	0	30052	33672	30972	
4614	0	30260	34590	30940	
4615	0	30824	33404	30956	
4616	0	31316	32460	30959	
4617	0	32197	33034	30929	
4618	0	33064	30548	30917	
4619	0	33701	30714	30928	
4620	0	34405	31952	30941	
4621	0	34792	31812	30952	
4622	0	35164	31780	30948	
4623	0	35372	32168	30954	
4624	0	35096	33369	30970	
4625	0	35040	33188	30968	
4626	0	34493	31978	30984	
4627	0	33628	31765	30976	
4628	0	32672	32494	30944	
4629	0	31716	32791	30928	
4630	0	30976	33904	30949	
4631	0	30362	34220	30967	
4632	0	30132	34388	30968	
