# OpenSignals Text File Format
# {"98:D3:51:FD:8E:78": {"sensor": ["ACCBITREV"], "device name": "98:D3:51:FD:8E:78", "column": ["nSeq", "I1", "I2", "O1", "O2", "A5"], "sync interval": 2, "time": "19:51:58", "comments": "", "device connection": "BTH98:D3:51:FD:8E:78", "channels": [5], "date": "2020-07-29", "mode": 0, "digital IO": [0, 0, 1, 1], "firmware version": 0, "device": "bitalino_rev", "position": 0, "sampling rate": 100, "label": ["A5"], "resolution": [10], "special": [{}]}, "internal sensors": {"sensor": ["xAcc", "yAcc", "zAcc", "Latitude", "Longitude", "Altitude", "xLinAcc", "yLinAcc", "zLinAcc", "xRot", "yRot", "zRot", "scalarRot"], "device name": "internal sensors", "column": ["nSeq", "xAcc", "yAcc", "zAcc", "Latitude", "Longitude", "Altitude", "xLinAcc", "yLinAcc", "zLinAcc", "xRot", "yRot", "zRot", "scalarRot"], "sync interval": 2, "time": "19:52:00", "comments": "", "keywords": "", "device connection": "UNKNOWNinternal sensors", "channels": [0, 1, 2, 3, 4, 5, 6, 7, 8, 9, 10, 11, 12], "date": "2020-07-29", "mode": 0, "digital IO": [], "firmware version": 0, "device": "android", "position": 0, "sampling rate": 100, "label": ["xAcc", "yAcc", "zAcc", "Latitude", "Longitude", "Altitude", "xLinAcc", "yLinAcc", "zLinAcc", "xRot", "yRot", "zRot", "scalarRot"], "resolution": [1, 1, 1, 1, 1, 1, 1, 1, 1, 1, 1, 1, 1], "special": [{}, {}, {}, {}, {}, {}, {}, {}, {}, {}, {}, {}, {}], "sleeve color": ["UNKNOWN", "UNKNOWN", "UNKNOWN", "UNKNOWN", "UNKNOWN", "UNKNOWN", "UNKNOWN", "UNKNOWN", "UNKNOWN", "UNKNOWN", "UNKNOWN", "UNKNOWN", "UNKNOWN"]}}
# EndOfHeader
0.0	1.0	1.0	0.0	0.0	-4.846153846153847	0.03	0.11611878	-0.33159694	9.64145	38.68977	-9.33586	80.4	0.0029880777	5.2571297e-05	-0.17262077	-0.017950121	-0.0056472244	1.3030267e-05	0.9998229	
0.010001593625498007	0.0	0.0	0.0	0.0	1.1442307692307692	0.04	0.11611878	-0.33159694	9.64145	38.68977	-9.33586	80.4	0.0029880777	5.2571297e-05	-0.17262077	-0.017950121	-0.0056472244	1.3030267e-05	0.9998229	
0.020003187250996014	0.0	0.0	0.0	0.0	1.1538461538461537	0.05	0.11611878	-0.33159694	9.64145	38.68977	-9.33586	80.4	0.0029880777	5.2571297e-05	-0.17262077	-0.017950121	-0.0056472244	1.3030267e-05	0.9998229	
0.03000478087649402	0.0	0.0	0.0	0.0	1.1538461538461537	0.06	0.11611878	-0.33159694	9.64145	38.68977	-9.33586	80.4	0.0029880777	5.2571297e-05	-0.17262077	-0.017950121	-0.0056472244	1.3030267e-05	0.9998229	
0.04000637450199203	0.0	0.0	0.0	0.0	1.1538461538461537	0.07	0.11611878	-0.33159694	9.64145	38.68977	-9.33586	80.4	0.0029880777	5.2571297e-05	-0.17262077	-0.017950121	-0.0056472244	1.3030267e-05	0.9998229	
0.05000796812749003	0.0	0.0	0.0	0.0	1.1346153846153846	0.08	0.11611878	-0.33159694	9.64145	38.68977	-9.33586	80.4	0.0029880777	5.2571297e-05	-0.17262077	-0.017950121	-0.0056472244	1.3030267e-05	0.9998229	
0.06000956175298804	0.0	0.0	0.0	0.0	1.1538461538461537	0.09	0.11372458	-0.35194764	9.627085	38.68977	-9.33586	80.4	0.0029880777	5.2571297e-05	-0.17262077	-0.017950121	-0.0056472244	1.3030267e-05	0.9998229	
0.07001115537848605	0.0	0.0	0.0	0.0	1.1538461538461537	0.1	0.108936176	-0.34955344	9.629479	38.68977	-9.33586	80.4	-0.0018003508	0.0024468303	-0.17022514	-0.0071628666	-0.017400902	0.76773316	0.64049333	
0.08001274900398406	0.0	0.0	0.0	0.0	1.1538461538461537	0.11	0.09696517	-0.32920274	9.647436	38.68977	-9.33586	80.4	-0.0015453622	0.005232036	-0.15301418	-0.007067548	-0.016313422	0.7677517	0.64050084	
0.09001434262948206	0.0	0.0	0.0	0.0	1.1538461538461537	0.12	0.08499416	-0.33039984	9.64983	38.68977	-9.33586	80.4	-0.0013601482	0.005156696	-0.15069675	-0.0077390503	-0.015883781	0.761324	0.6481309	
0.10001593625498006	0.0	0.0	0.0	0.0	1.1538461538461537	0.13	0.08499416	-0.31483752	9.647436	38.68977	-9.33586	80.4	-0.0013532937	0.0048466027	-0.15362167	-0.0072145974	-0.0152670145	0.76133204	0.6481424	
0.11001752988047808	0.0	0.0	0.0	0.0	1.1538461538461537	0.14	0.08140286	-0.30765492	9.657013	38.68977	-9.33586	80.4	-0.0049446076	0.012029171	-0.14404488	-0.007345556	-0.015204438	0.7557329	0.6546624	
0.12001912350597609	0.0	0.0	0.0	0.0	1.1538461538461537	0.15	0.089782566	-0.30286652	9.662998	38.68977	-9.33586	80.4	-0.0015030131	0.003764987	-0.13843155	-0.0067194668	-0.014866041	0.75573546	0.6546739	
0.1300207171314741	0.0	0.0	0.0	0.0	1.1346153846153846	0.16	0.094570965	-0.30645782	9.673772	38.68977	-9.33586	80.4	0.0032853633	0.00017362833	-0.12765884	-0.006666268	-0.014889972	0.7580715	0.65196747	
0.1400223107569721	0.0	0.0	0.0	0.0	1.1442307692307692	0.17	0.095768064	-0.29688102	9.672575	38.68977	-9.33586	80.4	0.004482463	0.009750426	-0.1288557	-0.006666268	-0.014889972	0.7580715	0.65196747	
0.1500239043824701	0.0	0.0	0.0	0.0	1.1538461538461537	0.18	0.10414778	-0.31603462	9.661801	38.68977	-9.33586	80.4	-0.0014993846	0.0045485795	-0.13903809	-0.0065031108	-0.015936658	0.76099706	0.6485271	
0.16002549800796811	0.0	0.0	0.0	0.0	1.1538461538461537	0.19	0.10414778	-0.31603462	9.661801	38.68977	-9.33586	80.4	-0.0014993772	0.0045484602	-0.13903809	-0.00650311	-0.015936656	0.76099694	0.648527	
0.17002709163346613	0.0	0.0	0.0	0.0	1.1346153846153846	0.2	0.11731588	-0.33638534	9.624691	38.68977	-9.33586	80.4	-0.002061449	0.0060064495	-0.17525387	-0.0066823857	-0.017241223	0.76133007	0.64810085	
0.18002868525896412	0.0	0.0	0.0	0.0	1.1538461538461537	0.21	0.11133038	-0.34955344	9.610326	38.68977	-9.33586	80.4	-0.0022218823	0.006808728	-0.18918896	-0.0073702843	-0.017591411	0.7613279	0.64808655	
0.19003027888446214	0.0	0.0	0.0	0.0	1.1538461538461537	0.22	0.10414778	-0.35793316	9.609129	38.68977	-9.33586	80.4	-0.0018171668	0.007370293	-0.19014168	-0.007914105	-0.017708732	0.7630199	0.646084	
0.20003187250996013	0.0	0.0	0.0	0.0	1.1538461538461537	0.23	0.092176765	-0.36032736	9.622296	38.68977	-9.33586	80.4	-0.0016927794	0.0066298842	-0.17703629	-0.0084391115	-0.017374584	0.76302874	0.64607584	
0.21003346613545815	0.0	0.0	0.0	0.0	1.1442307692307692	0.24	0.08020575	-0.34596214	9.618706	38.68977	-9.33586	80.4	-0.0013556108	0.006334096	-0.18127537	-0.008418213	-0.01640669	0.7636967	0.64531195	
0.22003505976095616	0.0	0.0	0.0	0.0	1.1634615384615383	0.25	0.05626374	-0.32441434	9.631873	38.68977	-9.33586	80.4	-0.0009321645	0.005643338	-0.16905403	-0.008634868	-0.014738338	0.76372635	0.64531404	
0.23003665338645415	0.0	0.0	0.0	0.0	1.1538461538461537	0.26	0.03232172	-0.29209262	9.653421	38.68977	-9.33586	80.4	-0.0005503744	0.0045711696	-0.14868546	-0.008538501	-0.0125992745	0.7609033	0.6486869	
0.24003824701195217	0.0	0.0	0.0	0.0	1.1538461538461537	0.27	0.04189853	-0.2765303	9.628283	38.68977	-9.33586	80.4	-0.0007007681	0.0050928295	-0.17423058	-0.0076635065	-0.012337229	0.7609054	0.64870024	
0.25003984063745016	0.0	0.0	0.0	0.0	1.1346153846153846	0.28	0.05746084	-0.2765303	9.657013	38.68977	-9.33586	80.4	-0.0009921342	0.004157424	-0.14544487	-0.0070369625	-0.012814685	0.75991327	0.6498602	
0.2600414342629482	0.0	0.0	0.0	0.0	1.1442307692307692	0.29	0.090979666	-0.30286652	9.659407	38.68977	-9.33586	80.4	-0.0013385564	0.004453033	-0.14199257	-0.0066076666	-0.014969338	0.7598793	0.6498583	
0.2700430278884462	0.0	0.0	0.0	0.0	1.1538461538461537	0.3	0.11372458	-0.31603462	9.647436	38.68977	-9.33586	80.4	-0.0017150044	0.004966736	-0.15327835	-0.006115018	-0.016285064	0.7618656	0.64750147	
0.2800446215139442	0.0	0.0	0.0	0.0	1.1538461538461537	0.31	0.15083471	-0.34955344	9.617508	38.68977	-9.33586	80.4	-0.0028802305	0.006627023	-0.1814661	-0.0057901815	-0.018916683	0.76181805	0.6474891	
0.29004621513944223	0.0	0.0	0.0	0.0	1.1442307692307692	0.32	0.16998832	-0.40102878	9.646238	38.68977	-9.33586	80.4	-0.002669543	0.006304145	-0.15042686	-0.006676033	-0.021552319	0.7638078	0.6450493	
0.3000478087649402	0.0	0.0	0.0	0.0	1.1538461538461537	0.33	0.18914193	-0.415394	9.655815	38.68977	-9.33586	80.4	-0.0028163046	0.006074071	-0.13989353	-0.006389624	-0.022738613	0.7637801	0.6450443	
0.3100494023904382	0.0	0.0	0.0	0.0	1.1538461538461537	0.34	0.17118542	-0.39145198	9.694122	38.68977	-9.33586	80.4	-0.0019068271	0.0042794347	-0.10301113	-0.0061524683	-0.021151034	0.76761353	0.64053446	
0.32005099601593623	0.0	0.0	0.0	0.0	1.1538461538461537	0.35000000000000003	0.14963761	-0.36152446	9.68694	38.68977	-9.33586	80.4	-0.0018243343	0.0043056607	-0.11171341	-0.006022035	-0.019272765	0.7676488	0.6405525	
0.33005258964143425	0.0	0.0	0.0	0.0	1.1442307692307692	0.36	0.110133275	-0.32441434	9.689334	38.68977	-9.33586	80.4	-0.0012826994	0.0037406385	-0.111190796	-0.0064150244	-0.016466608	0.7654953	0.6431989	
0.34005418326693226	0.0	0.0	0.0	0.0	1.1634615384615383	0.37	0.076614454	-0.2777274	9.579201	38.68977	-9.33586	80.4	-0.00177861	0.0064590275	-0.22301674	-0.006261456	-0.013666223	0.76553816	0.6432148	
0.3500557768924302	0.0	0.0	0.0	0.0	1.1538461538461537	0.38	0.06703765	-0.2801216	9.498995	38.68977	-9.33586	80.4	-0.002890192	0.008542687	-0.30315685	-0.006806234	-0.013529688	0.7623272	0.64701456	
0.36005737051792824	0.0	0.0	0.0	0.0	1.1538461538461537	0.39	0.08140286	-0.31603462	9.514558	38.68977	-9.33586	80.4	-0.0024651662	0.009551644	-0.28632736	-0.0074828644	-0.015425537	0.76230025	0.64699656	
0.37005896414342626	0.0	0.0	0.0	0.0	1.1346153846153846	0.4	0.09935937	-0.37588966	9.554062	38.68977	-9.33586	80.4	-0.0025676116	0.009702027	-0.24447441	-0.00870858	-0.018380497	0.76410884	0.64476675	
0.3800605577689243	0.0	0.0	0.0	0.0	1.1538461538461537	0.41000000000000003	0.08140286	-0.427365	9.576807	38.68977	-9.33586	80.4	-0.0018949658	0.009730816	-0.21974277	-0.01112842	-0.019776559	0.76409096	0.64470935	
0.3900621513944223	0.0	0.0	0.0	0.0	1.1538461538461537	0.42	0.050278235	-0.4417302	9.605537	38.68977	-9.33586	80.4	-0.0010158457	0.008758783	-0.19062614	-0.01266047	-0.019349212	0.7692696	0.6385058	
0.40006374501992026	0.0	0.0	0.0	0.0	1.1634615384615383	0.43	0.045489833	-0.4261679	9.607931	38.68977	-9.33586	80.4	-0.0010288693	0.008817732	-0.18895626	-0.012342599	-0.018584974	0.76928604	0.6385149	
0.4100653386454183	0.0	0.0	0.0	0.0	1.1538461538461537	0.44	0.06703765	-0.3854665	9.578004	38.68977	-9.33586	80.4	-0.0015558675	0.008849651	-0.2204752	-0.010112978	-0.017729193	0.77069515	0.6368772	
0.4200669322709163	0.0	0.0	0.0	0.0	1.1538461538461537	0.45	0.11492168	-0.34715924	9.555259	38.68977	-9.33586	80.4	-0.0029635653	0.008852452	-0.24421787	-0.0069317943	-0.017823813	0.77067816	0.6369376	
0.4300685258964143	0.0	0.0	0.0	0.0	1.1442307692307692	0.46	0.14963761	-0.33159694	9.546879	38.68977	-9.33586	80.4	-0.003881812	0.008810043	-0.2526598	-0.0051801847	-0.018324632	0.7652339	0.6434707	
0.44007011952191233	0.0	0.0	0.0	0.0	1.1442307692307692	0.47000000000000003	0.15442601	-0.3196259	9.574412	38.68977	-9.33586	80.4	-0.0037505925	0.0071972907	-0.22551441	-0.0045527224	-0.017947081	0.7652353	0.64348435	
0.45007171314741035	0.0	0.0	0.0	0.0	1.1346153846153846	0.48	0.11851298	-0.30885202	9.660604	38.68977	-9.33586	80.4	-0.0016569644	0.004462689	-0.14030361	-0.0056287847	-0.016159521	0.7638129	0.645211	
0.4600733067729083	0.0	0.0	0.0	0.0	1.1442307692307692	0.49	0.09816227	-0.33159694	9.7479925	38.68977	-9.33586	80.4	-0.0005836189	0.0017343163	-0.052493095	-0.007121721	-0.016234623	0.76381993	0.64518595	
0.4700749003984063	0.0	0.0	0.0	0.0	1.1442307692307692	0.5	0.09816227	-0.32202014	9.791088	38.68977	-9.33586	80.4	-0.00011114031	0.00062042475	-0.009760857	-0.0067702164	-0.01581021	0.7645638	0.6443186	
0.48007649402390434	0.0	0.0	0.0	0.0	1.1538461538461537	0.51	0.11252748	-0.32561144	9.773131	38.68977	-9.33586	80.4	-0.00037439913	0.00092959404	-0.027430534	-0.006328206	-0.016443055	0.76455104	0.6443225	
0.49007808764940236	0.0	0.0	0.0	0.0	1.1346153846153846	0.52	0.1364695	-0.30406362	9.698911	38.68977	-9.33586	80.4	-0.0014400929	0.0031920671	-0.10195446	-0.004730772	-0.01650943	0.7641086	0.6448591	
0.5000796812749003	0.0	0.0	0.0	0.0	1.1346153846153846	0.53	0.1592144	-0.29328972	9.605537	38.68977	-9.33586	80.4	-0.0032096505	0.005968511	-0.19519997	-0.0035128098	-0.017003987	0.7640916	0.64487404	
0.5100812749003983	0.0	0.0	0.0	0.0	1.1442307692307692	0.54	0.1388637	-0.29328972	9.552865	38.68977	-9.33586	80.4	-0.0035988092	0.0076188147	-0.24813175	-0.004387449	-0.016400356	0.7624237	0.64685553	
0.5200828685258964	0.0	0.0	0.0	0.0	1.1442307692307692	0.55	0.09935937	-0.31483752	9.583989	38.68977	-9.33586	80.4	-0.002165556	0.007166177	-0.21684742	-0.0066745877	-0.015870422	0.76244634	0.64682245	
0.5300844621513944	0.0	0.0	0.0	0.0	1.1442307692307692	0.56	0.075417355	-0.35673606	9.646238	38.68977	-9.33586	80.4	-0.0012405366	0.00560686	-0.15341568	-0.008916425	-0.016649392	0.76460165	0.64422643	
0.5400860557768924	0.0	0.0	0.0	0.0	1.1634615384615383	0.5700000000000001	0.075417355	-0.40581718	9.668983	38.68977	-9.33586	80.4	-0.0010045543	0.0053195655	-0.12874603	-0.010529232	-0.018545501	0.76457053	0.6441872	
0.5500876494023904	0.0	0.0	0.0	0.0	1.1634615384615383	0.58	0.074220255	-0.41060558	9.64983	38.68977	-9.33586	80.4	-0.002201654	0.000531137	-0.14789963	-0.010407769	-0.018613936	0.76876545	0.6391752	
0.5600892430278884	0.0	0.0	0.0	0.0	1.173076923076923	0.59	0.077811554	-0.39504328	9.586384	38.68977	-9.33586	80.4	0.001389645	0.016093433	-0.21134567	-0.010407769	-0.018613936	0.76876545	0.6391752	
0.5700908366533864	0.0	0.0	0.0	0.0	1.1538461538461537	0.6	0.077811554	-0.35793316	9.527725	38.68977	-9.33586	80.4	-0.0022228211	0.0101591945	-0.2716875	-0.008862537	-0.017042935	0.7687905	0.6392122	
0.5800924302788845	0.0	0.0	0.0	0.0	1.1538461538461537	0.61	0.076614454	-0.33758244	9.512163	38.68977	-9.33586	80.4	-0.0023054034	0.009958416	-0.28800964	-0.008236096	-0.016200395	0.7688033	0.63922703	
0.5900940239043824	0.0	0.0	0.0	0.0	1.1538461538461537	0.62	0.088585466	-0.32920274	9.528923	38.68977	-9.33586	80.4	-0.00253392	0.009370655	-0.27145767	-0.0075174537	-0.016222369	0.76675147	0.6416951	
0.6000956175298804	0.0	0.0	0.0	0.0	1.1538461538461537	0.63	0.10414778	-0.35434186	9.586384	38.68977	-9.33586	80.4	-0.002383314	0.00797981	-0.21299171	-0.0076923305	-0.01765585	0.7667268	0.6416848	
0.6100972111553784	0.0	0.0	0.0	0.0	1.1346153846153846	0.64	0.107739076	-0.37469256	9.634268	38.68977	-9.33586	80.4	-0.0018588975	0.006520629	-0.16435719	-0.008182988	-0.018498847	0.7669848	0.6413464	
0.6200988047808764	0.0	0.0	0.0	0.0	1.1538461538461537	0.65	0.107739076	-0.3854665	9.6845455	38.68977	-9.33586	80.4	-0.0018588975	-0.004253298	-0.114079475	-0.008182988	-0.018498847	0.7669848	0.6413464	
0.6301003984063744	0.0	0.0	0.0	0.0	1.1538461538461537	0.66	0.108936176	-0.33638534	9.700109	38.68977	-9.33586	80.4	-0.0011242777	0.003389448	-0.10003567	-0.006789057	-0.016900243	0.7677732	0.6404628	
0.6401019920318725	0.0	0.0	0.0	0.0	1.1538461538461537	0.67	0.108936176	-0.33638534	9.635465	38.68977	-9.33586	80.4	-0.0011242777	0.003389448	-0.16467953	-0.006789057	-0.016900243	0.7677732	0.6404628	
0.6501035856573705	0.0	0.0	0.0	0.0	1.1346153846153846	0.68	0.15322891	-0.29448682	9.606734	38.68977	-9.33586	80.4	-0.0030435622	0.005993068	-0.1940651	-0.003744978	-0.016859917	0.76591593	0.64270884	
0.6601051792828685	0.0	0.0	0.0	0.0	1.1442307692307692	0.6900000000000001	0.14724341	-0.30406362	9.61272	38.68977	-9.33586	80.4	-0.002667755	0.0062683523	-0.18787289	-0.004316276	-0.017036377	0.76591766	0.6426985	
0.6701067729083665	0.0	0.0	0.0	0.0	1.1442307692307692	0.7000000000000001	0.11611878	-0.32441434	9.642648	38.68977	-9.33586	80.4	-0.0019678324	0.005265802	-0.15774822	-0.0062358896	-0.016733423	0.7642908	0.64462453	
0.6801083665338645	0.0	0.0	0.0	0.0	1.1442307692307692	0.71	0.08259996	-0.35314476	9.697714	38.68977	-9.33586	80.4	-0.00076800585	0.0037971735	-0.102083206	-0.008485023	-0.016655227	0.7643037	0.6445855	
0.6901099601593625	0.0	0.0	0.0	0.0	1.1442307692307692	0.72	0.055066638	-0.36511576	9.709685	38.68977	-9.33586	80.4	-0.0005131662	0.0033783913	-0.0898819	-0.009882623	-0.016232142	0.766897	0.64148873	
0.7001115537848605	0.0	0.0	0.0	0.0	1.1634615384615383	0.73	0.049081136	-0.34955344	9.682152	38.68977	-9.33586	80.4	-0.00071608275	0.004553288	-0.11797619	-0.00963788	-0.015479989	0.76691025	0.6414953	
0.7101131474103585	0.0	0.0	0.0	0.0	1.1634615384615383	0.74	0.075417355	-0.34356794	9.606734	38.68977	-9.33586	80.4	-0.0014377609	0.0069255233	-0.19334888	-0.008430523	-0.01623998	0.7681249	0.6400386	
0.7201147410358565	0.0	0.0	0.0	0.0	1.1538461538461537	0.75	0.095768064	-0.33399114	9.5385	38.68977	-9.33586	80.4	-0.0025862083	0.009175688	-0.26165104	-0.0073494273	-0.016654579	0.7681128	0.6400559	
0.7301163346613545	0.0	0.0	0.0	0.0	1.1442307692307692	0.76	0.10295067	-0.33279404	9.516952	38.68977	-9.33586	80.4	0.0045964047	0.010372788	-0.28319836	-0.007372954	-0.016644176	0.76720756	0.64114064	
0.7401179282868525	0.0	0.0	0.0	0.0	1.1538461538461537	0.77	0.094570965	-0.34596214	9.545682	38.68977	-9.33586	80.4	-0.0025533885	0.008862197	-0.2540655	-0.0078022894	-0.01706032	0.7672023	0.64113086	
0.7501195219123505	0.0	0.0	0.0	0.0	1.1538461538461537	0.78	0.08619126	-0.38187516	9.606734	38.68977	-9.33586	80.4	-0.00169646	0.0077147186	-0.19178009	-0.009293539	-0.018122984	0.76743674	0.6408012	
0.7601211155378486	0.0	0.0	0.0	0.0	1.1538461538461537	0.79	0.095768064	-0.40222588	9.645041	38.68977	-9.33586	80.4	-0.0016040355	0.0065437257	-0.1526022	-0.0095494855	-0.019184144	0.7674163	0.64079094	
0.7701227091633466	0.0	0.0	0.0	0.0	1.1442307692307692	0.8	0.11492168	-0.40102878	9.664195	38.68977	-9.33586	80.4	-0.0011777654	0.005579859	-0.13333416	-0.008673468	-0.019743666	0.76975805	0.63797146	
0.7801243027888446	0.0	0.0	0.0	0.0	1.1538461538461537	0.81	0.12928689	-0.39624038	9.636662	38.68977	-9.33586	80.4	-0.0022386312	0.0065931976	-0.16082859	-0.00794527	-0.020097325	0.7697461	0.6379842	
0.7901258964143426	0.0	0.0	0.0	0.0	1.1538461538461537	0.8200000000000001	0.1316811	-0.35075054	9.616311	38.68977	-9.33586	80.4	-0.002506405	0.0066408813	-0.18290615	-0.0063784677	-0.01839305	0.76919574	0.6387167	
0.8001274900398405	0.0	0.0	0.0	0.0	1.1538461538461537	0.8300000000000001	0.12928689	-0.31364042	9.604341	38.68977	-9.33586	80.4	-0.0026432872	0.006443858	-0.19619656	-0.0052516516	-0.01685522	0.76921463	0.63874656	
0.8101290836653385	0.0	0.0	0.0	0.0	1.1346153846153846	0.84	0.130484	-0.29927522	9.61272	38.68977	-9.33586	80.4	-0.002566561	0.0057154596	-0.18828392	-0.0047835847	-0.016279658	0.7665644	0.6419432	
0.8201306772908366	0.0	0.0	0.0	0.0	1.1442307692307692	0.85	0.11372458	-0.31364042	9.633071	38.68977	-9.33586	80.4	-0.0021027774	0.0053602457	-0.16770554	-0.00591534	-0.016263707	0.7665719	0.64192533	
0.8301322709163346	0.0	0.0	0.0	0.0	1.1442307692307692	0.86	0.093373865	-0.33159694	9.6845455	38.68977	-9.33586	80.4	-0.001226984	0.0038836598	-0.11590767	-0.0072844406	-0.016213372	0.76658005	0.64190274	
0.8401338645418326	0.0	0.0	0.0	0.0	1.1538461538461537	0.87	0.08020575	-0.33638534	9.720459	38.68977	-9.33586	80.4	-0.0005174875	0.0028062463	-0.07999134	-0.0079483	-0.015904237	0.7665883	0.64189273	
0.8501354581673306	0.0	0.0	0.0	0.0	1.1442307692307692	0.88	0.062249243	-0.32680854	9.718064	38.68977	-9.33586	80.4	-0.00056446344	0.0028041303	-0.08284378	-0.008307799	-0.014958275	0.7677565	0.64051336	
0.8601370517928286	0.0	0.0	0.0	0.0	1.1538461538461537	0.89	0.07062895	-0.31483752	9.679757	38.68977	-9.33586	80.4	-0.00092916936	0.0038966537	-0.12145138	-0.007610118	-0.014817784	0.76775634	0.6405253	
0.8701386454183266	0.0	0.0	0.0	0.0	1.1538461538461537	0.9	0.093373865	-0.29807812	9.622296	38.68977	-9.33586	80.4	-0.0016864389	0.005584538	-0.17919064	-0.0062170234	-0.014987199	0.7669268	0.6415294	
0.8801402390438247	0.0	0.0	0.0	0.0	1.1538461538461537	0.91	0.11372458	-0.30406362	9.563639	38.68977	-9.33586	80.4	-0.0026338473	0.0074769855	-0.23737049	-0.005642048	-0.015992256	0.766908	0.641533	
0.8901418326693227	0.0	0.0	0.0	0.0	1.1346153846153846	0.92	0.11611878	-0.33758244	9.561244	38.68977	-9.33586	80.4	-0.0028930083	0.008365303	-0.23857975	-0.006688323	-0.017416116	0.7659965	0.6425741	
0.9001434262948207	0.0	0.0	0.0	0.0	1.1538461538461537	0.93	0.11971009	-0.37349546	9.603143	38.68977	-9.33586	80.4	-0.0024241582	0.0074753165	-0.19534302	-0.0077142743	-0.018887455	0.7659754	0.642546	
0.9101450199203186	0.0	0.0	0.0	0.0	1.1538461538461537	0.9400000000000001	0.10534488	-0.40102878	9.630676	38.68977	-9.33586	80.4	-0.0018462017	0.0069127083	-0.16689873	-0.009181813	-0.019452116	0.76597273	0.6425133	
0.9201466135458166	0.0	0.0	0.0	0.0	1.1634615384615383	0.9500000000000001	0.095768064	-0.4165911	9.639056	38.68977	-9.33586	80.4	-0.0014676452	0.006987065	-0.15795898	-0.009920511	-0.019819453	0.77122754	0.6361736	
0.9301482071713146	0.0	0.0	0.0	0.0	1.1538461538461537	0.96	0.10175357	-0.40701428	9.610326	38.68977	-9.33586	80.4	-0.0019130409	0.008008391	-0.18698978	-0.009368476	-0.019701568	0.7719218	0.6353432	
0.9401498007968127	0.0	0.0	0.0	0.0	1.1634615384615383	0.97	0.11372458	-0.37588966	9.583989	38.68977	-9.33586	80.4	-0.002590783	0.008297712	-0.21444225	-0.007871276	-0.018896626	0.7719297	0.6353782	
0.9501513944223107	0.0	0.0	0.0	0.0	1.1538461538461537	0.98	0.12090719	-0.35673606	9.557653	38.68977	-9.33586	80.4	-0.0030760393	0.008955926	-0.24139118	-0.006970082	-0.018416515	0.77193344	0.6353984	
0.9601529880478087	0.0	0.0	0.0	0.0	1.1442307692307692	0.99	0.11611878	-0.32800564	9.556456	38.68977	-9.33586	80.4	-0.0029674917	0.008402407	-0.24369907	-0.006290332	-0.017076282	0.7690967	0.63887346	
0.9701545816733067	0.0	0.0	0.0	0.0	1.1346153846153846	1.0	0.10055647	-0.32800564	9.605537	38.68977	-9.33586	80.4	-0.0023838058	0.006690651	-0.19485855	-0.0068991766	-0.016469844	0.76788545	0.64033824	
0.9801561752988047	0.0	0.0	0.0	0.0	1.1442307692307692	1.01	0.076614454	-0.3196259	9.664195	38.68977	-9.33586	80.4	-0.0011437088	0.0045488477	-0.13678741	-0.0075413813	-0.015235285	0.76790917	0.6403332	
0.9901577689243027	0.0	0.0	0.0	0.0	1.1538461538461537	1.02	0.079008654	-0.33279404	9.715671	38.68977	-9.33586	80.4	0.001250498	-0.008619279	-0.08531189	-0.007546641	-0.01523268	0.76768804	0.64059824	
1.0001593625498006	0.0	0.0	0.0	0.0	1.1538461538461537	1.03	0.075417355	-0.31244332	9.719262	38.68977	-9.33586	80.4	-0.002340801	0.011731446	-0.08172035	-0.007546641	-0.01523268	0.76768804	0.64059824	
1.0101609561752987	0.0	0.0	0.0	0.0	1.1442307692307692	1.04	0.094570965	-0.30645782	9.702502	38.68977	-9.33586	80.4	0.016812801	0.017716885	-0.098480225	-0.0075525204	-0.015229766	0.7674407	0.64089453	
1.0201625498007967	0.0	0.0	0.0	0.0	1.1442307692307692	1.05	0.10295067	-0.29448682	9.671378	38.68977	-9.33586	80.4	0.025192507	0.029687881	-0.12960434	-0.0075525204	-0.015229766	0.7674407	0.64089453	
1.0301641434262947	0.0	0.0	0.0	0.0	1.1442307692307692	1.06	0.12689269	-0.29448682	9.64145	38.68977	-9.33586	80.4	0.048987463	0.029591203	-0.15953445	-0.007517433	-0.015243721	0.7685403	0.63957554	
1.0401657370517927	0.0	0.0	0.0	0.0	1.1346153846153846	1.07	0.12569559	-0.30765492	9.628283	38.68977	-9.33586	80.4	0.047575437	0.016320705	-0.17270374	-0.0075056697	-0.0152467135	0.7685403	0.6395758	
1.0501673306772907	0.0	0.0	0.0	0.0	1.1346153846153846	1.08	0.1364695	-0.34476504	9.646238	38.68977	-9.33586	80.4	0.058058143	-0.020828873	-0.15474701	-0.007498862	-0.015251773	0.7682931	0.6398725	
1.0601689243027888	0.0	0.0	0.0	0.0	1.1538461538461537	1.09	0.12330139	-0.39384618	9.65821	38.68977	-9.33586	80.4	0.044555984	-0.06980333	-0.14276886	-0.007489259	-0.015266856	0.7682929	0.6398726	
1.0701705179282868	0.0	0.0	0.0	0.0	1.1634615384615383	1.1	0.12330139	-0.39384618	9.65821	38.68977	-9.33586	80.4	0.044181094	-0.06956783	-0.14275837	-0.007484901	-0.015287029	0.768182	0.64000523	
1.0801721115537848	0.0	0.0	0.0	0.0	1.1634615384615383	1.11	0.11252748	-0.39504328	9.642648	38.68977	-9.33586	80.4	0.033018798	-0.07041341	-0.15830517	-0.0074811634	-0.01531348	0.7681816	0.64000523	
1.0901737051792828	0.0	0.0	0.0	0.0	1.1538461538461537	1.12	0.107739076	-0.36032736	9.562442	38.68977	-9.33586	80.4	0.027844414	-0.035315603	-0.23849487	-0.0074729044	-0.015343779	0.76841503	0.63972414	
1.1001752988047808	0.0	0.0	0.0	0.0	1.1538461538461537	1.1300000000000001	0.107739076	-0.36032736	9.562442	38.68977	-9.33586	80.4	0.027844414	-0.035315603	-0.23849487	-0.0074729044	-0.015343779	0.76841503	0.63972414	
1.1101768924302788	0.0	0.0	0.0	0.0	1.1538461538461537	1.1400000000000001	0.107739076	-0.36032736	9.562442	38.68977	-9.33586	80.4	0.027445666	-0.03489104	-0.23847866	-0.007471135	-0.015373431	0.7684147	0.6397241	
1.1201784860557769	0.0	0.0	0.0	0.0	1.1538461538461537	1.1500000000000001	0.08738836	-0.35314476	9.561244	38.68977	-9.33586	80.4	0.0067483485	-0.027282804	-0.23965931	-0.0074678324	-0.0154031785	0.7685642	0.63954365	
1.1301800796812749	0.0	0.0	0.0	0.0	1.1442307692307692	1.16	0.075417355	-0.35194764	9.609129	38.68977	-9.33586	80.4	-0.005494587	-0.02567321	-0.19175816	-0.007470632	-0.015428222	0.7685638	0.6395435	
1.140181673306773	0.0	0.0	0.0	0.0	1.1442307692307692	1.17	0.073023155	-0.33997664	9.671378	38.68977	-9.33586	80.4	-0.008093156	-0.01333344	-0.12949562	-0.007470204	-0.015451499	0.7687476	0.6393219	
1.150183266932271	0.0	0.0	0.0	0.0	1.1634615384615383	1.18	0.074220255	-0.34596214	9.698911	38.68977	-9.33586	80.4	-0.0070508122	-0.01897037	-0.10194874	-0.0074755047	-0.015470216	0.7687473	0.63932174	
1.160184860557769	0.0	0.0	0.0	0.0	1.1634615384615383	1.19	0.08259996	-0.32202014	9.679757	38.68977	-9.33586	80.4	0.001199685	0.0052501857	-0.1210928	-0.0074759726	-0.015487068	0.7688938	0.6391453	
1.170186454183267	0.0	0.0	0.0	0.0	1.1442307692307692	1.2	0.095768064	-0.30406362	9.677363	38.68977	-9.33586	80.4	0.014236532	0.023389608	-0.12347889	-0.007476788	-0.015498521	0.7688936	0.63914526	
1.1801880478087647	0.0	0.0	0.0	0.0	1.1538461538461537	1.21	0.12569559	-0.30765492	9.668983	38.68977	-9.33586	80.4	0.043965966	0.019921243	-0.1318531	-0.0074646464	-0.015513838	0.76923877	0.6387295	
1.1901896414342628	0.0	0.0	0.0	0.0	1.1442307692307692	1.22	0.14844051	-0.31364042	9.64145	38.68977	-9.33586	80.4	0.066406965	0.014022827	-0.15938091	-0.007455564	-0.015527155	0.76923853	0.63872963	
1.2001912350597608	0.0	0.0	0.0	0.0	1.1442307692307692	1.23	0.15562311	-0.33039984	9.653421	38.68977	-9.33586	80.4	0.07317248	-0.0026459098	-0.14740372	-0.007435205	-0.0155476285	0.7695239	0.6383855	
1.2101928286852588	0.0	0.0	0.0	0.0	1.1346153846153846	1.24	0.12928689	-0.34356794	9.673772	38.68977	-9.33586	80.4	0.046387874	-0.015696228	-0.12704563	-0.007421449	-0.015566849	0.76952356	0.63838565	
1.2201944223107568	0.0	0.0	0.0	0.0	1.1538461538461537	1.25	0.11851298	-0.35194764	9.673772	38.68977	-9.33586	80.4	0.035166115	-0.023918986	-0.1270361	-0.0074034766	-0.015590211	0.76974887	0.63811356	
1.2301960159362548	0.0	0.0	0.0	0.0	1.1538461538461537	1.26	0.11492168	-0.37588966	9.67018	38.68977	-9.33586	80.4	0.03113357	-0.04761985	-0.13061619	-0.0073940093	-0.01561404	0.76974845	0.6381136	
1.2401976095617528	0.0	0.0	0.0	0.0	1.1634615384615383	1.27	0.10295067	-0.37708676	9.643845	38.68977	-9.33586	80.4	0.01875513	-0.04850325	-0.1569376	-0.007383731	-0.015641743	0.7699315	0.6378921	
1.2501992031872509	0.0	0.0	0.0	0.0	1.1442307692307692	1.28	0.10534488	-0.36391866	9.609129	38.68977	-9.33586	80.4	0.020761982	-0.034985185	-0.19163895	-0.0073799156	-0.015668094	0.769931	0.63789207	
1.2602007968127489	0.0	0.0	0.0	0.0	1.1538461538461537	1.29	0.10295067	-0.35075054	9.576807	38.68977	-9.33586	80.4	0.018006526	-0.021467239	-0.22394562	-0.007368214	-0.015697768	0.7702922	0.6374552	
1.270202390438247	0.0	0.0	0.0	0.0	1.1538461538461537	1.3	0.08020575	-0.34117374	9.560047	38.68977	-9.33586	80.4	-0.005023606	-0.011567622	-0.24069214	-0.0073675103	-0.015719729	0.77029186	0.6374551	
1.280203984063745	0.0	0.0	0.0	0.0	1.1538461538461537	1.31	0.062249243	-0.33039984	9.589975	38.68977	-9.33586	80.4	-0.02316472	-0.000521034	-0.21075344	-0.007361604	-0.015739964	0.7705962	0.63708687	
1.290205577689243	0.0	0.0	0.0	0.0	1.1442307692307692	1.32	0.061052144	-0.34117374	9.606734	38.68977	-9.33586	80.4	-0.02446881	-0.011034101	-0.19398403	-0.0073658773	-0.015753696	0.77059597	0.63708675	
1.300207171314741	0.0	0.0	0.0	0.0	1.1634615384615383	1.33	0.062249243	-0.34237084	9.637859	38.68977	-9.33586	80.4	-0.023315303	-0.011987001	-0.16285038	-0.007365885	-0.015767617	0.77084684	0.63678277	
1.310208764940239	0.0	0.0	0.0	0.0	1.1538461538461537	1.34	0.074220255	-0.34835634	9.652225	38.68977	-9.33586	80.4	-0.0113609955	-0.017734617	-0.1484766	-0.007372956	-0.015777517	0.7708467	0.6367826	
1.320210358565737	0.0	0.0	0.0	0.0	1.1538461538461537	1.35	0.093373865	-0.35075054	9.65821	38.68977	-9.33586	80.4	0.0077625215	-0.01988703	-0.14248371	-0.007375383	-0.015789986	0.7710177	0.6365752	
1.330211952191235	0.0	0.0	0.0	0.0	1.1346153846153846	1.36	0.107739076	-0.33518824	9.659407	38.68977	-9.33586	80.4	0.022060469	-0.004106939	-0.14127922	-0.007379811	-0.015800739	0.7710175	0.6365751	
1.340213545816733	0.0	0.0	0.0	0.0	1.1538461538461537	1.37	0.1316811	-0.33039984	9.654618	38.68977	-9.33586	80.4	0.04586351	0.00086706877	-0.14605904	-0.0073768143	-0.015814211	0.77116054	0.6364015	
1.350215139442231	0.0	0.0	0.0	0.0	1.1442307692307692	1.3800000000000001	0.1436521	-0.32321724	9.646238	38.68977	-9.33586	80.4	0.057608448	0.008202553	-0.1544323	-0.0073728897	-0.015827563	0.7711603	0.63640153	
1.360216733067729	0.0	0.0	0.0	0.0	1.1442307692307692	1.3900000000000001	0.14963761	-0.33518824	9.64145	38.68977	-9.33586	80.4	0.06327823	-0.0036204457	-0.15921307	-0.00736238	-0.01584498	0.77127653	0.63626045	
1.370218326693227	0.0	0.0	0.0	0.0	1.1442307692307692	1.4000000000000001	0.1448492	-0.34955344	9.673772	38.68977	-9.33586	80.4	0.058107607	-0.017817497	-0.1268816	-0.0073528104	-0.015864	0.77127606	0.6362605	
1.380219920318725	0.0	0.0	0.0	0.0	1.1538461538461537	1.41	0.12569559	-0.35194764	9.696517	38.68977	-9.33586	80.4	0.038557246	-0.020025194	-0.10412693	-0.00734093	-0.01588529	0.7713691	0.6361474	
1.3902215139442229	0.0	0.0	0.0	0.0	1.1538461538461537	1.42	0.12090719	-0.35434186	9.697714	38.68977	-9.33586	80.4	0.033372812	-0.0222148	-0.10291958	-0.0073319934	-0.015906189	0.7713688	0.6361475	
1.400223107569721	0.0	0.0	0.0	0.0	1.1538461538461537	1.43	0.107739076	-0.34237084	9.707291	38.68977	-9.33586	80.4	0.019837633	-0.010049373	-0.093333244	-0.00732213	-0.015926545	0.77143776	0.63606346	
1.410224701195219	0.0	0.0	0.0	0.0	1.1346153846153846	1.44	0.10175357	-0.33518824	9.625888	38.68977	-9.33586	80.4	0.013523139	-0.0026915073	-0.17472744	-0.0073148794	-0.015944118	0.7714373	0.63606346	
1.420226294820717	0.0	0.0	0.0	0.0	1.1538461538461537	1.45	0.09935937	-0.31483752	9.604341	38.68977	-9.33586	80.4	0.010834098	0.017783254	-0.19626713	-0.007305826	-0.01595924	0.7714961	0.635992	
1.430227888446215	0.0	0.0	0.0	0.0	1.1538461538461537	1.46	0.079008654	-0.31364042	9.599552	38.68977	-9.33586	80.4	-0.009741589	0.019058824	-0.20105076	-0.0072995224	-0.015969627	0.77149594	0.63599205	
1.440229482071713	0.0	0.0	0.0	0.0	1.1634615384615383	1.47	0.08259996	-0.33039984	9.616311	38.68977	-9.33586	80.4	-0.006322257	0.0023690164	-0.18428802	-0.0072938437	-0.01597848	0.7715425	0.6359354	
1.450231075697211	0.0	0.0	0.0	0.0	1.1442307692307692	1.48	0.077811554	-0.36272156	9.631873	38.68977	-9.33586	80.4	-0.011238366	-0.029831678	-0.1687212	-0.007292749	-0.015987389	0.7715422	0.63593537	
1.460232669322709	0.0	0.0	0.0	0.0	1.1634615384615383	1.49	0.08140286	-0.36511576	9.66659	38.68977	-9.33586	80.4	-0.0077427626	-0.032058984	-0.13399792	-0.007293487	-0.015997473	0.77157825	0.63589156	
1.470234262948207	0.0	0.0	0.0	0.0	1.1442307692307692	1.5	0.08020575	-0.36631286	9.646238	38.68977	-9.33586	80.4	-0.009007402	-0.033044994	-0.15434074	-0.0072976793	-0.016007975	0.77157795	0.6358914	
1.480235856573705	0.0	0.0	0.0	0.0	1.1538461538461537	1.51	0.095768064	-0.35314476	9.628283	38.68977	-9.33586	80.4	0.006484233	-0.019655257	-0.1722889	-0.007302087	-0.01601899	0.7715779	0.6358913	
1.490237450199203	0.0	0.0	0.0	0.0	1.1442307692307692	1.52	0.11971009	-0.35314476	9.633071	38.68977	-9.33586	80.4	0.030310147	-0.01942566	-0.16749096	-0.007304965	-0.016031794	0.7715777	0.6358912	
1.500239043824701	0.0	0.0	0.0	0.0	1.1538461538461537	1.53	0.1316811	-0.34835634	9.639056	38.68977	-9.33586	80.4	0.04210227	-0.014405429	-0.16149712	-0.007305446	-0.016046721	0.7715775	0.6358911	
1.510240637450199	0.0	0.0	0.0	0.0	1.1538461538461537	1.54	0.1436521	-0.34596214	9.66659	38.68977	-9.33586	80.4	0.053819522	-0.011784941	-0.1339531	-0.0073028062	-0.01606386	0.77157706	0.635891	
1.5202422310756971	0.0	0.0	0.0	0.0	1.1442307692307692	1.55	0.14724341	-0.32561144	9.6845455	38.68977	-9.33586	80.4	0.05708675	0.008747637	-0.11598778	-0.007295957	-0.01608153	0.7715768	0.6358911	
1.5302438247011951	0.0	0.0	0.0	0.0	1.1346153846153846	1.56	0.12449849	-0.32202014	9.676167	38.68977	-9.33586	80.4	0.034006797	0.012474328	-0.12435913	-0.0072871684	-0.016097724	0.7715765	0.63589114	
1.5402454183266931	0.0	0.0	0.0	0.0	1.1538461538461537	1.57	0.11252748	-0.32920274	9.6845455	38.68977	-9.33586	80.4	0.02171763	0.0054004192	-0.115974426	-0.007279577	-0.01611169	0.77152103	0.63595814	
1.5502470119521912	0.0	0.0	0.0	0.0	1.1538461538461537	1.58	0.09696517	-0.33518824	9.664195	38.68977	-9.33586	80.4	0.005879946	-0.00048598647	-0.13631916	-0.007271958	-0.01612452	0.7715208	0.6359582	
1.5602486055776892	0.0	0.0	0.0	0.0	1.1538461538461537	1.59	0.08619126	-0.33399114	9.647436	38.68977	-9.33586	80.4	-0.0051134825	0.0008004308	-0.15307236	-0.0072671394	-0.016134745	0.77148443	0.63600206	
1.5702501992031872	0.0	0.0	0.0	0.0	1.1442307692307692	1.6	0.06943185	-0.33399114	9.617508	38.68977	-9.33586	80.4	-0.02201473	0.00088217854	-0.1829958	-0.0072642122	-0.016142564	0.7714843	0.63600206	
1.5802517928286852	0.0	0.0	0.0	0.0	1.1538461538461537	1.61	0.07062895	-0.36152446	9.598354	38.68977	-9.33586	80.4	-0.020900853	-0.02652672	-0.20214558	-0.007265894	-0.016149746	0.771448	0.63604593	
1.5902533864541832	0.0	0.0	0.0	0.0	1.1538461538461537	1.62	0.06464344	-0.36391866	9.622296	38.68977	-9.33586	80.4	-0.026913017	-0.028750896	-0.1781969	-0.0072703613	-0.016157303	0.7714479	0.6360458	
1.600254980079681	0.0	0.0	0.0	0.0	1.1538461538461537	1.6300000000000001	0.077811554	-0.36750996	9.639056	38.68977	-9.33586	80.4	-0.013745226	-0.03213206	-0.16143036	-0.0072776955	-0.016165346	0.7714269	0.63607097	
1.610256573705179	0.0	0.0	0.0	0.0	1.1442307692307692	1.6400000000000001	0.092176765	-0.35673606	9.603143	38.68977	-9.33586	80.4	0.00061522424	-0.021130294	-0.19733524	-0.007284901	-0.01617447	0.7714268	0.6360708	
1.620258167330677	0.0	0.0	0.0	0.0	1.1634615384615383	1.6500000000000001	0.11252748	-0.35434186	9.5971575	38.68977	-9.33586	80.4	0.02092082	-0.018501967	-0.20331287	-0.0072856797	-0.01618742	0.77162474	0.6358302	
1.630259760956175	0.0	0.0	0.0	0.0	1.1538461538461537	1.6600000000000001	0.12569559	-0.36032736	9.621099	38.68977	-9.33586	80.4	0.033985965	-0.0242351	-0.17936039	-0.0072898148	-0.016200695	0.77162457	0.6358301	
1.640261354581673	0.0	0.0	0.0	0.0	1.1538461538461537	1.67	0.1316811	-0.35673606	9.657013	38.68977	-9.33586	80.4	0.039809003	-0.02038443	-0.14343643	-0.0072927545	-0.016215757	0.77158827	0.6358739	
1.6502629482071711	0.0	0.0	0.0	0.0	1.1346153846153846	1.68	0.12808979	-0.34117374	9.682152	38.68977	-9.33586	80.4	0.03601101	-0.0045871735	-0.11828804	-0.0072922455	-0.01623171	0.77158785	0.6358738	
1.6602645418326691	0.0	0.0	0.0	0.0	1.1442307692307692	1.69	0.12808979	-0.34476504	9.683349	38.68977	-9.33586	80.4	0.035772696	-0.007962942	-0.11708069	-0.007290616	-0.016247584	0.77155805	0.6359096	
1.6702661354581672	0.0	0.0	0.0	0.0	1.1538461538461537	1.7	0.11971009	-0.33039984	9.668983	38.68977	-9.33586	80.4	0.027142644	0.00657779	-0.13143826	-0.0072864615	-0.016262613	0.77155787	0.6359097	
1.6802677290836652	0.0	0.0	0.0	0.0	1.1538461538461537	1.71	0.11971009	-0.3172317	9.67018	38.68977	-9.33586	80.4	0.0268799	0.019864112	-0.13023472	-0.0072749616	-0.016278023	0.7717528	0.6356726	
1.6902693227091632	0.0	0.0	0.0	0.0	1.1346153846153846	1.72	0.11971009	-0.3172317	9.67018	38.68977	-9.33586	80.4	0.0268799	0.019864112	-0.13023472	-0.0072749616	-0.016278023	0.7717528	0.6356726	
1.7002709163346612	0.0	0.0	0.0	0.0	1.1538461538461537	1.73	0.10414778	-0.33039984	9.676167	38.68977	-9.33586	80.4	0.0110728	0.00679031	-0.124243736	-0.0072697005	-0.016289087	0.77170134	0.63573486	
1.7102725099601592	0.0	0.0	0.0	0.0	1.1538461538461537	1.74	0.10175357	-0.33159694	9.667787	38.68977	-9.33586	80.4	0.008459128	0.0056683123	-0.1326189	-0.0072635016	-0.01629916	0.77170116	0.6357349	
1.7202741035856572	0.0	0.0	0.0	0.0	1.1538461538461537	1.75	0.08738836	-0.34476504	9.660604	38.68977	-9.33586	80.4	-0.0060724765	-0.007416576	-0.13979721	-0.0072604087	-0.016307492	0.7716716	0.6357708	
1.7302756972111553	0.0	0.0	0.0	0.0	1.1442307692307692	1.76	0.08140286	-0.34596214	9.655815	38.68977	-9.33586	80.4	-0.012180008	-0.008515894	-0.14458084	-0.0072587794	-0.0163153	0.77167135	0.63577074	
1.7402772908366533	0.0	0.0	0.0	0.0	1.1538461538461537	1.77	0.095768064	-0.35553896	9.628283	38.68977	-9.33586	80.4	0.0020803064	-0.017968953	-0.1721077	-0.007259425	-0.016323237	0.77164173	0.63580656	
1.7502788844621513	0.0	0.0	0.0	0.0	1.1538461538461537	1.78	0.10175357	-0.35075054	9.623494	38.68977	-9.33586	80.4	0.007957131	-0.0130370855	-0.17689037	-0.007259801	-0.016332408	0.77164155	0.6358065	
1.7602804780876493	0.0	0.0	0.0	0.0	1.1538461538461537	1.79	0.10175357	-0.35793316	9.623494	38.68977	-9.33586	80.4	0.007848389	-0.020049512	-0.1768837	-0.007261043	-0.016342636	0.7716414	0.63580644	
1.7702820717131473	0.0	0.0	0.0	0.0	1.1442307692307692	1.8	0.10055647	-0.35553896	9.629479	38.68977	-9.33586	80.4	0.006546162	-0.01747027	-0.17089081	-0.007262909	-0.01635333	0.7716412	0.6358064	
1.7802836653386453	0.0	0.0	0.0	0.0	1.1538461538461537	1.81	0.10534488	-0.35913026	9.606734	38.68977	-9.33586	80.4	0.011223599	-0.020857543	-0.19362831	-0.007265159	-0.01636496	0.771641	0.63580626	
1.7902852589641434	0.0	0.0	0.0	0.0	1.1634615384615383	1.82	0.11252748	-0.35913026	9.592369	38.68977	-9.33586	80.4	0.01827424	-0.02063337	-0.20798397	-0.007267238	-0.016378066	0.7716408	0.63580614	
1.8002868525896414	0.0	0.0	0.0	0.0	1.1538461538461537	1.83	0.10534488	-0.36631286	9.605537	38.68977	-9.33586	80.4	0.010954551	-0.027558297	-0.1948061	-0.0072757336	-0.0163902	0.7714259	0.63606644	
1.8102884462151394	0.0	0.0	0.0	0.0	1.1346153846153846	1.84	0.10055647	-0.35075054	9.648633	38.68977	-9.33586	80.4	0.006038688	-0.011750698	-0.15170002	-0.0072786785	-0.01640399	0.77142566	0.6360663	
1.8202900398406372	0.0	0.0	0.0	0.0	1.1538461538461537	1.85	0.09816227	-0.34596214	9.677363	38.68977	-9.33586	80.4	0.003530614	-0.0067394674	-0.122961044	-0.007285875	-0.016414484	0.7712532	0.636275	
1.8302916334661352	0.0	0.0	0.0	0.0	1.1538461538461537	1.86	0.089782566	-0.33638534	9.68694	38.68977	-9.33586	80.4	-0.0049341917	0.0030201375	-0.11337757	-0.0072884616	-0.01642444	0.77125305	0.63627493	
1.8402932270916332	0.0	0.0	0.0	0.0	1.1538461538461537	1.87	0.107739076	-0.33159694	9.67018	38.68977	-9.33586	80.4	0.012926221	0.007950783	-0.13013077	-0.0072928253	-0.016431587	0.7711163	0.6364405	
1.8502948207171313	0.0	0.0	0.0	0.0	1.1346153846153846	1.8800000000000001	0.09816227	-0.31364042	9.655815	38.68977	-9.33586	80.4	0.003260672	0.02598551	-0.1444931	-0.0072918762	-0.016437544	0.7711162	0.6364405	
1.8602964143426293	0.0	0.0	0.0	0.0	1.1538461538461537	1.8900000000000001	0.11731588	-0.31483752	9.668983	38.68977	-9.33586	80.4	0.022298649	0.02481398	-0.13132286	-0.007296297	-0.016438697	0.77080107	0.63682204	
1.8702980079681273	0.0	0.0	0.0	0.0	1.1442307692307692	1.9000000000000001	0.12090719	-0.31603462	9.685743	38.68977	-9.33586	80.4	0.025743961	0.023601621	-0.114562035	-0.007290064	-0.016442835	0.77080095	0.63682216	
1.8802996015936253	0.0	0.0	0.0	0.0	1.1538461538461537	1.9100000000000001	0.12210429	-0.32680854	9.685743	38.68977	-9.33586	80.4	0.026762597	0.0127975345	-0.11456108	-0.0072888336	-0.016444452	0.7705389	0.6371391	
1.8903011952191233	0.0	0.0	0.0	0.0	1.1442307692307692	1.92	0.11492168	-0.33638534	9.664195	38.68977	-9.33586	80.4	0.01939927	0.0031994581	-0.1361084	-0.0072810412	-0.016449487	0.7705388	0.6371392	
1.9003027888446213	0.0	0.0	0.0	0.0	1.1538461538461537	1.93	0.12210429	-0.34237084	9.657013	38.68977	-9.33586	80.4	0.026379459	-0.0027900636	-0.14328861	-0.0072784442	-0.01645348	0.7703263	0.63739616	
1.9103043824701194	0.0	0.0	0.0	0.0	1.1538461538461537	1.94	0.11252748	-0.35075054	9.657013	38.68977	-9.33586	80.4	0.016601168	-0.011144042	-0.14328575	-0.0072713667	-0.01646104	0.77032614	0.6373962	
1.9203059760956174	0.0	0.0	0.0	0.0	1.1538461538461537	1.95	0.11611878	-0.35793316	9.662998	38.68977	-9.33586	80.4	0.019994363	-0.01826632	-0.13729668	-0.007269872	-0.016467946	0.7701586	0.6375984	
1.9303075697211154	0.0	0.0	0.0	0.0	1.1442307692307692	1.96	0.09935937	-0.36032736	9.624691	38.68977	-9.33586	80.4	0.0030571446	-0.020561576	-0.17559814	-0.0072661084	-0.016477617	0.7701584	0.6375984	
1.9403091633466134	0.0	0.0	0.0	0.0	1.1538461538461537	1.97	0.090979666	-0.35793316	9.592369	38.68977	-9.33586	80.4	-0.005465463	-0.018039376	-0.20791435	-0.0072668917	-0.01648631	0.770072	0.6377026	
1.9503107569721114	0.0	0.0	0.0	0.0	1.1538461538461537	1.98	0.08619126	-0.35673606	9.576807	38.68977	-9.33586	80.4	-0.010358915	-0.016691059	-0.22347069	-0.007267685	-0.016495667	0.7700718	0.6377025	
1.9603123505976094	0.0	0.0	0.0	0.0	1.1538461538461537	1.99	0.075417355	-0.34955344	9.595961	38.68977	-9.33586	80.4	-0.02118282	-0.009362191	-0.20431042	-0.0072721895	-0.016502285	0.7700056	0.6377822	
1.9703139442231075	0.0	0.0	0.0	0.0	1.1442307692307692	2.0	0.079008654	-0.35793316	9.610326	38.68977	-9.33586	80.4	-0.017607354	-0.017570734	-0.1899395	-0.007277137	-0.016509527	0.77000546	0.6377821	
1.9803155378486055	0.0	0.0	0.0	0.0	1.1538461538461537	2.0100000000000002	0.079008654	-0.35673606	9.627085	38.68977	-9.33586	80.4	-0.01759275	-0.016197324	-0.17317486	-0.007284878	-0.016515346	0.7699501	0.63784873	
1.9903171314741035	0.0	0.0	0.0	0.0	1.1538461538461537	2.02	0.08379706	-0.35553896	9.654618	38.68977	-9.33586	80.4	-0.012771249	-0.014811039	-0.1456356	-0.0072923307	-0.016521702	0.76995015	0.6378486	
2.0003187250996013	0.0	0.0	0.0	0.0	1.1538461538461537	2.0300000000000002	0.09816227	-0.35075054	9.654618	38.68977	-9.33586	80.4	0.0016150251	-0.009847134	-0.14562893	-0.0072999513	-0.016527433	0.76990813	0.6378989	
2.0103203187250993	0.0	0.0	0.0	0.0	1.1346153846153846	2.04	0.12449849	-0.33279404	9.630676	38.68977	-9.33586	80.4	0.027917415	0.008255154	-0.16956615	-0.0073033674	-0.016534261	0.769908	0.6378988	
2.0203219123505973	0.0	0.0	0.0	0.0	1.1538461538461537	2.05	0.11731588	-0.32920274	9.643845	38.68977	-9.33586	80.4	0.02066715	0.011957407	-0.15639305	-0.0073050885	-0.01654048	0.7698783	0.6379345	
2.0303235059760953	0.0	0.0	0.0	0.0	1.1538461538461537	2.06	0.12928689	-0.32202014	9.660604	38.68977	-9.33586	80.4	0.03252568	0.019205034	-0.13963127	-0.007302791	-0.016546695	0.7698782	0.6379345	
2.0403250996015934	0.0	0.0	0.0	0.0	1.1538461538461537	2.07	0.1400608	-0.33159694	9.692925	38.68977	-9.33586	80.4	0.04312112	0.009674668	-0.10730553	-0.007297297	-0.016554326	0.76987803	0.63793457	
2.0503266932270914	0.0	0.0	0.0	0.0	1.1442307692307692	2.08	0.1316811	-0.32680854	9.692925	38.68977	-9.33586	80.4	0.03452781	0.014482558	-0.107302666	-0.007289544	-0.016562039	0.769878	0.6379347	
2.0603282868525894	0.0	0.0	0.0	0.0	1.1538461538461537	2.09	0.11851298	-0.33399114	9.657013	38.68977	-9.33586	80.4	0.02114515	0.007311672	-0.14321232	-0.007280736	-0.016569817	0.7699074	0.63789904	
2.0703298804780874	0.0	0.0	0.0	0.0	1.1538461538461537	2.1	0.108936176	-0.32920274	9.65821	38.68977	-9.33586	80.4	0.011364877	0.012097031	-0.14201355	-0.0072726537	-0.01657632	0.7699071	0.6378991	
2.0803314741035854	0.0	0.0	0.0	0.0	1.1538461538461537	2.11	0.08140286	-0.32321724	9.659407	38.68977	-9.33586	80.4	-0.016306326	0.018057555	-0.14081573	-0.0072669685	-0.016579587	0.76988626	0.63792425	
2.0903330677290834	0.0	0.0	0.0	0.0	1.1442307692307692	2.12	0.079008654	-0.33159694	9.627085	38.68977	-9.33586	80.4	-0.01870054	0.009677917	-0.17313766	-0.0072669694	-0.016579589	0.7698864	0.6379243	
2.1003346613545815	0.0	0.0	0.0	0.0	1.1538461538461537	2.13	0.08259996	-0.33997664	9.607931	38.68977	-9.33586	80.4	-0.015109234	0.0012982488	-0.19229126	-0.007266202	-0.016579926	0.7699159	0.63788867	
2.1103362549800795	0.0	0.0	0.0	0.0	1.1634615384615383	2.14	0.092176765	-0.35434186	9.578004	38.68977	-9.33586	80.4	-0.0055324286	-0.013066977	-0.22221851	-0.007266202	-0.016579926	0.7699159	0.63788867	
2.1203378486055775	0.0	0.0	0.0	0.0	1.1634615384615383	2.15	0.09696517	-0.33279404	9.603143	38.68977	-9.33586	80.4	-0.00074403733	0.008480817	-0.19708061	-0.007265433	-0.016580263	0.76994544	0.63785297	
2.1303394422310755	0.0	0.0	0.0	0.0	1.1442307692307692	2.16	0.1436521	-0.15442601	9.642648	38.68977	-9.33586	80.4	0.045825288	0.18652835	-0.15758514	-0.0072503886	-0.016571498	0.7699455	0.63785326	
2.1403410358565735	0.0	0.0	0.0	0.0	1.1634615384615383	2.17	0.2837129	1.0929531	9.680955	38.68977	-9.33586	80.4	0.18497291	1.4279329	-0.11947441	-0.0070140883	-0.016369095	0.7701847	0.6375723	
2.1503426294820716	0.0	0.0	0.0	0.0	1.1538461538461537	2.18	0.5650316	3.2333694	9.740809	38.68977	-9.33586	80.4	0.45988697	3.527079	-0.0608778	-0.005453839	-0.014943569	0.76877874	0.63931704	
2.1603442231075696	0.0	0.0	0.0	0.0	1.1538461538461537	2.19	0.22385786	1.8662802	9.616311	38.68977	-9.33586	80.4	0.11012028	2.0981069	-0.18693924	-0.0031709576	-0.012779391	0.7652076	0.6436491	
2.1703458167330676	0.0	0.0	0.0	0.0	1.1442307692307692	2.2	-0.08619126	0.008379706	9.665392	38.68977	-9.33586	80.4	-0.20499569	0.19506067	-0.13876152	-0.0015759511	-0.0111721875	0.7603349	0.6494333	
2.1803474103585656	0.0	0.0	0.0	0.0	1.1442307692307692	2.21	-0.46447513	-0.94092125	9.589975	38.68977	-9.33586	80.4	-0.5849393	-0.761456	-0.21429253	-0.0013506938	-0.010938004	0.7556855	0.6548419	
2.1903490039840636	0.0	0.0	0.0	0.0	1.1153846153846154	2.22	-0.06823475	-1.0881647	9.692925	38.68977	-9.33586	80.4	-0.19046295	-0.91284865	-0.111395836	-0.001209424	-0.010829917	0.7517283	0.6593829	
2.2003505976095616	0.0	0.0	0.0	0.0	1.1153846153846154	2.23	0.016759412	-0.8858546	9.653421	38.68977	-9.33586	80.4	-0.10629494	-0.7133782	-0.15093994	-0.0011282756	-0.010744107	0.7489	0.662595	
2.2103521912350597	0.0	0.0	0.0	0.0	1.2307692307692308	2.24	-0.07062895	-0.60812724	9.631873	38.68977	-9.33586	80.4	-0.19429189	-0.43749332	-0.17251301	-0.0010821044	-0.010690393	0.7464586	0.6653452	
2.2203537848605577	0.0	0.0	0.0	0.0	1.2692307692307692	2.25	0.05267244	-0.46088383	9.605537	38.68977	-9.33586	80.4	-0.07217695	-0.2913037	-0.19885159	-0.0010286069	-0.010687931	0.74474984	0.6672574	
2.2303553784860557	0.0	0.0	0.0	0.0	1.1634615384615383	2.2600000000000002	0.29328972	-0.4429273	9.537302	38.68977	-9.33586	80.4	0.16615483	-0.27365917	-0.26706314	-0.00096266606	-0.010751082	0.7427933	0.6694338	
2.2403569721115537	0.0	0.0	0.0	0.0	1.2307692307692308	2.27	0.2885013	-0.47644615	9.64983	38.68977	-9.33586	80.4	0.15729931	-0.30681008	-0.15447521	-0.0008487054	-0.010901758	0.7410998	0.6713059	
2.2503585657370517	0.0	0.0	0.0	0.0	1.0961538461538463	2.2800000000000002	0.31124622	-0.4321534	9.645041	38.68977	-9.33586	80.4	0.17597385	-0.2621083	-0.15920067	-0.0007447484	-0.01105421	0.7389173	0.67370516	
2.2603601593625497	0.0	0.0	0.0	0.0	0.8942307692307692	2.29	0.40701428	-0.32920274	9.604341	38.68977	-9.33586	80.4	0.2677184	-0.15896517	-0.19984245	-0.000630996	-0.011197985	0.7370341	0.67576253	
2.2703617529880478	0.0	0.0	0.0	0.0	1.0576923076923075	2.3000000000000003	0.5722142	-0.01316811	9.605537	38.68977	-9.33586	80.4	0.42796803	0.1570788	-0.19857311	-0.00048805348	-0.01136718	0.73448455	0.6785301	
2.280363346613546	0.0	0.0	0.0	0.0	1.0096153846153846	2.31	0.4345476	0.19393034	9.733627	38.68977	-9.33586	80.4	0.2846238	0.36359966	-0.07040882	-0.0002999066	-0.0115409475	0.7318625	0.6813546	
2.290364940239044	0.0	0.0	0.0	0.0	1.5961538461538463	2.32	0.21906945	0.20470424	9.582792	38.68977	-9.33586	80.4	0.06464741	0.3722849	-0.22120953	-0.00012423402	-0.011618783	0.7280523	0.68542314	
2.300366533864542	0.0	0.0	0.0	0.0	1.1442307692307692	2.33	0.06584055	0.22266077	9.668983	38.68977	-9.33586	80.4	-0.093286	0.38747716	-0.13498974	8.212027e-05	-0.0116812335	0.72423136	0.6894582	
2.31036812749004	0.0	0.0	0.0	0.0	1.1538461538461537	2.34	-0.11971009	-0.025139118	9.622296	38.68977	-9.33586	80.4	-0.28268135	0.13628379	-0.18167114	0.00026444296	-0.011693136	0.719558	0.69433385	
2.320369721115538	0.0	0.0	0.0	0.0	1.625	2.35	-0.06464344	-0.29927522	9.592369	38.68977	-9.33586	80.4	-0.2305168	-0.14131853	-0.21160603	0.00042937236	-0.011671243	0.7157228	0.6982869	
2.330371314741036	0.0	0.0	0.0	0.0	1.3461538461538463	2.36	0.09935937	-0.5255273	9.676167	38.68977	-9.33586	80.4	-0.06939439	-0.37073696	-0.12781048	0.00057578034	-0.011661993	0.7114297	0.70266026	
2.340372908366534	0.0	0.0	0.0	0.0	1.2692307692307692	2.37	0.25378537	-0.60094464	9.639056	38.68977	-9.33586	80.4	0.0827944	-0.44908017	-0.16492653	0.0007082577	-0.01163939	0.708191	0.70592463	
2.3503745019920315	0.0	0.0	0.0	0.0	1.0288461538461537	2.38	0.30526072	-0.62009823	9.648633	38.68977	-9.33586	80.4	0.13201183	-0.4707417	-0.15534973	0.00081555196	-0.0116348015	0.7042644	0.709842	
2.3603760956175295	0.0	0.0	0.0	0.0	0.9903846153846154	2.39	0.20829555	-0.6344634	9.64983	38.68977	-9.33586	80.4	0.03227669	-0.4869401	-0.15413094	0.0009327075	-0.01167323	0.7012974	0.7127727	
2.3703776892430275	0.0	0.0	0.0	0.0	1.048076923076923	2.4	0.29688102	-0.6799533	9.7479925	38.68977	-9.33586	80.4	0.118123814	-0.53381497	-0.05593872	0.0010177669	-0.011728893	0.6974445	0.7165421	
2.3803792828685255	0.0	0.0	0.0	0.0	1.2307692307692308	2.41	0.36990416	-0.46686932	9.458294	38.68977	-9.33586	80.4	0.18887573	-0.3222826	-0.3456192	0.0011081691	-0.011761235	0.69457066	0.71932745	
2.3903808764940235	0.0	0.0	0.0	0.0	1.375	2.42	0.45968673	-0.25139117	9.7803135	38.68977	-9.33586	80.4	0.27485183	-0.108172774	-0.02354908	0.0012259851	-0.011859548	0.6904818	0.7232516	
2.4003824701195215	0.0	0.0	0.0	0.0	1.3076923076923075	2.43	0.59855044	0.1412579	9.562442	38.68977	-9.33586	80.4	0.4111304	0.28196678	-0.2414074	0.0013573605	-0.011872619	0.6872941	0.7262809	
2.4103840637450196	0.0	0.0	0.0	0.0	0.6730769230769231	2.44	0.4333505	0.25378537	9.884461	38.68977	-9.33586	80.4	0.24184531	0.391832	0.08065319	0.0015212321	-0.011940804	0.6825386	0.7307504	
2.4203856573705176	0.0	0.0	0.0	0.0	1.2692307692307692	2.45	0.32202014	0.20470424	9.496601	38.68977	-9.33586	80.4	0.12902172	0.33835515	-0.30723858	0.0016709077	-0.011852951	0.6784522	0.7345471	
2.4303872509960156	0.0	0.0	0.0	0.0	1.1923076923076925	2.46	0.34715924	-0.19991584	9.591172	38.68977	-9.33586	80.4	0.15186302	-0.07062544	-0.21268082	0.001824913	-0.011802234	0.6729019	0.73963535	
2.4403888446215136	0.0	0.0	0.0	0.0	0.8846153846153846	2.47	0.32920274	-0.45968673	9.668983	38.68977	-9.33586	80.4	0.13093916	-0.33449423	-0.1348629	0.0020085538	-0.011786167	0.6683221	0.743776	
2.4503904382470116	0.0	0.0	0.0	0.0	0.7884615384615385	2.48	0.30286652	-0.48722005	9.603143	38.68977	-9.33586	80.4	0.10156497	-0.3657409	-0.20068932	0.0021633846	-0.011791624	0.6626506	0.7488327	
2.4603920318725097	0.0	0.0	0.0	0.0	0.7019230769230769	2.49	0.33877954	-0.35913026	9.510966	38.68977	-9.33586	80.4	0.13416791	-0.24115567	-0.29283905	0.0023391703	-0.01181366	0.6582059	0.75274163	
2.4703936254980077	0.0	0.0	0.0	0.0	0.875	2.5	0.33518824	-0.33399114	9.579201	38.68977	-9.33586	80.4	0.12675375	-0.21920078	-0.22456264	0.0025037762	-0.011871986	0.6527352	0.757489	
2.4803952191235057	0.0	0.0	0.0	0.0	1.375	2.5100000000000002	0.2681506	-0.22146365	9.647436	38.68977	-9.33586	80.4	0.055535465	-0.109844625	-0.15627384	0.0026933555	-0.01194441	0.6481483	0.76141566	
2.4903968127490037	0.0	0.0	0.0	0.0	1.3076923076923075	2.52	0.2741361	-0.45729253	9.568427	38.68977	-9.33586	80.4	0.05813101	-0.34882763	-0.2352438	0.0028411746	-0.011992665	0.64262193	0.7660844	
2.5003984063745017	0.0	0.0	0.0	0.0	1.0288461538461537	2.5300000000000002	0.28491	0.038307227	9.671378	38.68977	-9.33586	80.4	0.0650478	0.14337686	-0.13224411	0.0030259963	-0.012050978	0.6378873	0.7700294	
2.5103999999999997	0.0	0.0	0.0	0.0	1.3461538461538463	2.54	0.15442601	-0.6691794	9.593566	38.68977	-9.33586	80.4	-0.06933455	-0.56749207	-0.2100029	0.0031953151	-0.012118219	0.6321249	0.7747652	
2.5204015936254978	0.0	0.0	0.0	0.0	1.1826923076923075	2.5500000000000003	0.24181437	-0.521936	9.603143	38.68977	-9.33586	80.4	0.0140168965	-0.4231097	-0.20036316	0.0033631863	-0.012206505	0.6273286	0.7786517	
2.5304031872509958	0.0	0.0	0.0	0.0	1.0192307692307692	2.56	0.24181437	-0.521936	9.603143	38.68977	-9.33586	80.4	0.010557011	-0.42533204	-0.20030403	0.003485237	-0.012294863	0.6224423	0.78256136	
2.540404780876494	0.0	0.0	0.0	0.0	1.3076923076923075	2.57	0.009576807	-0.50757074	9.65821	38.68977	-9.33586	80.4	-0.2246822	-0.41275087	-0.14518356	0.0035885319	-0.012376529	0.6184355	0.78572994	
2.550406374501992	0.0	0.0	0.0	0.0	1.3365384615384617	2.58	0.23702596	-0.9552865	9.662998	38.68977	-9.33586	80.4	0.00027610362	-0.86134523	-0.14034367	0.0036338975	-0.012468778	0.6141119	0.7891121	
2.56040796812749	0.0	0.0	0.0	0.0	1.6538461538461537	2.59	0.18076223	-1.0223241	9.660604	38.68977	-9.33586	80.4	-0.057841524	-0.9279805	-0.14268875	0.003611968	-0.012574496	0.6100964	0.7922192	
2.570409561752988	0.0	0.0	0.0	0.0	0.9903846153846154	2.6	0.12330139	-1.1133038	9.660604	38.68977	-9.33586	80.4	-0.11656642	-1.0168419	-0.14263725	0.0035190873	-0.012704492	0.6071819	0.7944535	
2.580411155378486	0.0	0.0	0.0	0.0	1.3942307692307692	2.61	0.16400282	-1.1013328	9.610326	38.68977	-9.33586	80.4	-0.076676294	-1.0011829	-0.1928587	0.0033547627	-0.012862082	0.60470396	0.79633933	
2.590412749003984	0.0	0.0	0.0	0.0	1.5288461538461537	2.62	0.23822308	-0.90021986	9.617508	38.68977	-9.33586	80.4	-0.0027352273	-0.79484296	-0.18561554	0.003128414	-0.013040089	0.6033159	0.7973896	
2.600414342629482	0.0	0.0	0.0	0.0	1.2596153846153846	2.63	0.29568392	-0.6607997	9.600749	38.68977	-9.33586	80.4	0.054548144	-0.5501428	-0.20231152	0.0029111388	-0.013211545	0.6028293	0.79775554	
2.61041593625498	0.0	0.0	0.0	0.0	1.1153846153846154	2.64	0.22864626	-0.6835446	9.603143	38.68977	-9.33586	80.4	-0.012473568	-0.5675534	-0.19985676	0.002685032	-0.013376633	0.6023147	0.79814225	
2.620417529880478	0.0	0.0	0.0	0.0	1.0384615384615383	2.65	0.21787235	-0.59017074	9.617508	38.68977	-9.33586	80.4	-0.023207039	-0.46907553	-0.18543053	0.002478105	-0.013531404	0.6024348	0.79804957	
2.630419123505976	0.0	0.0	0.0	0.0	1.0961538461538463	2.66	0.19991584	-0.29328972	9.5971575	38.68977	-9.33586	80.4	-0.04099372	-0.16791241	-0.20573139	0.0022984985	-0.013656083	0.60242677	0.79805404	
2.640420717131474	0.0	0.0	0.0	0.0	1.0288461538461537	2.67	0.19033903	-0.2837129	9.598354	38.68977	-9.33586	80.4	-0.050438806	-0.15494618	-0.20449352	0.002161649	-0.013754057	0.60272396	0.79782826	
2.650422310756972	0.0	0.0	0.0	0.0	1.0384615384615383	2.68	0.19871874	-0.2825158	9.591172	38.68977	-9.33586	80.4	-0.041984558	-0.15101294	-0.21164131	0.0020481534	-0.013835118	0.6027301	0.79782254	
2.66042390438247	0.0	0.0	0.0	0.0	0.9807692307692308	2.69	0.20949265	-0.272939	9.5732155	38.68977	-9.33586	80.4	-0.031089842	-0.13928501	-0.2295723	0.0019601337	-0.013895879	0.60291415	0.79768264	
2.670425498007968	0.0	0.0	0.0	0.0	1.0	2.7	0.21068975	-0.2681506	9.594764	38.68977	-9.33586	80.4	-0.029782161	-0.13276215	-0.20800304	0.0018862486	-0.013944705	0.6029178	0.79767925	
2.680427091633466	0.0	0.0	0.0	0.0	1.375	2.71	0.20350714	-0.2645593	9.616311	38.68977	-9.33586	80.4	-0.036799103	-0.12791449	-0.18644238	0.0018300748	-0.013976597	0.60291904	0.7976778	
2.690428685258964	0.0	0.0	0.0	0.0	1.2307692307692308	2.72	0.20111294	-0.272939	9.624691	38.68977	-9.33586	80.4	-0.038968682	-0.13524996	-0.1780529	0.001782255	-0.013999371	0.603008	0.79761034	
2.700430278884462	0.0	0.0	0.0	0.0	1.1538461538461537	2.73	0.20590134	-0.25857377	9.657013	38.68977	-9.33586	80.4	-0.03384404	-0.12003331	-0.14572716	0.0017372196	-0.014011885	0.6030043	0.797613	
2.71043187250996	0.0	0.0	0.0	0.0	1.2596153846153846	2.74	0.20470424	-0.22984336	9.648633	38.68977	-9.33586	80.4	-0.034771353	-0.090510905	-0.15410233	0.0016973637	-0.014025187	0.60304147	0.79758483	
2.720433466135458	0.0	0.0	0.0	0.0	1.2211538461538463	2.75	0.22026655	-0.10414778	9.622296	38.68977	-9.33586	80.4	-0.019028842	0.035693258	-0.18043613	0.0016704685	-0.01403358	0.60300344	0.7976134	
2.730435059760956	0.0	0.0	0.0	0.0	1.0673076923076925	2.7600000000000002	0.260968	0.1604115	9.5971575	38.68977	-9.33586	80.4	0.02182141	0.30030018	-0.20557785	0.0016613196	-0.014029302	0.6028537	0.7977268	
2.740436653386454	0.0	0.0	0.0	0.0	1.1634615384615383	2.77	0.2801216	0.46088383	9.653421	38.68977	-9.33586	80.4	0.04078962	0.6002697	-0.14931679	0.0016799424	-0.01402229	0.60242516	0.7980505	
2.750438247011952	0.0	0.0	0.0	0.0	1.1153846153846154	2.7800000000000002	0.2908955	0.5410896	9.654618	38.68977	-9.33586	80.4	0.051134706	0.6777065	-0.14814854	0.0017876396	-0.013957002	0.60138637	0.79883456	
2.76043984063745	0.0	0.0	0.0	0.0	1.173076923076923	2.79	0.24301147	0.18195933	9.665392	38.68977	-9.33586	80.4	0.0025545806	0.3146487	-0.13741207	0.001940199	-0.013868955	0.59972745	0.8000818	
2.770441434262948	0.0	0.0	0.0	0.0	1.1346153846153846	2.8000000000000003	0.108936176	-0.6500258	9.730036	38.68977	-9.33586	80.4	-0.13195369	-0.51929045	-0.07278347	0.0019990215	-0.013831832	0.5977505	0.80156034	
2.7804430278884458	0.0	0.0	0.0	0.0	1.1442307692307692	2.81	0.08379706	-0.8678981	9.54209	38.68977	-9.33586	80.4	-0.15617955	-0.7368949	-0.2607479	0.0019330042	-0.0138065	0.5961686	0.8027383	
2.790444621513944	0.0	0.0	0.0	0.0	1.1538461538461537	2.82	0.23463176	-0.24420857	9.689334	38.68977	-9.33586	80.4	-0.00491634	-0.11241144	-0.11350441	0.0018682551	-0.0138157075	0.59505105	0.80356705	
2.800446215139442	0.0	0.0	0.0	0.0	1.1538461538461537	2.83	0.16160862	-0.16998832	9.568427	38.68977	-9.33586	80.4	-0.07699545	-0.037454426	-0.23442459	0.0017934858	-0.013801455	0.5941233	0.80425364	
2.81044780876494	0.0	0.0	0.0	0.0	1.1442307692307692	2.84	0.10295067	0.010773907	9.56723	38.68977	-9.33586	80.4	-0.13509175	0.14337686	-0.23563385	0.0017561207	-0.013782752	0.5931007	0.8050083	
2.820449402390438	0.0	0.0	0.0	0.0	1.1538461538461537	2.85	-0.02873042	-0.07062895	9.677363	38.68977	-9.33586	80.4	-0.2657292	0.061741315	-0.12552929	0.0017181637	-0.013734864	0.5921663	0.80569685	
2.830450996015936	0.0	0.0	0.0	0.0	1.1538461538461537	2.86	-0.038307227	-0.35434186	9.698911	38.68977	-9.33586	80.4	-0.27327454	-0.22163072	-0.10402584	0.0016254677	-0.013663748	0.5911439	0.8064488	
2.840452589641434	0.0	0.0	0.0	0.0	1.1538461538461537	2.87	0.005985504	-0.5422867	9.522937	38.68977	-9.33586	80.4	-0.22518916	-0.40777332	-0.28006554	0.001427707	-0.013563064	0.5905912	0.80685574	
2.850454183266932	0.0	0.0	0.0	0.0	1.1538461538461537	2.88	-0.33877954	0.107739076	9.82341	38.68977	-9.33586	80.4	-0.5613786	0.24328072	0.020223618	0.0011256118	-0.013241248	0.5905022	0.80692667	
2.86045577689243	0.0	0.0	0.0	0.0	1.0865384615384617	2.89	-0.33877954	0.107739076	9.82341	38.68977	-9.33586	80.4	-0.5613786	0.24328072	0.020223618	0.0011256118	-0.013241248	0.5905022	0.80692667	
2.870457370517928	0.0	0.0	0.0	0.0	1.3461538461538463	2.9	-0.007182605	0.40581718	9.270349	38.68977	-9.33586	80.4	-0.22317183	0.5406971	-0.5329952	0.00095965347	-0.01294885	0.5908695	0.8066628	
2.880458964143426	0.0	0.0	0.0	0.0	1.0288461538461537	2.91	0.23822308	-0.62728083	9.928755	38.68977	-9.33586	80.4	0.025596142	-0.49130064	0.12535381	0.000819861	-0.012843244	0.5912959	0.806352	
2.890460557768924	0.0	0.0	0.0	0.0	1.3557692307692308	2.92	0.8726865	-1.0522517	9.459491	38.68977	-9.33586	80.4	0.6664894	-0.9119402	-0.34398746	0.00045266002	-0.012709257	0.5916	0.8061314	
2.900462151394422	0.0	0.0	0.0	0.0	1.3173076923076925	2.93	1.1049241	-0.6404489	9.792285	38.68977	-9.33586	80.4	0.89938396	-0.49371493	-0.011113167	0.00017275756	-0.012875983	0.591845	0.8059489	
2.91046374501992	0.0	0.0	0.0	0.0	0.9519230769230769	2.94	0.80924016	-0.21547815	9.465476	38.68977	-9.33586	80.4	0.60321057	-0.06291312	-0.3378229	-5.4159507e-05	-0.013072107	0.5917177	0.8060393	
2.920465338645418	0.0	0.0	0.0	0.0	1.0096153846153846	2.95	0.39025488	-0.011971008	9.592369	38.68977	-9.33586	80.4	0.1827626	0.1442062	-0.21084213	-0.00016071733	-0.013241228	0.59158117	0.8061367	
2.930466932270916	0.0	0.0	0.0	0.0	1.4711538461538463	2.96	0.39264908	0.06344634	9.665392	38.68977	-9.33586	80.4	0.18354307	0.22144166	-0.1377554	-0.00019203276	-0.013362361	0.59126306	0.80636805	
2.940468525896414	0.0	0.0	0.0	0.0	1.0673076923076925	2.97	0.38067806	-0.02873042	9.655815	38.68977	-9.33586	80.4	0.17007145	0.13018595	-0.14728546	-0.00018717916	-0.013451818	0.5911114	0.8064777	
2.950470119521912	0.0	0.0	0.0	0.0	0.8846153846153846	2.98	0.23223756	-0.2669535	9.66659	38.68977	-9.33586	80.4	0.021432877	-0.10686596	-0.136487	-0.00023487688	-0.013495183	0.5907822	0.8067182	
2.96047171314741	0.0	0.0	0.0	0.0	1.0384615384615383	2.99	-0.05746084	-0.4165911	9.66659	38.68977	-9.33586	80.4	-0.26560783	-0.2548498	-0.13651752	-0.00038704224	-0.013435545	0.59053856	0.80689746	
2.970473306772908	0.0	0.0	0.0	0.0	1.2307692307692308	3.0	-0.05746084	-0.4165911	9.66659	38.68977	-9.33586	80.4	-0.26560783	-0.2548498	-0.13651752	-0.00038704224	-0.013435545	0.59053856	0.80689746	
2.980474900398406	0.0	0.0	0.0	0.0	1.173076923076923	3.0100000000000002	-0.16879122	-0.49440265	9.640253	38.68977	-9.33586	80.4	-0.36410987	-0.33024538	-0.16307735	-0.0008836349	-0.012979635	0.5898662	0.8073962	
2.990476494023904	0.0	0.0	0.0	0.0	1.076923076923077	3.02	-0.089782566	-0.39384618	9.64145	38.68977	-9.33586	80.4	-0.27780008	-0.22664721	-0.16197205	-0.0012321923	-0.012770132	0.5896332	0.8075692	
3.000478087649402	0.0	0.0	0.0	0.0	1.1153846153846154	3.0300000000000002	0.075417355	-0.56982	9.624691	38.68977	-9.33586	80.4	-0.09807995	-0.39783755	-0.17891598	-0.0018703834	-0.012315241	0.58933306	0.80779415	
3.0104796812749	0.0	0.0	0.0	0.0	1.1538461538461537	3.04	0.075417355	-0.56982	9.624691	38.68977	-9.33586	80.4	-0.09807995	-0.39783755	-0.17891598	-0.0018703834	-0.012315241	0.58933306	0.80779415	
3.020481274900398	0.0	0.0	0.0	0.0	1.1346153846153846	3.0500000000000003	0.17357962	-0.41060558	9.630676	38.68977	-9.33586	80.4	0.0069758743	-0.23381993	-0.17296505	-0.0022779487	-0.012175139	0.58916485	0.80791795	
3.030482868525896	0.0	0.0	0.0	0.0	1.1442307692307692	3.06	0.15562311	-0.30286652	9.514558	38.68977	-9.33586	80.4	-0.0052797347	-0.12184903	-0.2891016	-0.0026251562	-0.012067059	0.5890588	0.8079958	
3.0404844621513942	0.0	0.0	0.0	0.0	1.0865384615384617	3.0700000000000003	0.17238252	-0.30645782	9.5013895	38.68977	-9.33586	80.4	0.016774476	-0.121710375	-0.3022852	-0.0029413956	-0.011960073	0.58882195	0.808169	
3.0504860557768922	0.0	0.0	0.0	0.0	1.1442307692307692	3.08	0.15442601	-0.2813187	9.540894	38.68977	-9.33586	80.4	0.0029209554	-0.09347728	-0.26278687	-0.0031936527	-0.011883465	0.5887163	0.8082461	
3.0604876494023903	0.0	0.0	0.0	0.0	1.1923076923076925	3.09	0.14724341	-0.30526072	9.668983	38.68977	-9.33586	80.4	-0.0020254105	-0.11468755	-0.13467884	-0.0033772718	-0.011872205	0.58845097	0.8084387	
3.0704892430278883	0.0	0.0	0.0	0.0	1.1442307692307692	3.1	0.11133038	-0.35673606	9.68694	38.68977	-9.33586	80.4	-0.03595256	-0.16324127	-0.11669445	-0.0035588564	-0.011877551	0.5883452	0.80851483	
3.0804908366533863	0.0	0.0	0.0	0.0	1.125	3.11	0.076614454	-0.39983168	9.664195	38.68977	-9.33586	80.4	-0.06884004	-0.20300847	-0.13940144	-0.0037550868	-0.011900731	0.5880632	0.8087187	
3.0904924302788843	0.0	0.0	0.0	0.0	1.173076923076923	3.12	0.089782566	-0.34117374	9.595961	38.68977	-9.33586	80.4	-0.05400662	-0.14101225	-0.20759201	-0.003942903	-0.011932107	0.5880487	0.80872786	
3.1004940239043823	0.0	0.0	0.0	0.0	1.125	3.13	0.11252748	-0.2873042	9.5253315	38.68977	-9.33586	80.4	-0.029568337	-0.0841887	-0.27818584	-0.004147488	-0.011939804	0.58588105	0.8102985	
3.1104956175298804	0.0	0.0	0.0	0.0	1.1442307692307692	3.14	0.1400608	-0.25378537	9.510966	38.68977	-9.33586	80.4	-0.0004937649	-0.048283488	-0.29252243	-0.0042916257	-0.0119476095	0.5859158	0.8102725	
3.1204972111553784	0.0	0.0	0.0	0.0	1.1538461538461537	3.15	0.142455	-0.2669535	9.55885	38.68977	-9.33586	80.4	0.0031451434	-0.059528828	-0.24461555	-0.0044077383	-0.01195383	0.58595127	0.81024617	
3.1304988047808764	0.0	0.0	0.0	0.0	1.1442307692307692	3.16	0.12689269	-0.2837129	9.645041	38.68977	-9.33586	80.4	-0.011332288	-0.074654415	-0.1584053	-0.004510362	-0.011956812	0.5857679	0.8103781	
3.1405003984063744	0.0	0.0	0.0	0.0	1.173076923076923	3.17	0.11851298	-0.3184288	9.702502	38.68977	-9.33586	80.4	-0.01878319	-0.10774967	-0.10092354	-0.004637003	-0.011954513	0.5836028	0.81193805	
3.1505019920318724	0.0	0.0	0.0	0.0	1.1826923076923075	3.18	0.093373865	-0.30885202	9.703699	38.68977	-9.33586	80.4	-0.04274279	-0.0965468	-0.0997076	-0.004739825	-0.01195392	0.58357596	0.81195676	
3.1605035856573704	0.0	0.0	0.0	0.0	1.1538461538461537	3.19	0.095768064	-0.31004912	9.636662	38.68977	-9.33586	80.4	-0.03882076	-0.095922366	-0.16672707	-0.004890197	-0.011932832	0.5815689	0.813395	
3.1705051792828685	0.0	0.0	0.0	0.0	1.1057692307692308	3.2	0.14724341	-0.33279404	9.583989	38.68977	-9.33586	80.4	0.014139131	-0.1169209	-0.21938038	-0.005008025	-0.0119224815	0.58147573	0.81346107	
3.1805067729083665	0.0	0.0	0.0	0.0	1.1634615384615383	3.21	0.2813187	-0.33638534	9.581595	38.68977	-9.33586	80.4	0.14907613	-0.118754685	-0.22174835	-0.0051341024	-0.011927009	0.5795911	0.81480396	
3.1905083665338645	0.0	0.0	0.0	0.0	1.1634615384615383	3.22	0.29688102	-0.2669535	9.593566	38.68977	-9.33586	80.4	0.16474013	-0.047936425	-0.20974731	-0.005198331	-0.0119622	0.5793445	0.8149784	
3.200509960159362	0.0	0.0	0.0	0.0	1.1442307692307692	3.23	0.24301147	-0.31603462	9.615114	38.68977	-9.33586	80.4	0.11048876	-0.095775336	-0.18816662	-0.005262187	-0.012004501	0.57774776	0.8161101	
3.21051155378486	0.0	0.0	0.0	0.0	1.1538461538461537	3.24	0.10654198	-0.49799395	9.647436	38.68977	-9.33586	80.4	-0.026403919	-0.27596575	-0.15579891	-0.005329561	-0.012071499	0.57732666	0.81640667	
3.220513147410358	0.0	0.0	0.0	0.0	1.2692307692307692	3.25	0.39743748	-0.30166942	9.585187	38.68977	-9.33586	80.4	0.26339084	-0.078133196	-0.2179985	-0.005368819	-0.012157824	0.5767299	0.81682676	
3.230514741035856	0.0	0.0	0.0	0.0	1.1442307692307692	3.2600000000000002	0.5662287	-0.34117374	9.640253	38.68977	-9.33586	80.4	0.4297387	-0.1160772	-0.16286278	-0.0053715273	-0.012301337	0.57609373	0.8172734	
3.240516334661354	0.0	0.0	0.0	0.0	1.1346153846153846	3.27	0.7410054	-0.36511576	9.712079	38.68977	-9.33586	80.4	0.5996357	-0.13803755	-0.090922356	-0.0053253034	-0.012556812	0.5751464	0.8179368	
3.250517928286852	0.0	0.0	0.0	0.0	1.1153846153846154	3.2800000000000002	0.90859956	-0.45729253	9.540894	38.68977	-9.33586	80.4	0.7584893	-0.22745472	-0.2619133	-0.005203475	-0.01299464	0.5739223	0.81879014	
3.26051952191235	0.0	0.0	0.0	0.0	1.0673076923076925	3.29	0.16160862	-1.2509704	9.579201	38.68977	-9.33586	80.4	0.0008112639	-1.0140026	-0.22326756	-0.0052143293	-0.013639807	0.57236314	0.81987035	
3.270521115537848	0.0	0.0	0.0	0.0	1.1346153846153846	3.3000000000000003	0.6907272	-0.6655881	9.249998	38.68977	-9.33586	80.4	0.51666546	-0.42000872	-0.5520315	-0.0052167852	-0.014435289	0.57067996	0.8210291	
3.280522709163346	0.0	0.0	0.0	0.0	1.1153846153846154	3.31	-0.09935937	-1.4185646	9.7240505	38.68977	-9.33586	80.4	-0.2854355	-1.1572587	-0.07735157	-0.00555716	-0.015384947	0.5689909	0.8221812	
3.2905243027888442	0.0	0.0	0.0	0.0	1.2115384615384617	3.3200000000000003	-0.079008654	-0.94570965	9.61272	38.68977	-9.33586	80.4	-0.27387166	-0.66809535	-0.18806362	-0.0060168756	-0.016215505	0.56742126	0.82324606	
3.3005258964143422	0.0	0.0	0.0	0.0	1.1634615384615383	3.33	0.25019407	-0.29448682	9.7958765	38.68977	-9.33586	80.4	0.048131064	-0.00554052	-0.004433632	-0.0063084736	-0.016836941	0.566236	0.824047	
3.3105274900398403	0.0	0.0	0.0	0.0	1.1442307692307692	3.34	-0.05626374	-0.19991584	9.494206	38.68977	-9.33586	80.4	-0.26340142	0.09689407	-0.3057623	-0.006523206	-0.017265886	0.56476384	0.8250462	
3.3205290836653383	0.0	0.0	0.0	0.0	1.1634615384615383	3.35	-0.51116204	-0.23463176	9.787497	38.68977	-9.33586	80.4	-0.7215864	0.06945084	-0.012179375	-0.0067583453	-0.01760472	0.56364745	0.82580024	
3.3305306772908363	0.0	0.0	0.0	0.0	1.1442307692307692	3.36	0.038307227	-0.48003745	9.630676	38.68977	-9.33586	80.4	-0.17690602	-0.1739949	-0.16883373	-0.006725193	-0.017854594	0.5626301	0.82648855	
3.3405322709163343	0.0	0.0	0.0	0.0	1.1538461538461537	3.37	0.11611878	-0.7218518	9.5492735	38.68977	-9.33586	80.4	-0.10184478	-0.41329214	-0.25009727	-0.006768067	-0.01803696	0.56191015	0.82697386	
3.3505338645418323	0.0	0.0	0.0	0.0	1.1826923076923075	3.38	-0.017956512	0.12808979	9.223662	38.68977	-9.33586	80.4	-0.24005564	0.4377551	-0.5755806	-0.006718692	-0.01823487	0.56088805	0.8276636	
3.3605354581673303	0.0	0.0	0.0	0.0	1.1442307692307692	3.39	0.15083471	-0.31603462	10.093954	38.68977	-9.33586	80.4	-0.07817359	-0.0027567446	0.29498482	-0.0066941245	-0.018622648	0.5599711	0.82827586	
3.3705370517928284	0.0	0.0	0.0	0.0	1.1538461538461537	3.4	-0.2705448	-0.5267244	9.313444	38.68977	-9.33586	80.4	-0.5007726	-0.2128984	-0.48547935	-0.0067112152	-0.018679539	0.558695	0.82913566	
3.3805386454183264	0.0	0.0	0.0	0.0	1.1538461538461537	3.41	-0.06823475	-0.50397944	9.7479925	38.68977	-9.33586	80.4	-0.30236432	-0.18761337	-0.050756454	-0.0067264624	-0.018910276	0.55786	0.8296923	
3.3905402390438244	0.0	0.0	0.0	0.0	1.1538461538461537	3.42	0.044292733	-0.1376666	9.655815	38.68977	-9.33586	80.4	-0.19243543	0.18002705	-0.14282894	-0.0067311646	-0.019050157	0.55688083	0.8303466	
3.4005418326693224	0.0	0.0	0.0	0.0	1.173076923076923	3.43	0.44771573	-0.31244332	9.719262	38.68977	-9.33586	80.4	0.2082429	0.005322069	-0.07931328	-0.0066730715	-0.019162627	0.55615103	0.8308335	
3.4105434262948204	0.0	0.0	0.0	0.0	1.1153846153846154	3.44	0.40222588	-0.45250413	9.054871	38.68977	-9.33586	80.4	0.16110902	-0.13493025	-0.74367046	-0.006646831	-0.019217046	0.55491775	0.83165663	
3.4205450199203185	0.0	0.0	0.0	0.0	1.1442307692307692	3.45	0.1388637	-0.5781997	10.381259	38.68977	-9.33586	80.4	-0.10861187	-0.25701895	0.5829954	-0.006642978	-0.019581197	0.5539335	0.83230406	
3.4305466135458165	0.0	0.0	0.0	0.0	1.1538461538461537	3.46	-0.22385786	-0.38307226	9.215282	38.68977	-9.33586	80.4	-0.46869466	-0.06391457	-0.5831146	-0.0066594863	-0.019402405	0.5527401	0.83310115	
3.4405482071713145	0.0	0.0	0.0	0.0	1.1634615384615383	3.47	-0.15682021	-0.23343466	9.633071	38.68977	-9.33586	80.4	-0.4031335	0.08613689	-0.16527557	-0.0066601173	-0.019468421	0.5516838	0.8337996	
3.4505498007968125	0.0	0.0	0.0	0.0	1.1442307692307692	3.48	0.023942016	-0.2633622	9.860519	38.68977	-9.33586	80.4	-0.22497785	0.057716936	0.062288284	-0.0066638966	-0.01961735	0.55112994	0.83416224	
3.4605513944223105	0.0	0.0	0.0	0.0	1.1634615384615383	3.49	0.10654198	-0.12928689	9.689334	38.68977	-9.33586	80.4	-0.14229141	0.19123903	-0.10891819	-0.0066639413	-0.019590925	0.5502292	0.83475727	
3.4705529880478085	0.0	0.0	0.0	0.0	1.1538461538461537	3.5	0.0011971008	-0.2705448	9.793482	38.68977	-9.33586	80.4	-0.24653731	0.04989195	-0.004799843	-0.006704375	-0.019537024	0.5496574	0.8351348	
3.4805545816733066	0.0	0.0	0.0	0.0	1.1538461538461537	3.5100000000000002	-0.5482722	-0.4381389	9.714474	38.68977	-9.33586	80.4	-0.79333496	-0.11842045	-0.0838995	-0.0067621986	-0.01939832	0.549076	0.8355199	
3.4905561752988046	0.0	0.0	0.0	0.0	1.1442307692307692	3.52	0.059855044	-0.35434186	9.677363	38.68977	-9.33586	80.4	-0.18223143	-0.035278738	-0.121105194	-0.0068364176	-0.019246409	0.5482608	0.83605796	
3.5005577689243026	0.0	0.0	0.0	0.0	1.1634615384615383	3.5300000000000002	0.5291186	-0.14724341	9.605537	38.68977	-9.33586	80.4	0.2884019	0.17174792	-0.19296741	-0.0068783113	-0.019183584	0.5479711	0.836249	
3.5105593625498006	0.0	0.0	0.0	0.0	1.1538461538461537	3.54	0.6344634	-0.038307227	9.630676	38.68977	-9.33586	80.4	0.3956577	0.28011766	-0.16789246	-0.0069237277	-0.019080346	0.54726297	0.8367146	
3.5205609561752986	0.0	0.0	0.0	0.0	1.1634615384615383	3.5500000000000003	0.11372458	-0.24061728	9.427169	38.68977	-9.33586	80.4	-0.12286142	0.07647577	-0.3714981	-0.006940018	-0.018944293	0.5467702	0.83703965	
3.5305625498007966	0.0	0.0	0.0	0.0	1.1346153846153846	3.56	0.04309563	-0.46926352	9.812635	38.68977	-9.33586	80.4	-0.1913801	-0.1534605	0.013875961	-0.00696647	-0.018809784	0.5457615	0.83770055	
3.5405641434262947	0.0	0.0	0.0	0.0	1.2692307692307692	3.5700000000000003	-0.08738836	-0.5770026	9.539697	38.68977	-9.33586	80.4	-0.3198464	-0.26177102	-0.25912952	-0.0070087966	-0.018703671	0.5452882	0.83801067	
3.5505657370517927	0.0	0.0	0.0	0.0	1.1442307692307692	3.58	-0.39025488	-0.4417302	9.4535055	38.68977	-9.33586	80.4	-0.621305	-0.12768787	-0.34539127	-0.0070121507	-0.018604714	0.5446117	0.83845276	
3.5605673306772907	0.0	0.0	0.0	0.0	1.1538461538461537	3.59	-0.260968	-0.19033903	9.566033	38.68977	-9.33586	80.4	-0.49068454	0.12400347	-0.23288536	-0.007061626	-0.018556168	0.5446301	0.8384413	
3.5705689243027887	0.0	0.0	0.0	0.0	1.125	3.6	-0.16160862	-0.18555063	9.5013895	38.68977	-9.33586	80.4	-0.38982865	0.12924331	-0.29754925	-0.0071253763	-0.018503593	0.5445001	0.83852637	
3.5805705179282867	0.0	0.0	0.0	0.0	1.1538461538461537	3.61	0.038307227	-0.02633622	9.595961	38.68977	-9.33586	80.4	-0.18866435	0.2883182	-0.20301151	-0.007144292	-0.018450096	0.5449451	0.8382383	
3.5905721115537848	0.0	0.0	0.0	0.0	1.1538461538461537	3.62	0.17717093	0.5770026	9.667787	38.68977	-9.33586	80.4	-0.04376103	0.8866011	-0.13148499	-0.0070914524	-0.018052971	0.54515797	0.83810896	
3.6005737051792828	0.0	0.0	0.0	0.0	1.1538461538461537	3.63	0.17836803	0.89782566	9.5492735	38.68977	-9.33586	80.4	-0.036367938	1.1961908	-0.2504835	-0.0067716744	-0.017480109	0.5457295	0.8377517	
3.610575298804781	0.0	0.0	0.0	0.0	1.1538461538461537	3.64	0.2633622	0.6560113	9.76116	38.68977	-9.33586	80.4	0.052154988	0.93914306	-0.039126396	-0.00621346	-0.016907092	0.54600686	0.8375871	
3.620576892430279	0.0	0.0	0.0	0.0	1.1442307692307692	3.65	0.39384618	0.6955156	9.690532	38.68977	-9.33586	80.4	0.18545723	0.9589999	-0.11036301	-0.0054429425	-0.01624253	0.5465101	0.83727735	
3.6305784860557764	0.0	0.0	0.0	0.0	1.1538461538461537	3.66	0.29927522	0.6488287	9.763555	38.68977	-9.33586	80.4	0.09251413	0.88953614	-0.037961006	-0.0045149596	-0.0155381225	0.54655504	0.8372669	
3.6405800796812744	0.0	0.0	0.0	0.0	1.125	3.67	-0.025139118	0.35075054	9.690532	38.68977	-9.33586	80.4	-0.22851181	0.5698286	-0.111561775	-0.0036840043	-0.014790768	0.54666364	0.83721364	
3.6505816733067724	0.0	0.0	0.0	0.0	1.173076923076923	3.68	-0.031124622	0.08259996	9.631873	38.68977	-9.33586	80.4	-0.2300518	0.28354767	-0.17070007	-0.0030348897	-0.01409511	0.5466061	0.83726573	
3.6605832669322704	0.0	0.0	0.0	0.0	1.1634615384615383	3.69	0.15203181	-0.029927522	9.578004	38.68977	-9.33586	80.4	-0.043577164	0.15694551	-0.22491455	-0.0025236392	-0.013561496	0.54678184	0.8371615	
3.6705848605577684	0.0	0.0	0.0	0.0	1.1442307692307692	3.7	0.16879122	-0.21547815	9.616311	38.68977	-9.33586	80.4	-0.025388896	-0.03814313	-0.1868124	-0.0021554262	-0.013234612	0.5468386	0.8371307	
3.6805864541832665	0.0	0.0	0.0	0.0	1.3173076923076925	3.71	0.19991584	-0.2621651	9.618706	38.68977	-9.33586	80.4	0.005769089	-0.09078647	-0.18452454	-0.0018994838	-0.01306743	0.5470061	0.8370245	
3.6905880478087645	0.0	0.0	0.0	0.0	1.0192307692307692	3.72	0.20111294	-0.25378537	9.635465	38.68977	-9.33586	80.4	0.006136909	-0.08601406	-0.1678114	-0.0017211532	-0.013002348	0.5470854	0.8369741	
3.7005896414342625	0.0	0.0	0.0	0.0	1.2692307692307692	3.73	0.18195933	-0.25857377	9.624691	38.68977	-9.33586	80.4	-0.013703495	-0.09301202	-0.1786089	-0.0016058697	-0.012970235	0.54720294	0.83689797	
3.7105912350597605	0.0	0.0	0.0	0.0	1.1057692307692308	3.74	0.16400282	-0.29688102	9.55885	38.68977	-9.33586	80.4	-0.031672135	-0.13264062	-0.2444725	-0.0015484708	-0.0129339555	0.54724646	0.8368702	
3.7205928286852585	0.0	0.0	0.0	0.0	1.2307692307692308	3.75	0.15203181	-0.24779987	9.562442	38.68977	-9.33586	80.4	-0.043448642	-0.08448902	-0.24089909	-0.001512791	-0.012899876	0.54734	0.83680964	
3.7305944223107566	0.0	0.0	0.0	0.0	1.2596153846153846	3.7600000000000002	0.06703765	-0.10055647	9.528923	38.68977	-9.33586	80.4	-0.12768519	0.06138172	-0.27445602	-0.0014744942	-0.0128293205	0.5473971	0.83677346	
3.7405960159362546	0.0	0.0	0.0	0.0	1.1634615384615383	3.77	-0.11372458	-0.108936176	9.53012	38.68977	-9.33586	80.4	-0.30712798	0.051332206	-0.27331352	-0.0014383028	-0.01272659	0.5475141	0.83669853	
3.7505976095617526	0.0	0.0	0.0	0.0	1.298076923076923	3.7800000000000002	-0.37828386	-0.17357962	9.574412	38.68977	-9.33586	80.4	-0.5690912	-0.0148495585	-0.22909641	-0.0014410701	-0.01257332	0.5477863	0.8365226	
3.7605992031872506	0.0	0.0	0.0	0.0	1.2596153846153846	3.79	-0.50278234	-0.23343466	9.601946	38.68977	-9.33586	80.4	-0.68845224	-0.07580969	-0.20167923	-0.0015298167	-0.012324212	0.54830486	0.83618635	
3.7706007968127486	0.0	0.0	0.0	0.0	1.2884615384615383	3.8000000000000003	-0.3854665	-0.24181437	9.633071	38.68977	-9.33586	80.4	-0.563973	-0.084428236	-0.17069149	-0.0017075251	-0.012013811	0.549169	0.83562326	
3.7806023904382466	0.0	0.0	0.0	0.0	1.0865384615384617	3.81	-0.29688102	-0.29688102	9.692925	38.68977	-9.33586	80.4	-0.4670327	-0.13886839	-0.110975266	-0.001953567	-0.011677759	0.55021644	0.8349381	
3.7906039840637447	0.0	0.0	0.0	0.0	1.0288461538461537	3.8200000000000003	-0.11372458	-0.39264908	9.655815	38.68977	-9.33586	80.4	-0.27515268	-0.23306091	-0.14820766	-0.0022468413	-0.011354201	0.5515823	0.8340403	
3.8006055776892427	0.0	0.0	0.0	0.0	1.0192307692307692	3.83	0.47405192	-0.17717093	9.803059	38.68977	-9.33586	80.4	0.31817162	-0.016347677	-0.001033783	-0.0024374425	-0.011156912	0.5529257	0.8331523	
3.8106071713147407	0.0	0.0	0.0	0.0	1.0	3.84	1.0402806	-0.12449849	9.561244	38.68977	-9.33586	80.4	0.88685423	0.036881506	-0.24287796	-0.0025118035	-0.011072556	0.5543159	0.8322289	
3.8206087649402387	0.0	0.0	0.0	0.0	0.9711538461538463	3.85	0.46686932	-0.37229836	9.676167	38.68977	-9.33586	80.4	0.31478387	-0.21093188	-0.12797642	-0.0025397667	-0.011017425	0.5550235	0.8317579	
3.8306103585657367	0.0	0.0	0.0	0.0	1.1826923076923075	3.86	0.027533319	-0.23104046	9.629479	38.68977	-9.33586	80.4	-0.12238239	-0.06977977	-0.17469788	-0.0025871007	-0.010924669	0.5557536	0.8312714	
3.8406119521912347	0.0	0.0	0.0	0.0	1.3076923076923075	3.87	0.15322891	-0.32441434	9.662998	38.68977	-9.33586	80.4	0.005115241	-0.16219828	-0.14119148	-0.0026727007	-0.010876822	0.5562095	0.83096665	
3.8506135458167328	0.0	0.0	0.0	0.0	1.201923076923077	3.88	0.4177882	-0.34237084	9.674969	38.68977	-9.33586	80.4	0.27079928	-0.17854214	-0.12921143	-0.0027637647	-0.0108772395	0.55690974	0.83049726	
3.860615139442231	0.0	0.0	0.0	0.0	1.2211538461538463	3.89	0.38187516	-0.3172317	9.688137	38.68977	-9.33586	80.4	0.23550253	-0.15150997	-0.1160202	-0.0028578965	-0.010905832	0.5571789	0.830316	
3.870616733067729	0.0	0.0	0.0	0.0	1.1442307692307692	3.9	0.34835634	-0.2873042	9.591172	38.68977	-9.33586	80.4	0.20227982	-0.119497806	-0.21295357	-0.0029490672	-0.010954018	0.55759597	0.8300349	
3.880618326693227	0.0	0.0	0.0	0.0	1.0961538461538463	3.91	0.30286652	-0.30406362	9.562442	38.68977	-9.33586	80.4	0.15650159	-0.1339585	-0.24164009	-0.0030384448	-0.011031519	0.5575743	0.83004826	
3.890619920318725	0.0	0.0	0.0	0.0	1.0865384615384617	3.92	0.3196259	-0.3196259	9.546879	38.68977	-9.33586	80.4	0.17218004	-0.14716335	-0.25714588	-0.0031052344	-0.011144947	0.557742	0.8299337	
3.900621513944223	0.0	0.0	0.0	0.0	1.0288461538461537	3.93	0.20470424	-0.29448682	9.563639	38.68977	-9.33586	80.4	0.056410402	-0.11979711	-0.24033356	-0.0031786317	-0.01124327	0.55750084	0.8300941	
3.910623107569721	0.0	0.0	0.0	0.0	1.1346153846153846	3.94	0.12330139	-0.2896984	9.579201	38.68977	-9.33586	80.4	-0.02595371	-0.11309363	-0.22472286	-0.0032322283	-0.011338456	0.5575106	0.83008605	
3.920624701195219	0.0	0.0	0.0	0.0	1.1826923076923075	3.95	0.12330139	-0.2896984	9.589975	38.68977	-9.33586	80.4	-0.026592508	-0.11127466	-0.21390629	-0.003295005	-0.011416082	0.5572236	0.83027744	
3.930626294820717	0.0	0.0	0.0	0.0	1.1153846153846154	3.96	0.1376666	-0.29209262	9.572019	38.68977	-9.33586	80.4	-0.012613967	-0.11196098	-0.23182487	-0.0033564975	-0.011480944	0.557211	0.83028483	
3.940627888446215	0.0	0.0	0.0	0.0	1.1826923076923075	3.97	0.130484	-0.272939	9.580399	38.68977	-9.33586	80.4	-0.019955575	-0.09139128	-0.22341633	-0.0034160258	-0.011526709	0.55691606	0.8304818	
3.950629482071713	0.0	0.0	0.0	0.0	1.1634615384615383	3.98	0.12808979	-0.2873042	9.607931	38.68977	-9.33586	80.4	-0.021707654	-0.10470222	-0.19587517	-0.0034793718	-0.011529321	0.55688256	0.8305039	
3.960631075697211	0.0	0.0	0.0	0.0	1.1346153846153846	3.99	0.1316811	-0.2861071	9.665392	38.68977	-9.33586	80.4	-0.017184168	-0.10261433	-0.13841152	-0.003547705	-0.011513866	0.5565841	0.83070385	
3.970632669322709	0.0	0.0	0.0	0.0	1.1538461538461537	4.0	0.12928689	-0.2705448	9.617508	38.68977	-9.33586	80.4	-0.018438637	-0.0862035	-0.18629646	-0.0036164448	-0.011489525	0.5565518	0.8307257	
3.980634262948207	0.0	0.0	0.0	0.0	1.1346153846153846	4.01	0.1388637	-0.23463176	9.633071	38.68977	-9.33586	80.4	-0.0074088275	-0.04949762	-0.17074108	-0.0036951373	-0.011449227	0.556271	0.83091384	
3.990635856573705	0.0	0.0	0.0	0.0	1.1634615384615383	4.0200000000000005	0.1328782	-0.23223756	9.619903	38.68977	-9.33586	80.4	-0.011997834	-0.046406254	-0.18391705	-0.0037642838	-0.01140983	0.55627155	0.83091384	
4.000637450199203	0.0	0.0	0.0	0.0	1.1634615384615383	4.03	0.11851298	-0.22505496	9.66659	38.68977	-9.33586	80.4	-0.025183178	-0.03858459	-0.13723469	-0.0038282785	-0.011376806	0.55601966	0.8310824	
4.010639043824701	0.0	0.0	0.0	0.0	1.1153846153846154	4.04	0.094570965	-0.23104046	9.66659	38.68977	-9.33586	80.4	-0.048151284	-0.044044852	-0.1372385	-0.003877877	-0.011350516	0.5560398	0.8310692	
4.020640637450199	0.0	0.0	0.0	0.0	1.1826923076923075	4.05	0.095768064	-0.24779987	9.668983	38.68977	-9.33586	80.4	-0.046253398	-0.060046613	-0.13484097	-0.00393312	-0.0113411695	0.55580056	0.83122903	
4.030642231075697	0.0	0.0	0.0	0.0	1.1538461538461537	4.0600000000000005	0.090979666	-0.24420857	9.65821	38.68977	-9.33586	80.4	-0.050544307	-0.055621892	-0.14560509	-0.0039822184	-0.011343821	0.5558245	0.83121276	
4.040643824701195	0.0	0.0	0.0	0.0	1.1442307692307692	4.07	0.08619126	-0.23463176	9.606734	38.68977	-9.33586	80.4	-0.054824717	-0.04503748	-0.19706917	-0.004042583	-0.011349692	0.55558574	0.83137196	
4.050645418326693	0.0	0.0	0.0	0.0	1.1634615384615383	4.08	0.090979666	-0.22744916	9.570822	38.68977	-9.33586	80.4	-0.049528286	-0.036857784	-0.23296928	-0.004099066	-0.011356474	0.55559903	0.8313627	
4.060647011952191	0.0	0.0	0.0	0.0	1.1538461538461537	4.09	0.1328782	-0.25498247	9.600749	38.68977	-9.33586	80.4	-0.0071677417	-0.063570395	-0.2030325	-0.0041797548	-0.0113481125	0.5531945	0.8329643	
4.070648605577689	0.0	0.0	0.0	0.0	1.1538461538461537	4.1	0.15322891	-0.2681506	9.624691	38.68977	-9.33586	80.4	0.013744488	-0.07594168	-0.17908287	-0.0042294315	-0.011346746	0.5531951	0.83296365	
4.080650199203187	0.0	0.0	0.0	0.0	1.1634615384615383	4.11	0.15562311	-0.29688102	9.627085	38.68977	-9.33586	80.4	0.016903251	-0.10383071	-0.17668343	-0.0043133097	-0.011327924	0.5512406	0.8342583	
4.090651792828685	0.0	0.0	0.0	0.0	1.1346153846153846	4.12	0.12928689	-0.31483752	9.599552	38.68977	-9.33586	80.4	-0.00866805	-0.120676965	-0.20420551	-0.0043822424	-0.011326519	0.5512258	0.83426774	
4.100653386454183	0.0	0.0	0.0	0.0	1.1634615384615383	4.13	0.10295067	-0.36032736	9.5732155	38.68977	-9.33586	80.4	-0.03353762	-0.1650291	-0.23054028	-0.004493348	-0.011287578	0.54963785	0.8353147	
4.110654980079681	0.0	0.0	0.0	0.0	1.1538461538461537	4.14	0.09696517	-0.29568392	9.609129	38.68977	-9.33586	80.4	-0.037724562	-0.09945458	-0.19463253	-0.0045837853	-0.011236912	0.5496105	0.8353329	
4.120656573705179	0.0	0.0	0.0	0.0	1.173076923076923	4.15	0.12928689	-0.21547815	9.64145	38.68977	-9.33586	80.4	-0.0029122531	-0.018744335	-0.1623354	-0.004690806	-0.01113834	0.5484308	0.8361086	
4.130658167330677	0.0	0.0	0.0	0.0	1.1538461538461537	4.16	0.11252748	-0.24420857	9.557653	38.68977	-9.33586	80.4	-0.016577534	-0.047460154	-0.2461729	-0.0047788178	-0.011006442	0.54836583	0.83615255	
4.140659760956175	0.0	0.0	0.0	0.0	1.1538461538461537	4.17	0.11851298	-0.23582886	9.548077	38.68977	-9.33586	80.4	-0.008240141	-0.039122626	-0.25578117	-0.0048523694	-0.010900711	0.5476307	0.83663505	
4.150661354581673	0.0	0.0	0.0	0.0	1.1634615384615383	4.18	0.093373865	-0.2669535	9.61272	38.68977	-9.33586	80.4	-0.03202772	-0.070019886	-0.19115067	-0.0049002953	-0.010849178	0.54759353	0.83665985	
4.160662948207171	0.0	0.0	0.0	0.0	1.1634615384615383	4.19	0.11971009	-0.2837129	9.668983	38.68977	-9.33586	80.4	-0.0049691126	-0.08630207	-0.13488674	-0.0049495143	-0.010827716	0.54692215	0.83709884	
4.170664541832669	0.0	0.0	0.0	0.0	1.2307692307692308	4.2	0.142455	-0.23582886	9.755175	38.68977	-9.33586	80.4	0.018257223	-0.037999317	-0.048693657	-0.004981307	-0.010818617	0.546884	0.83712363	
4.180666135458167	0.0	0.0	0.0	0.0	1.1442307692307692	4.21	0.17357962	-0.24779987	9.69532	38.68977	-9.33586	80.4	0.049752124	-0.049530715	-0.108543396	-0.0050178436	-0.010811619	0.54630756	0.8375	
4.190667729083665	0.0	0.0	0.0	0.0	1.2403846153846154	4.22	0.22385786	-0.22625206	9.657013	38.68977	-9.33586	80.4	0.100587875	-0.027282521	-0.14684296	-0.0050648423	-0.010806596	0.5461869	0.8375783	
4.200669322709163	0.0	0.0	0.0	0.0	1.1442307692307692	4.23	0.19752164	-0.21188685	9.627085	38.68977	-9.33586	80.4	0.07469092	-0.012276217	-0.17676353	-0.0051081027	-0.010803969	0.54590434	0.8377624	
4.210670916334661	0.0	0.0	0.0	0.0	1.0865384615384617	4.24	0.1316811	-0.19871874	9.627085	38.68977	-9.33586	80.4	0.009103075	0.0013941526	-0.17675781	-0.0051389467	-0.010806041	0.5457219	0.83788097	
4.220672509960159	0.0	0.0	0.0	0.0	1.2211538461538463	4.25	0.044292733	-0.19871874	9.610326	38.68977	-9.33586	80.4	-0.07790305	0.0018390715	-0.19351196	-0.005170928	-0.010800974	0.54554075	0.8379987	
4.230674103585657	0.0	0.0	0.0	0.0	1.2788461538461537	4.26	0.0023942017	-0.21667525	9.647436	38.68977	-9.33586	80.4	-0.119503096	-0.015647963	-0.15639591	-0.0052010342	-0.010800444	0.5454056	0.8380865	
4.240675697211155	0.0	0.0	0.0	0.0	1.2211538461538463	4.2700000000000005	0.035913024	-0.2633622	9.639056	38.68977	-9.33586	80.4	-0.08551252	-0.06177813	-0.16477013	-0.00523697	-0.010796244	0.5454817	0.8380369	
4.250677290836653	0.0	0.0	0.0	0.0	1.1538461538461537	4.28	0.11731588	-0.34955344	9.581595	38.68977	-9.33586	80.4	-0.003362082	-0.14708138	-0.22222233	-0.005296631	-0.01078855	0.5454103	0.838083	
4.260678884462151	0.0	0.0	0.0	0.0	1.1442307692307692	4.29	0.17597382	-0.4165911	9.556456	38.68977	-9.33586	80.4	0.055990815	-0.21267337	-0.2473402	-0.005376792	-0.010799537	0.54548395	0.8380344	
4.270680478087649	0.0	0.0	0.0	0.0	1.125	4.3	0.1436521	-0.34955344	9.556456	38.68977	-9.33586	80.4	0.024351567	-0.1440271	-0.24731445	-0.0054667746	-0.010813985	0.54530895	0.8381475	
4.280682071713147	0.0	0.0	0.0	0.0	1.1538461538461537	4.3100000000000005	0.03232172	-0.2657564	9.5492735	38.68977	-9.33586	80.4	-0.08613086	-0.05885808	-0.25447845	-0.0055458965	-0.010817489	0.54554874	0.83799094	
4.290683665338645	0.0	0.0	0.0	0.0	1.1538461538461537	4.32	-0.17836803	-0.61890113	9.482236	38.68977	-9.33586	80.4	-0.29536787	-0.40933147	-0.32147598	-0.0057037654	-0.010828	0.5452931	0.83815616	
4.300685258964143	0.0	0.0	0.0	0.0	1.2692307692307692	4.33	-0.8367735	-1.3694834	9.508572	38.68977	-9.33586	80.4	-0.94821453	-1.1509137	-0.2950096	-0.0062378924	-0.010843656	0.54568744	0.83789545	
4.310686852589641	0.0	0.0	0.0	0.0	1.1826923076923075	4.34	-1.5658079	-2.0626047	9.90601	38.68977	-9.33586	80.4	-1.6561835	-1.8181686	0.10282326	-0.00792465	-0.010666968	0.54605186	0.83764595	
4.320688446215139	0.0	0.0	0.0	0.0	1.1442307692307692	4.3500000000000005	-1.1994951	-1.365892	9.362526	38.68977	-9.33586	80.4	-1.2563226	-1.0869308	-0.439991	-0.010319807	-0.010209628	0.54718816	0.8368838	
4.330690039840637	0.0	0.0	0.0	0.0	1.173076923076923	4.36	-0.23343466	-0.31004912	10.030508	38.68977	-9.33586	80.4	-0.26528746	-0.0061724186	0.22861862	-0.012061363	-0.009862322	0.5487836	0.8358192	
4.340691633466135	0.0	0.0	0.0	0.0	1.2115384615384617	4.37	0.007182605	-0.52073884	9.635465	38.68977	-9.33586	80.4	-0.001977556	-0.19714928	-0.16584015	-0.013516988	-0.009475395	0.5505358	0.83464843	
4.350693227091633	0.0	0.0	0.0	0.0	1.125	4.38	0.0035913025	-0.6859388	9.847352	38.68977	-9.33586	80.4	0.013807631	-0.34512687	0.04663086	-0.014774473	-0.009166397	0.55233884	0.83343846	
4.360694820717131	0.0	0.0	0.0	0.0	1.1346153846153846	4.39	0.16400282	-0.61411273	9.534908	38.68977	-9.33586	80.4	0.19092959	-0.25843987	-0.26525307	-0.015857305	-0.008910211	0.5541866	0.8321938	
4.370696414342629	0.0	0.0	0.0	0.0	1.125	4.4	0.33638534	-0.7254431	9.923966	38.68977	-9.33586	80.4	0.37530962	-0.35551733	0.124373436	-0.016783496	-0.008838457	0.5558862	0.83104193	
4.380698007968127	0.0	0.0	0.0	0.0	1.0961538461538463	4.41	-0.10055647	-1.1683705	8.238448	38.68977	-9.33586	80.4	-0.048761107	-0.7797117	-1.56036	-0.017927976	-0.008854293	0.5572688	0.8300914	
4.390699601593625	0.0	0.0	0.0	0.0	1.0576923076923075	4.42	0.10055647	-0.5291186	9.720459	38.68977	-9.33586	80.4	0.14509827	-0.12103972	-0.07759571	-0.018530007	-0.009741026	0.55848575	0.82925	
4.400701195219123	0.0	0.0	0.0	0.0	1.1346153846153846	4.43	0.2705448	-0.40701428	10.69849	38.68977	-9.33586	80.4	0.30638218	0.015220761	0.901	-0.018871346	-0.010530126	0.559246	0.8287201	
4.410702788844621	0.0	0.0	0.0	0.0	1.0865384615384617	4.44	0.094570965	-0.33877954	9.307459	38.68977	-9.33586	80.4	0.13615224	0.09513989	-0.48949814	-0.019521207	-0.010635831	0.55987704	0.8282775	
4.420704382470119	0.0	0.0	0.0	0.0	1.1634615384615383	4.45	1.1384429	0.8295909	9.89763	38.68977	-9.33586	80.4	1.1841085	1.2707798	0.10101509	-0.019936634	-0.010686914	0.56053424	0.82782227	
4.430705976095617	0.0	0.0	0.0	0.0	1.1826923076923075	4.46	-0.30047232	0.4177882	8.825027	38.68977	-9.33586	80.4	-0.24977517	0.86201596	-0.97142506	-0.020204196	-0.010570407	0.56090176	0.8275683	
4.440707569721115	0.0	0.0	0.0	0.0	1.1057692307692308	4.47	-0.49679685	0.439336	9.11712	38.68977	-9.33586	80.4	-0.45284215	0.88929147	-0.67910385	-0.020245647	-0.011032857	0.5614648	0.8271794	
4.450709163346613	0.0	0.0	0.0	0.0	1.1153846153846154	4.48	-0.6847417	-1.9237411	10.201694	38.68977	-9.33586	80.4	-0.6512386	-1.4686296	0.4056673	-0.020154603	-0.011637843	0.5621275	0.8267232	
4.460710756972111	0.0	0.0	0.0	0.0	1.1346153846153846	4.49	-1.4808137	-2.5151088	9.350554	38.68977	-9.33586	80.4	-1.451863	-2.0529773	-0.445158	-0.02030785	-0.012052205	0.56297606	0.8261358	
4.470712350597609	0.0	0.0	0.0	0.0	1.125	4.5	-1.246182	-0.89423436	9.722853	38.68977	-9.33586	80.4	-1.2108479	-0.4243044	-0.072467804	-0.020797646	-0.012046046	0.564509	0.82507706	
4.480713944223107	0.0	0.0	0.0	0.0	1.1346153846153846	4.51	0.50158525	0.8583213	9.599552	38.68977	-9.33586	80.4	0.5431433	1.3360835	-0.19536495	-0.021263216	-0.012086706	0.56748235	0.82302237	
4.490715537848605	0.0	0.0	0.0	0.0	1.1442307692307692	4.5200000000000005	0.6404489	1.0953473	10.26514	38.68977	-9.33586	80.4	0.6848964	1.578952	0.47052193	-0.021553457	-0.01220356	0.5701051	0.82119834	
4.5007171314741035	0.0	0.0	0.0	0.0	1.1826923076923075	4.53	0.8738836	0.6500258	9.974244	38.68977	-9.33586	80.4	0.9307689	1.1304458	0.17953396	-0.021754643	-0.011640613	0.5720208	0.8198679	
4.5107187250996015	0.0	0.0	0.0	0.0	1.1826923076923075	4.54	-0.3890578	-0.7218518	8.644265	38.68977	-9.33586	80.4	-0.32065594	-0.24444845	-1.1505194	-0.021938123	-0.011123042	0.5739695	0.81850713	
4.5207203187250995	0.0	0.0	0.0	0.0	1.1346153846153846	4.55	0.6847417	-0.30047232	9.959879	38.68977	-9.33586	80.4	0.7571858	0.18382081	0.1654625	-0.022312602	-0.011219546	0.5762878	0.8168652	
4.5307219123505975	0.0	0.0	0.0	0.0	1.1826923076923075	4.5600000000000005	0.50278234	-0.545878	9.289502	38.68977	-9.33586	80.4	0.580945	-0.059725583	-0.50477886	-0.022521459	-0.011110914	0.57899994	0.8149408	
4.5407235059760955	0.0	0.0	0.0	0.0	1.25	4.57	0.6440403	-0.59974754	9.767146	38.68977	-9.33586	80.4	0.72336876	-0.11004174	-0.026948929	-0.02266796	-0.0112399245	0.5815972	0.8130833	
4.5507250996015935	0.0	0.0	0.0	0.0	1.1153846153846154	4.58	1.543063	0.38307226	9.794679	38.68977	-9.33586	80.4	1.6241107	0.8754386	0.0007314682	-0.022801615	-0.011303849	0.583598	0.8116438	
4.560726693227092	0.0	0.0	0.0	0.0	1.3076923076923075	4.59	1.2689269	0.82001406	9.812635	38.68977	-9.33586	80.4	1.348572	1.3103944	0.018577576	-0.02266039	-0.0113371415	0.5848301	0.8107601	
4.57072828685259	0.0	0.0	0.0	0.0	1.3173076923076925	4.6000000000000005	-0.08140286	-0.61650693	10.040085	38.68977	-9.33586	80.4	0.00022488832	-0.12559882	0.24606991	-0.02272644	-0.0113010295	0.5859035	0.80998325	
4.580729880478088	0.0	0.0	0.0	0.0	1.0865384615384617	4.61	-0.39983168	-1.3227965	9.181764	38.68977	-9.33586	80.4	-0.3096308	-0.8264332	-0.6119013	-0.023195101	-0.011137534	0.5868621	0.809278	
4.590731474103586	0.0	0.0	0.0	0.0	0.8461538461538463	4.62	-0.36870706	-0.9947908	9.794679	38.68977	-9.33586	80.4	-0.27143407	-0.48788232	0.0016212463	-0.02381661	-0.011216849	0.5887329	0.8078989	
4.600733067729084	0.0	0.0	0.0	0.0	0.7692307692307692	4.63	0.15682021	-0.19752164	7.961918	38.68977	-9.33586	80.4	0.25668138	0.32380116	-1.8303566	-0.024461582	-0.011601354	0.5906335	0.8064858	
4.610734661354582	0.0	0.0	0.0	0.0	1.1346153846153846	4.64	0.6835446	0.31364042	10.031705	38.68977	-9.33586	80.4	0.7663279	0.85277027	0.24023533	-0.024645675	-0.012907102	0.5927808	0.8048832	
4.62073625498008	0.0	0.0	0.0	0.0	1.2884615384615383	4.65	0.5805939	0.30765492	8.848969	38.68977	-9.33586	80.4	0.64198875	0.86628324	-0.94156456	-0.024771024	-0.014425712	0.594392	0.8036644	
4.630737848605578	0.0	0.0	0.0	0.0	1.4615384615384617	4.66	0.22744916	0.23223756	9.982624	38.68977	-9.33586	80.4	0.25949955	0.8119453	0.19317532	-0.024715088	-0.016316012	0.59590536	0.80250853	
4.640739442231076	0.0	0.0	0.0	0.0	1.451923076923077	4.67	0.21667525	-0.36511576	9.5253315	38.68977	-9.33586	80.4	0.2210001	0.24035978	-0.26260853	-0.024898093	-0.01827679	0.5972044	0.80149436	
4.650741035856574	0.0	0.0	0.0	0.0	1.326923076923077	4.68	0.2669535	-1.1133038	9.343372	38.68977	-9.33586	80.4	0.24431013	-0.48011267	-0.44278812	-0.02516932	-0.02027734	0.59882444	0.80022794	
4.660742629482072	0.0	0.0	0.0	0.0	1.1538461538461537	4.69	0.36272156	-0.92895025	9.464279	38.68977	-9.33586	80.4	0.30501366	-0.26528615	-0.3197174	-0.025293397	-0.0226982	0.6005631	0.79885477	
4.67074422310757	0.0	0.0	0.0	0.0	0.8846153846153846	4.7	0.9660604	-0.16998832	11.766304	38.68977	-9.33586	80.4	0.8738528	0.52101964	1.9844637	-0.025290927	-0.025006736	0.60248774	0.7973353	
4.680745816733068	0.0	0.0	0.0	0.0	0.9423076923076923	4.71	0.6536171	-0.18794483	9.241618	38.68977	-9.33586	80.4	0.5567695	0.5192068	-0.5390234	-0.025765864	-0.025733298	0.6037169	0.79636663	
4.690747410358566	0.0	0.0	0.0	0.0	0.8557692307692308	4.72	0.36272156	-0.36631286	9.409213	38.68977	-9.33586	80.4	0.2641599	0.34945625	-0.3707838	-0.026032846	-0.02609996	0.6046523	0.795636	
4.700749003984063	0.0	0.0	0.0	0.0	1.1346153846153846	4.73	0.14604631	-0.61770403	9.604341	38.68977	-9.33586	80.4	0.046129048	0.10231143	-0.17533112	-0.026144506	-0.02630542	0.60522807	0.79518783	
4.710750597609561	0.0	0.0	0.0	0.0	1.1442307692307692	4.74	0.2825158	-0.6452374	9.652225	38.68977	-9.33586	80.4	0.18286343	0.079851806	-0.1270752	-0.0263306	-0.026479902	0.60607314	0.7945319	
4.720752191235059	0.0	0.0	0.0	0.0	1.2788461538461537	4.75	0.4441244	-0.82480246	9.621099	38.68977	-9.33586	80.4	0.34397185	-0.09324145	-0.15771389	-0.026546538	-0.026732057	0.6070005	0.79380804	
4.730753784860557	0.0	0.0	0.0	0.0	1.2596153846153846	4.76	0.10414778	-0.94930094	9.417592	38.68977	-9.33586	80.4	0.00482852	-0.21647751	-0.36113453	-0.026589278	-0.026771596	0.6080168	0.7930271	
4.740755378486055	0.0	0.0	0.0	0.0	1.076923076923077	4.7700000000000005	-0.08379706	0.037110128	9.531317	38.68977	-9.33586	80.4	-0.1817196	0.76060796	-0.2481184	-0.02623201	-0.026447445	0.60870415	0.79252243	
4.750756972111553	0.0	0.0	0.0	0.0	0.9903846153846154	4.78	-0.5805939	-0.7374141	9.654618	38.68977	-9.33586	80.4	-0.6752626	-0.024980545	-0.1256609	-0.025866082	-0.025990078	0.60929036	0.79209894	
4.760758565737051	0.0	0.0	0.0	0.0	0.9038461538461537	4.79	-0.1388637	-0.5566519	9.551667	38.68977	-9.33586	80.4	-0.23275527	0.15277219	-0.22883892	-0.025748428	-0.025884774	0.60990524	0.7916329	
4.770760159362549	0.0	0.0	0.0	0.0	1.0096153846153846	4.8	0.5303157	-0.093373865	9.788693	38.68977	-9.33586	80.4	0.4332338	0.6195179	0.008471489	-0.02575608	-0.026154758	0.61091024	0.7908485	
4.780761752988047	0.0	0.0	0.0	0.0	1.201923076923077	4.8100000000000005	0.15083471	-0.7637503	9.545682	38.68977	-9.33586	80.4	0.049823627	-0.043253303	-0.23394299	-0.025909623	-0.02658164	0.61183447	0.7901143	
4.790763346613545	0.0	0.0	0.0	0.0	1.2115384615384617	4.82	0.33159694	-0.59615624	9.846154	38.68977	-9.33586	80.4	0.22428614	0.13570797	0.06744003	-0.02613448	-0.027227545	0.612909	0.78925174	
4.800764940239043	0.0	0.0	0.0	0.0	1.0865384615384617	4.83	0.5662287	-0.130484	9.698911	38.68977	-9.33586	80.4	0.45670062	0.6151102	-0.07874107	-0.0265872	-0.027777892	0.61379904	0.78852546	
4.810766533864541	0.0	0.0	0.0	0.0	1.3653846153846154	4.84	0.40462008	-0.4357447	9.690532	38.68977	-9.33586	80.4	0.29596984	0.32406276	-0.08603573	-0.027157525	-0.028217893	0.61462617	0.78784573	
4.820768127490039	0.0	0.0	0.0	0.0	1.2115384615384617	4.8500000000000005	-0.08619126	-0.9935937	10.210073	38.68977	-9.33586	80.4	-0.18874322	-0.21615767	0.4348259	-0.028030567	-0.028554816	0.6153922	0.7872048	
4.830769721115537	0.0	0.0	0.0	0.0	0.8076923076923077	4.86	0.2908955	-0.7350199	9.258378	38.68977	-9.33586	80.4	0.21236505	0.06690949	-0.51511383	-0.029736659	-0.028396642	0.6163296	0.78641415	
4.840771314741035	0.0	0.0	0.0	0.0	0.9134615384615385	4.87	0.3172317	-0.39743748	10.053253	38.68977	-9.33586	80.4	0.25379556	0.4400817	0.2826376	-0.031609368	-0.02895014	0.6172126	0.7856281	
4.850772908366533	0.0	0.0	0.0	0.0	1.3365384615384617	4.88	0.16519992	-0.45010993	9.758766	38.68977	-9.33586	80.4	0.11322796	0.43050036	-0.008128166	-0.03366983	-0.029889131	0.618032	0.7848627	
4.860774501992031	0.0	0.0	0.0	0.0	1.4711538461538463	4.89	0.11133038	-0.3878607	9.77792	38.68977	-9.33586	80.4	0.07160734	0.5405799	0.015398979	-0.035944823	-0.030950822	0.6188172	0.7841015	
4.870776095617529	0.0	0.0	0.0	0.0	1.423076923076923	4.9	0.06703765	-0.61530983	8.983045	38.68977	-9.33586	80.4	0.04011077	0.35789168	-0.7751589	-0.03812607	-0.03188229	0.61926776	0.7836054	
4.880777689243027	0.0	0.0	0.0	0.0	1.1153846153846154	4.91	0.08738836	-0.9660604	9.4535055	38.68977	-9.33586	80.4	0.064486936	0.045448184	-0.30081177	-0.039776463	-0.032955233	0.6195685	0.7832411	
4.890779282868525	0.0	0.0	0.0	0.0	0.8653846153846154	4.92	0.06584055	-0.9935937	9.309854	38.68977	-9.33586	80.4	0.045125566	0.04368496	-0.44176197	-0.04086311	-0.033707216	0.61992747	0.78286904	
4.900780876494023	0.0	0.0	0.0	0.0	0.9038461538461537	4.93	-0.010773907	-1.1192893	8.790312	38.68977	-9.33586	80.4	-0.034159604	-0.06275833	-0.9592304	-0.04153251	-0.03444882	0.62032133	0.7824895	
4.910782470119521	0.0	0.0	0.0	0.0	0.9230769230769231	4.94	0.1316811	-0.6703765	9.958682	38.68977	-9.33586	80.4	0.08620694	0.40374047	0.21113968	-0.04152347	-0.035908688	0.6205985	0.78220457	
4.920784063745019	0.0	0.0	0.0	0.0	0.9711538461538463	4.95	0.45848963	-0.94331545	10.230424	38.68977	-9.33586	80.4	0.37931365	0.14926308	0.48514843	-0.041162558	-0.03787995	0.62122726	0.7816313	
4.930785657370517	0.0	0.0	0.0	0.0	1.0961538461538463	4.96	0.1412579	-1.2054806	9.951499	38.68977	-9.33586	80.4	0.042120174	-0.09445691	0.20849228	-0.04125573	-0.039279286	0.62143713	0.7813905	
4.940787250996015	0.0	0.0	0.0	0.0	1.2307692307692308	4.97	0.16519992	-0.91697925	10.170568	38.68977	-9.33586	80.4	0.069807224	0.21126252	0.4295025	-0.04206149	-0.03968268	0.62147665	0.7812957	
4.950788844621513	0.0	0.0	0.0	0.0	1.2211538461538463	4.98	-0.04070143	-1.3180081	8.900445	38.68977	-9.33586	80.4	-0.11611393	-0.17171645	-0.8386879	-0.04340421	-0.03947759	0.6217642	0.7810039	
4.960790438247011	0.0	0.0	0.0	0.0	1.1538461538461537	4.99	-0.4213795	-1.1372458	8.966286	38.68977	-9.33586	80.4	-0.485335	0.032364964	-0.7701559	-0.04467312	-0.03979848	0.62231797	0.7804747	
4.970792031872509	0.0	0.0	0.0	0.0	1.0865384615384617	5.0	-0.094570965	-0.30047232	9.797073	38.68977	-9.33586	80.4	-0.16360787	0.89215904	0.06345844	-0.045402717	-0.04077223	0.6228709	0.779941	
4.980793625498007	0.0	0.0	0.0	0.0	1.1346153846153846	5.01	0.093373865	-0.44651863	9.380483	38.68977	-9.33586	80.4	0.022136793	0.76560056	-0.35070896	-0.046063118	-0.041539524	0.62377447	0.7791393	
4.990795219123505	0.0	0.0	0.0	0.0	1.201923076923077	5.0200000000000005	-0.34955344	-1.8818425	9.085996	38.68977	-9.33586	80.4	-0.42619386	-0.6556709	-0.6433935	-0.04643537	-0.042225137	0.62407357	0.77884084	
5.0007968127490035	0.0	0.0	0.0	0.0	1.2307692307692308	5.03	0.17477672	-2.2984335	9.552865	38.68977	-9.33586	80.4	0.087331474	-1.0654132	-0.17556763	-0.04631252	-0.04293174	0.6249993	0.77806675	
5.0107984063745015	0.0	0.0	0.0	0.0	1.2307692307692308	5.04	0.49200845	-2.0494366	9.507375	38.68977	-9.33586	80.4	0.39925742	-0.81469893	-0.22079086	-0.046175394	-0.043236874	0.6256445	0.7775393	
5.0207999999999995	0.0	0.0	0.0	0.0	1.201923076923077	5.05	0.074220255	-1.8722657	9.830592	38.68977	-9.33586	80.4	-0.021005891	-0.6371105	0.10250378	-0.046041414	-0.04342471	0.6269225	0.7765067	
5.0308015936254975	0.0	0.0	0.0	0.0	1.1153846153846154	5.0600000000000005	0.23582886	-1.4269443	10.110714	38.68977	-9.33586	80.4	0.14579159	-0.18669915	0.38322353	-0.046347547	-0.04345021	0.6280465	0.77557826	
5.0408031872509955	0.0	0.0	0.0	0.0	1.1442307692307692	5.07	1.0354922	-0.33039984	10.205285	38.68977	-9.33586	80.4	0.96793413	0.9215332	0.47910976	-0.04745195	-0.043027736	0.62953967	0.77432346	
5.0508047808764935	0.0	0.0	0.0	0.0	1.0576923076923075	5.08	0.7469909	-1.0259154	9.087193	38.68977	-9.33586	80.4	0.70955366	0.23827767	-0.6375599	-0.04887116	-0.04227592	0.63023794	0.7737082	
5.0608063745019916	0.0	0.0	0.0	0.0	1.0576923076923075	5.09	0.15442601	-1.4915876	9.782708	38.68977	-9.33586	80.4	0.13525113	-0.21958756	0.058921814	-0.049709015	-0.04187903	0.6313666	0.7727557	
5.07080796812749	0.0	0.0	0.0	0.0	1.0384615384615383	5.1000000000000005	0.09696517	-1.3359646	10.348937	38.68977	-9.33586	80.4	0.10270035	-0.06651914	0.6247988	-0.05036712	-0.04086679	0.6322355	0.7720565	
5.080809561752988	0.0	0.0	0.0	0.0	1.0961538461538463	5.11	0.007182605	-1.5251064	10.34774	38.68977	-9.33586	80.4	0.059393708	-0.275123	0.62121964	-0.051039096	-0.038477033	0.6334798	0.77111477	
5.090811155378486	0.0	0.0	0.0	0.0	1.4134615384615383	5.12	0.007182605	-1.5251064	10.34774	38.68977	-9.33586	80.4	0.059393708	-0.275123	0.62121964	-0.051039096	-0.038477033	0.6334798	0.77111477	
5.100812749003984	0.0	0.0	0.0	0.0	1.2596153846153846	5.13	-0.48362875	-1.0965444	10.497377	38.68977	-9.33586	80.4	-0.28024048	0.06982517	0.7624607	-0.052563105	-0.029908353	0.6353367	0.7698636	
5.110814342629482	0.0	0.0	0.0	0.0	1.1057692307692308	5.14	-0.005985504	-0.40940848	8.730456	38.68977	-9.33586	80.4	0.28612688	0.70345867	-1.0084648	-0.053321503	-0.024698941	0.6358056	0.769609	
5.12081593625498	0.0	0.0	0.0	0.0	1.2403846153846154	5.15	-0.06703765	-0.6979098	9.642648	38.68977	-9.33586	80.4	0.30050498	0.36213666	-0.09961128	-0.053682037	-0.020032424	0.6361967	0.76939636	
5.130817529880478	0.0	0.0	0.0	0.0	1.2211538461538463	5.16	-0.17717093	-1.2378023	9.016563	38.68977	-9.33586	80.4	0.261829	-0.22764993	-0.72803783	-0.05403677	-0.01560856	0.63642275	0.7692871	
5.140819123505976	0.0	0.0	0.0	0.0	1.1634615384615383	5.17	-0.17717093	-1.4257472	8.702923	38.68977	-9.33586	80.4	0.3234405	-0.4583308	-1.043045	-0.054354865	-0.011811288	0.6367067	0.76909727	
5.150820717131474	0.0	0.0	0.0	0.0	1.1442307692307692	5.18	-0.272939	-1.0462662	8.919599	38.68977	-9.33586	80.4	0.27460173	-0.111867785	-0.8270664	-0.054578364	-0.008920427	0.63714695	0.76875585	
5.160822310756972	0.0	0.0	0.0	0.0	1.125	5.19	-0.5734113	-0.9720459	8.313866	38.68977	-9.33586	80.4	0.004852295	-0.05787182	-1.4329433	-0.054779045	-0.0070929085	0.63770217	0.76830006	
5.17082390438247	0.0	0.0	0.0	0.0	1.0961538461538463	5.2	-0.65242	-0.6871359	8.115147	38.68977	-9.33586	80.4	-0.068252444	0.22385478	-1.631608	-0.054839533	-0.0068141464	0.6384999	0.76763535	
5.180825498007968	0.0	0.0	0.0	0.0	1.0576923076923075	5.21	-0.700304	-0.5267244	9.060856	38.68977	-9.33586	80.4	-0.13731277	0.39893734	-0.68576336	-0.054715324	-0.008184111	0.6393322	0.7669378	
5.190827091633466	0.0	0.0	0.0	0.0	1.0288461538461537	5.22	-0.2801216	-0.5386954	9.035717	38.68977	-9.33586	80.4	0.24667576	0.4136911	-0.71035004	-0.05456887	-0.010540111	0.6401997	0.7661955	
5.200828685258964	0.0	0.0	0.0	0.0	1.076923076923077	5.23	-0.21308395	-0.5363012	9.44752	38.68977	-9.33586	80.4	0.26488107	0.45163536	-0.2975254	-0.054348014	-0.01368357	0.64110667	0.76540273	
5.210830278884462	0.0	0.0	0.0	0.0	1.1346153846153846	5.24	-0.49320555	-0.91697925	9.85214	38.68977	-9.33586	80.4	-0.06715989	0.10909015	0.10862732	-0.054119863	-0.017032811	0.64200974	0.76459444	
5.22083187250996	0.0	0.0	0.0	0.0	1.173076923076923	5.25	-0.49320555	-0.91697925	9.85214	38.68977	-9.33586	80.4	-0.06715989	0.10909015	0.10862732	-0.054119863	-0.017032811	0.64200974	0.76459444	
5.230833466135458	0.0	0.0	0.0	0.0	1.1634615384615383	5.26	-0.39264908	-1.1168951	11.039664	38.68977	-9.33586	80.4	-0.033578187	-0.041083097	1.2988186	-0.053812273	-0.0214315	0.6440139	0.76281786	
5.240835059760956	0.0	0.0	0.0	0.0	1.2307692307692308	5.2700000000000005	-0.22146365	-1.2569559	10.362105	38.68977	-9.33586	80.4	0.14438045	-0.1848315	0.62110424	-0.05386418	-0.021114934	0.6449974	0.7619915	
5.250836653386454	0.0	0.0	0.0	0.0	1.1826923076923075	5.28	-0.16759412	-1.2952632	9.910798	38.68977	-9.33586	80.4	0.22225751	-0.24105036	0.16877365	-0.05393829	-0.019638246	0.6457299	0.76140517	
5.260838247011952	0.0	0.0	0.0	0.0	1.125	5.29	0.16160862	-0.8858546	9.877279	38.68977	-9.33586	80.4	0.58356047	0.1401968	0.13358593	-0.0538868	-0.017496018	0.64630854	0.76097	
5.27083984063745	0.0	0.0	0.0	0.0	1.1923076923076925	5.3	0.45250413	-0.6655881	9.970653	38.68977	-9.33586	80.4	0.91360676	0.32368183	0.22492981	-0.053741887	-0.0147726135	0.6465857	0.7608026	
5.280841434262948	0.0	0.0	0.0	0.0	1.0865384615384617	5.3100000000000005	-0.36631286	-0.63087213	9.589975	38.68977	-9.33586	80.4	0.14011157	0.31568313	-0.15773964	-0.05357898	-0.011581489	0.64641315	0.761016	
5.290843027888446	0.0	0.0	0.0	0.0	1.0	5.32	-0.91338795	-0.8714894	9.42238	38.68977	-9.33586	80.4	-0.3588853	0.030323386	-0.32696056	-0.053427543	-0.008213231	0.6461871	0.7612623	
5.300844621513944	0.0	0.0	0.0	0.0	0.9711538461538463	5.33	-1.0307038	-0.92296475	9.312247	38.68977	-9.33586	80.4	-0.42666674	-0.065420866	-0.43814468	-0.05334074	-0.0048094243	0.64602375	0.7614361	
5.310846215139442	0.0	0.0	0.0	0.0	1.0576923076923075	5.34	-1.0067618	-0.7110779	8.9124155	38.68977	-9.33586	80.4	-0.35819173	0.105333984	-0.8386469	-0.0532089	-0.0017335468	0.646274	0.76124626	
5.32084780876494	0.0	0.0	0.0	0.0	1.0673076923076925	5.3500000000000005	-0.6572084	-0.7086837	9.208099	38.68977	-9.33586	80.4	0.02449584	0.07401925	-0.5434675	-0.05299125	0.0006553584	0.64649284	0.76107717	
5.330849402390438	0.0	0.0	0.0	0.0	1.0576923076923075	5.36	0.16759412	-0.35553896	9.333796	38.68977	-9.33586	80.4	0.8732089	0.40370327	-0.41792488	-0.05286941	0.0023398877	0.6468033	0.76081854	
5.340850996015936	0.0	0.0	0.0	0.0	1.1153846153846154	5.37	1.3000516	-0.11492168	10.55843	38.68977	-9.33586	80.4	2.021312	0.6218406	0.80612946	-0.05251024	0.0037107954	0.64653856	0.7610629	
5.350852589641434	0.0	0.0	0.0	0.0	1.1153846153846154	5.38	0.8798691	-0.60932434	10.316615	38.68977	-9.33586	80.4	1.6247754	0.09839922	0.56394196	-0.05215558	0.0056451666	0.6457502	0.7617445	
5.360854183266932	0.0	0.0	0.0	0.0	1.1826923076923075	5.39	-1.4700398	-1.2378023	10.726024	38.68977	-9.33586	80.4	-0.68384814	-0.5699994	0.97377586	-0.051944606	0.008690595	0.6439896	0.7632193	
5.37085577689243	0.0	0.0	0.0	0.0	1.1634615384615383	5.4	-3.7720647	-1.5011644	9.409213	38.68977	-9.33586	80.4	-2.923119	-0.8856909	-0.3412161	-0.05195079	0.012945366	0.64274806	0.7642044	
5.380857370517928	0.0	0.0	0.0	0.0	1.0865384615384617	5.41	-2.1296425	-0.25737667	6.0357823	38.68977	-9.33586	80.4	-1.210501	0.30223626	-3.7116485	-0.05206416	0.017569585	0.6420521	0.7646893	
5.390858964143426	0.0	0.0	0.0	0.0	1.2692307692307692	5.42	-1.1192893	-0.6811504	9.952697	38.68977	-9.33586	80.4	-0.19327283	-0.13139033	0.2053566	-0.051909175	0.018149221	0.6422388	0.7645295	
5.400860557768924	0.0	0.0	0.0	0.0	1.0384615384615383	5.43	-1.0390835	-0.22385786	9.059659	38.68977	-9.33586	80.4	-0.12337667	0.3361352	-0.68807316	-0.051977865	0.017386751	0.6425851	0.7642516	
5.410862151394422	0.0	0.0	0.0	0.0	1.1826923076923075	5.44	-0.93613285	-0.0023942017	9.421184	38.68977	-9.33586	80.4	-0.021332681	0.5549548	-0.3267851	-0.051857844	0.017398134	0.64317775	0.76376075	
5.42086374501992	0.0	0.0	0.0	0.0	1.2307692307692308	5.45	-0.8451532	-0.415394	7.955932	38.68977	-9.33586	80.4	0.06032467	0.14801979	-1.7925582	-0.051794346	0.016812963	0.64350134	0.7635056	
5.430865338645418	0.0	0.0	0.0	0.0	1.1634615384615383	5.46	-0.8451532	-0.415394	7.955932	38.68977	-9.33586	80.4	0.06032467	0.14801979	-1.7925582	-0.051794346	0.016812963	0.64350134	0.7635056	
5.440866932270916	0.0	0.0	0.0	0.0	1.1346153846153846	5.47	-0.78410107	-0.5255273	10.004171	38.68977	-9.33586	80.4	0.04004526	0.08683574	0.25141907	-0.051014	0.012065957	0.6429641	0.76410013	
5.450868525896414	0.0	0.0	0.0	0.0	1.1057692307692308	5.48	-0.91338795	-0.130484	8.033744	38.68977	-9.33586	80.4	-0.11888981	0.49445212	-1.7206717	-0.05052365	0.010516874	0.6426452	0.764424	
5.460870119521912	0.0	0.0	0.0	0.0	1.201923076923077	5.49	-0.6775591	-1.043872	8.918402	38.68977	-9.33586	80.4	0.06477618	-0.41207755	-0.8396807	-0.049067173	0.008288972	0.6421341	0.7649755	
5.47087171314741	0.0	0.0	0.0	0.0	1.2788461538461537	5.5	-0.44771573	-1.4939818	10.261548	38.68977	-9.33586	80.4	0.23662761	-0.8640953	0.4991045	-0.047080886	0.0061072554	0.6418187	0.7653855	
5.480873306772908	0.0	0.0	0.0	0.0	1.326923076923077	5.51	-0.46806642	-1.2318168	9.677363	38.68977	-9.33586	80.4	0.16865721	-0.6098302	-0.08880806	-0.045204226	0.0045191078	0.6416143	0.76568085	
5.490874900398406	0.0	0.0	0.0	0.0	1.2692307692307692	5.5200000000000005	-0.3866636	-1.1671734	10.236409	38.68977	-9.33586	80.4	0.20699361	-0.5532007	0.46701813	-0.043476023	0.003088009	0.6418221	0.76561385	
5.500876494023904	0.0	0.0	0.0	0.0	1.2307692307692308	5.53	-0.36990416	-1.0163386	10.024523	38.68977	-9.33586	80.4	0.19035977	-0.40599918	0.25293255	-0.042237755	0.0018777149	0.6422806	0.7653027	
5.510878087649402	0.0	0.0	0.0	0.0	1.0288461538461537	5.54	-0.4189853	-0.4177882	10.260351	38.68977	-9.33586	80.4	0.11496365	0.19395989	0.4873762	-0.04142866	0.00077189447	0.64287466	0.76484984	
5.5208796812749	0.0	0.0	0.0	0.0	0.9423076923076923	5.55	-0.51954174	-0.29448682	9.323022	38.68977	-9.33586	80.4	-0.004830241	0.32352257	-0.45059204	-0.0410408	-0.00021358285	0.64341456	0.764417	
5.530881274900398	0.0	0.0	0.0	0.0	1.0096153846153846	5.5600000000000005	-0.39384618	-0.45489833	9.866506	38.68977	-9.33586	80.4	0.099589884	0.17217126	0.09237194	-0.0406939	-0.0013704727	0.64396	0.76397496	
5.540882868525896	0.0	0.0	0.0	0.0	1.0384615384615383	5.57	-0.41299978	-0.23104046	9.728839	38.68977	-9.33586	80.4	0.062004298	0.4041965	-0.045681	-0.040404316	-0.002386693	0.6445048	0.7635283	
5.5508844621513935	0.0	0.0	0.0	0.0	1.1153846153846154	5.58	-0.4261679	-0.092176765	9.375694	38.68977	-9.33586	80.4	0.030354708	0.55295265	-0.39905834	-0.04017977	-0.0034531038	0.64489204	0.76320904	
5.5608860557768915	0.0	0.0	0.0	0.0	1.173076923076923	5.59	-0.5410896	-0.2657564	9.003395	38.68977	-9.33586	80.4	-0.10994133	0.3953847	-0.77143955	-0.039966702	-0.0049805567	0.645106	0.7630309	
5.57088764940239	0.0	0.0	0.0	0.0	1.1538461538461537	5.6000000000000005	-0.5734113	-0.712275	8.552089	38.68977	-9.33586	80.4	-0.18241122	-0.023743749	-1.2225437	-0.039712526	-0.0074422006	0.64500266	0.76311153	
5.580889243027888	0.0	0.0	0.0	0.0	1.1923076923076925	5.61	-0.30885202	-0.5770026	8.503007	38.68977	-9.33586	80.4	0.019494087	0.15454584	-1.2708054	-0.039325427	-0.01130307	0.6450268	0.7630637	
5.590890836653386	0.0	0.0	0.0	0.0	1.2692307692307692	5.62	-0.11133038	-0.94690675	9.380483	38.68977	-9.33586	80.4	0.13228577	-0.15764785	-0.39131927	-0.038789194	-0.0164977	0.6448103	0.7631794	
5.600892430278884	0.0	0.0	0.0	0.0	1.2403846153846154	5.63	0.088585466	-0.94810385	10.498574	38.68977	-9.33586	80.4	0.2430883	-0.095534384	0.7302761	-0.038318794	-0.022070276	0.6449875	0.76291263	
5.610894023904382	0.0	0.0	0.0	0.0	1.0673076923076925	5.64	0.7386112	-1.2940661	11.634624	38.68977	-9.33586	80.4	0.8259635	-0.39119852	1.8700142	-0.038070977	-0.026345925	0.6449016	0.762862	
5.62089561752988	0.0	0.0	0.0	0.0	1.076923076923077	5.65	0.6607997	-0.5805939	9.533711	38.68977	-9.33586	80.4	0.71387196	0.35191685	-0.22835827	-0.038085453	-0.02867919	0.6452287	0.76250046	
5.630897211155378	0.0	0.0	0.0	0.0	1.076923076923077	5.66	0.5398925	-0.5722142	9.734824	38.68977	-9.33586	80.4	0.5652855	0.38069737	-0.025385857	-0.03799535	-0.03039959	0.64455056	0.76301163	
5.640898804780876	0.0	0.0	0.0	0.0	1.1057692307692308	5.67	-0.007182605	-0.8583213	9.259575	38.68977	-9.33586	80.4	-0.009909035	0.117001414	-0.4984541	-0.03798303	-0.032191463	0.643616	0.76372725	
5.650900398406374	0.0	0.0	0.0	0.0	1.076923076923077	5.68	-1.1755531	-0.9588778	9.375694	38.68977	-9.33586	80.4	-1.2116652	0.045876622	-0.379282	-0.038104434	-0.034390602	0.64206016	0.7649341	
5.660901992031872	0.0	0.0	0.0	0.0	1.1057692307692308	5.69	-0.8834604	-0.5542577	10.404003	38.68977	-9.33586	80.4	-0.94725055	0.4803657	0.65229225	-0.03837589	-0.03644715	0.6418235	0.76502395	
5.67090358565737	0.0	0.0	0.0	0.0	1.1057692307692308	5.7	-0.2621651	-0.7469909	10.028113	38.68977	-9.33586	80.4	-0.3530212	0.30428028	0.27839756	-0.03816048	-0.03803438	0.64139545	0.7653163	
5.680905179282868	0.0	0.0	0.0	0.0	1.0576923076923075	5.71	0.11252748	-1.0151415	10.042479	38.68977	-9.33586	80.4	0.004424028	0.05005765	0.2944498	-0.038126737	-0.039182205	0.6416564	0.76504135	
5.690906772908366	0.0	0.0	0.0	0.0	1.1153846153846154	5.72	0.11133038	-1.0295067	9.334992	38.68977	-9.33586	80.4	-0.0042685047	0.053941965	-0.41093826	-0.03862852	-0.04004589	0.6410167	0.76550746	
5.700908366533864	0.0	0.0	0.0	0.0	1.1826923076923075	5.73	-0.08619126	-0.7565677	9.601946	38.68977	-9.33586	80.4	-0.2222262	0.35101092	-0.14100742	-0.038906883	-0.041639622	0.64095575	0.7654595	
5.710909960159362	0.0	0.0	0.0	0.0	1.1826923076923075	5.74	0.31603462	-0.9624691	10.035296	38.68977	-9.33586	80.4	0.16111334	0.17156899	0.2956686	-0.03936117	-0.043219224	0.6402966	0.7659002	
5.72091155378486	0.0	0.0	0.0	0.0	1.1923076923076925	5.75	0.30645782	-0.92296475	9.454702	38.68977	-9.33586	80.4	0.15429741	0.23011631	-0.282732	-0.04018275	-0.043753188	0.64056337	0.76560414	
5.730913147410358	0.0	0.0	0.0	0.0	1.173076923076923	5.76	0.1376666	-1.1444284	9.938332	38.68977	-9.33586	80.4	-0.005206555	0.016313791	0.20166588	-0.040801845	-0.043628436	0.6403088	0.7657915	
5.740914741035856	0.0	0.0	0.0	0.0	1.1826923076923075	5.7700000000000005	0.029927522	-1.5598224	9.8198185	38.68977	-9.33586	80.4	-0.0867939	-0.3977754	0.08296013	-0.041674737	-0.042680316	0.6409375	0.7652717	
5.750916334661354	0.0	0.0	0.0	0.0	1.1634615384615383	5.78	0.19512744	-1.6472107	9.126697	38.68977	-9.33586	80.4	0.11055206	-0.48410928	-0.6103687	-0.04278263	-0.041442923	0.6407084	0.7654705	
5.760917928286852	0.0	0.0	0.0	0.0	1.0865384615384617	5.79	-0.008379706	-1.6089035	9.227253	38.68977	-9.33586	80.4	-0.0764696	-0.44031227	-0.509284	-0.043513842	-0.04100416	0.64116365	0.76507145	
5.77091952191235	0.0	0.0	0.0	0.0	1.0096153846153846	5.8	0.06943185	-1.6555905	9.041702	38.68977	-9.33586	80.4	0.0042665005	-0.478158	-0.6937895	-0.04396343	-0.04117404	0.64102846	0.76515	
5.780921115537848	0.0	0.0	0.0	0.0	1.0576923076923075	5.8100000000000005	0.62847793	-1.5490485	9.53012	38.68977	-9.33586	80.4	0.5527068	-0.36325264	-0.20427895	-0.043893997	-0.041917462	0.6419274	0.7643596	
5.790922709163346	0.0	0.0	0.0	0.0	1.0865384615384617	5.82	0.23104046	-1.5047557	9.607931	38.68977	-9.33586	80.4	0.14323132	-0.31168175	-0.12547779	-0.04377209	-0.042641073	0.64213073	0.7641558	
5.800924302788844	0.0	0.0	0.0	0.0	1.125	5.83	0.16280572	-1.2318168	9.385271	38.68977	-9.33586	80.4	0.06449517	-0.032040358	-0.34721375	-0.04363624	-0.043327387	0.64306617	0.7633378	
5.810925896414342	0.0	0.0	0.0	0.0	1.2115384615384617	5.84	0.075417355	-1.1121067	9.417592	38.68977	-9.33586	80.4	-0.03732483	0.09460163	-0.313879	-0.043421756	-0.044131756	0.64324766	0.763151	
5.82092749003984	0.0	0.0	0.0	0.0	1.2596153846153846	5.8500000000000005	-0.19153613	-1.0271125	9.452309	38.68977	-9.33586	80.4	-0.32237345	0.18636799	-0.2780943	-0.043035015	-0.04511688	0.64418906	0.76232076	
5.830929083665338	0.0	0.0	0.0	0.0	1.2403846153846154	5.86	0.11731588	-0.8846575	10.004171	38.68977	-9.33586	80.4	-0.02911792	0.33541286	0.27481556	-0.04275662	-0.045964815	0.6445435	0.76198614	
5.840930677290836	0.0	0.0	0.0	0.0	1.0865384615384617	5.87	0.2765303	-1.2521675	9.526528	38.68977	-9.33586	80.4	0.12709036	-0.028003454	-0.2022686	-0.042754587	-0.046276208	0.64557403	0.7610945	
5.850932270916334	0.0	0.0	0.0	0.0	1.2211538461538463	5.88	0.06344634	-1.2198458	9.574412	38.68977	-9.33586	80.4	-0.087388515	0.0074431896	-0.15396881	-0.04281064	-0.046452794	0.6458956	0.7608077	
5.860933864541832	0.0	0.0	0.0	0.0	1.1057692307692308	5.89	-0.32441434	-1.1480197	9.775525	38.68977	-9.33586	80.4	-0.47846496	0.08606696	0.048054695	-0.042904887	-0.04686363	0.6469386	0.7598904	
5.87093545816733	0.0	0.0	0.0	0.0	1.0576923076923075	5.9	-0.61171854	-0.34596214	9.982624	38.68977	-9.33586	80.4	-0.7669073	0.89869237	0.25651836	-0.04324397	-0.047292337	0.6474918	0.7593733	
5.880937051792828	0.0	0.0	0.0	0.0	1.1057692307692308	5.91	-0.5530606	-0.58777654	9.89763	38.68977	-9.33586	80.4	-0.6936894	0.6691681	0.17288303	-0.04413071	-0.0472058	0.6486798	0.75831306	
5.890938645418326	0.0	0.0	0.0	0.0	1.1442307692307692	5.92	-0.4405331	-0.5626374	9.982624	38.68977	-9.33586	80.4	-0.55557173	0.70409113	0.258811	-0.045325086	-0.046573825	0.64925814	0.75778663	
5.900940239043824	0.0	0.0	0.0	0.0	1.1538461538461537	5.93	-1.0953473	-1.1324574	9.102755	38.68977	-9.33586	80.4	-1.1763239	0.14230227	-0.6203537	-0.0466703	-0.04562212	0.6509007	0.7563522	
5.910941832669322	0.0	0.0	0.0	0.0	1.0673076923076925	5.94	-0.94810385	-2.1068976	9.921572	38.68977	-9.33586	80.4	-0.9980986	-0.8322078	0.19824696	-0.0475923	-0.044534948	0.65273243	0.7547794	
5.92094342629482	0.0	0.0	0.0	0.0	1.0673076923076925	5.95	0.79248077	-1.9979613	9.866506	38.68977	-9.33586	80.4	0.777786	-0.72958314	0.14223766	-0.048354823	-0.043152414	0.65576136	0.7521815	
5.930945019920318	0.0	0.0	0.0	0.0	1.076923076923077	5.96	4.345476	-2.0470424	9.674969	38.68977	-9.33586	80.4	4.3676147	-0.792384	-0.05106449	-0.04893845	-0.041416515	0.65801644	0.75026935	
5.940946613545816	0.0	0.0	0.0	0.0	1.2596153846153846	5.97	1.3156139	-1.1767502	10.020931	38.68977	-9.33586	80.4	1.3752891	0.056124926	0.2922697	-0.049336746	-0.03927117	0.6585613	0.7498805	
5.950948207171314	0.0	0.0	0.0	0.0	1.326923076923077	5.98	-0.61411273	0.038307227	10.019734	38.68977	-9.33586	80.4	-0.5059613	1.2455208	0.2882738	-0.05002747	-0.036480833	0.65768075	0.75074804	
5.960949800796812	0.0	0.0	0.0	0.0	1.2211538461538463	5.99	-1.532289	-0.9804256	8.893262	38.68977	-9.33586	80.4	-1.3717892	0.20902193	-0.8396635	-0.05113634	-0.03382274	0.65701026	0.75138456	
5.97095139442231	0.0	0.0	0.0	0.0	1.1538461538461537	6.0	-2.0590134	-1.2354081	8.358158	38.68977	-9.33586	80.4	-1.860627	-0.0536741	-1.3750086	-0.052154	-0.03204015	0.6560607	0.75222194	
