# OpenSignals Text File Format
# {"internal sensors": {"sensor": ["xAcc", "yAcc", "zAcc", "Latitude", "Longitude", "Altitude", "Light", "distance", "SigMotion"], "device name": "internal sensors", "column": ["nSeq", "xAcc", "yAcc", "zAcc", "Latitude", "Longitude", "Altitude", "Light", "distance", "SigMotion"], "sync interval": 2, "time": "14:55:57", "comments": "", "keywords": "", "device connection": "UNKNOWNinternal sensors", "channels": [0, 1, 2, 3, 4, 5, 6, 7, 8], "date": "2020-07-17", "mode": 0, "digital IO": [], "firmware version": 0, "device": "android", "position": 0, "sampling rate": 100, "label": ["xAcc", "yAcc", "zAcc", "Latitude", "Longitude", "Altitude", "Light", "distance", "SigMotion"], "resolution": [1, 1, 1, 1, 1, 1, 1, 1, 1], "special": [{}, {}, {}, {}, {}, {}, {}, {}, {}], "sleeve color": ["UNKNOWN", "UNKNOWN", "UNKNOWN", "UNKNOWN", "UNKNOWN", "UNKNOWN", "UNKNOWN", "UNKNOWN", "UNKNOWN"]}}
# EndOfHeader
0.0	8.26239	0.11492168	7.8182654	38.689796	-9.335832	80.4	109.0	5.0	1.0	
0.01	8.26239	0.11492168	7.8182654	38.689796	-9.335832	80.4	109.0	5.0	1.0	
0.02	8.26239	0.11492168	7.8182654	38.689796	-9.335832	80.4	109.0	5.0	1.0	
0.03	8.588001	0.088585466	8.452729	38.689796	-9.335832	80.4	109.0	5.0	1.0	
0.04	8.671799	-0.022744916	8.963891	38.689796	-9.335832	80.4	109.0	5.0	1.0	
0.05	8.495825	-0.2801216	9.215282	38.689796	-9.335832	80.4	109.0	5.0	1.0	
0.06	8.139089	-0.6715736	9.136273	38.689796	-9.335832	80.4	109.0	5.0	1.0	
0.07	7.5968018	-1.1791444	8.215703	38.689796	-9.335832	80.4	109.0	5.0	1.0	
0.08	7.630321	-1.1085154	7.807492	38.689796	-9.335832	80.4	109.0	5.0	1.0	
0.09	7.8613615	-0.8882488	7.2807674	38.689796	-9.335832	80.4	109.0	5.0	1.0	
0.1	8.244433	-0.60333884	6.813898	38.689796	-9.335832	80.4	109.0	5.0	1.0	
0.11	8.662222	-0.45250413	6.4990606	38.689796	-9.335832	80.4	109.0	5.0	1.0	
0.12	9.094376	-0.39983168	6.31351	38.689796	-9.335832	80.4	109.0	5.0	1.0	
0.13	9.452309	-0.36631286	6.302736	38.689796	-9.335832	80.4	109.0	5.0	1.0	
0.14	9.721656	-0.29927522	6.519411	38.689796	-9.335832	80.4	109.0	5.0	1.0	
0.15	9.765948	-0.19512744	7.016208	38.689796	-9.335832	80.4	109.0	5.0	1.0	
0.16	9.57561	-0.1412579	7.6027875	38.689796	-9.335832	80.4	109.0	5.0	1.0	
0.17	9.166202	-0.06943185	8.294712	38.689796	-9.335832	80.4	109.0	5.0	1.0	
0.18	8.686164	-0.031124622	8.74123	38.689796	-9.335832	80.4	109.0	5.0	1.0	
0.19	8.307879	-0.24540567	8.737639	38.689796	-9.335832	80.4	109.0	5.0	1.0	
0.2	8.043321	-0.8283938	8.336611	38.689796	-9.335832	80.4	109.0	5.0	1.0	
0.21	8.4647	-1.9273324	8.061277	38.689796	-9.335832	80.4	109.0	5.0	1.0	
0.22	8.4647	-1.9273324	8.061277	38.689796	-9.335832	80.4	109.0	5.0	1.0	
0.23	9.26197	-2.042254	8.628703	38.689796	-9.335832	80.4	109.0	5.0	1.0	
0.24	10.3692875	-1.8052281	9.733627	38.689796	-9.335832	80.4	109.0	5.0	1.0	
0.25	11.663354	-1.5466543	11.020511	38.689796	-9.335832	80.4	109.0	5.0	1.0	
0.26	12.77546	-1.3850456	12.200851	38.689796	-9.335832	80.4	109.0	5.0	1.0	
0.27	13.517663	-1.1408371	13.041217	38.689796	-9.335832	80.4	109.0	5.0	1.0	
0.28	13.887567	-0.7182605	13.377602	38.689796	-9.335832	80.4	109.0	5.0	1.0	
0.29	13.78701	-0.36391866	13.220781	38.689796	-9.335832	80.4	109.0	5.0	1.0	
0.3	13.03164	-0.23104046	12.366052	38.689796	-9.335832	80.4	109.0	5.0	1.0	
0.31	11.702858	-0.3878607	10.948685	38.689796	-9.335832	80.4	109.0	5.0	1.0	
0.32	10.183737	-0.88944596	9.44752	38.689796	-9.335832	80.4	109.0	5.0	1.0	
0.33	8.684967	-1.4676456	7.9391727	38.689796	-9.335832	80.4	109.0	5.0	1.0	
0.34	7.369353	-2.0530279	6.5086374	38.689796	-9.335832	80.4	109.0	5.0	1.0	
0.35000000000000003	6.317101	-2.7090392	5.153519	38.689796	-9.335832	80.4	109.0	5.0	1.0	
0.36	5.439626	-3.3123782	3.916914	38.689796	-9.335832	80.4	109.0	5.0	1.0	
0.37	4.6830587	-3.6894648	3.0083144	38.689796	-9.335832	80.4	109.0	5.0	1.0	
0.38	4.1132383	-3.9396589	2.2864625	38.689796	-9.335832	80.4	109.0	5.0	1.0	
0.39	3.809175	-3.965995	1.5394717	38.689796	-9.335832	80.4	109.0	5.0	1.0	
0.4	3.70383	-3.762488	0.7266402	38.689796	-9.335832	80.4	109.0	5.0	1.0	
0.41000000000000003	3.8271315	-3.4680011	0.022744916	38.689796	-9.335832	80.4	109.0	5.0	1.0	
0.42	4.1826706	-3.1112652	-0.17597382	38.689796	-9.335832	80.4	109.0	5.0	1.0	
0.43	4.8458643	-2.7114334	0.20709845	38.689796	-9.335832	80.4	109.0	5.0	1.0	
0.44	5.6096144	-2.3355439	0.7062895	38.689796	-9.335832	80.4	109.0	5.0	1.0	
0.45	6.3793507	-1.9847932	1.423353	38.689796	-9.335832	80.4	109.0	5.0	1.0	
0.46	6.943185	-1.7238252	2.421735	38.689796	-9.335832	80.4	109.0	5.0	1.0	
0.47000000000000003	7.4028716	-1.4532804	3.5434184	38.689796	-9.335832	80.4	109.0	5.0	1.0	
0.48	7.6482773	-1.1851299	4.689044	38.689796	-9.335832	80.4	109.0	5.0	1.0	
0.49	7.627927	-1.0378864	5.6790466	38.689796	-9.335832	80.4	109.0	5.0	1.0	
0.5	7.3442135	-1.0390835	6.43322	38.689796	-9.335832	80.4	109.0	5.0	1.0	
0.51	6.8522053	-1.1061212	6.939594	38.689796	-9.335832	80.4	109.0	5.0	1.0	
0.52	6.2883706	-1.1971009	7.147889	38.689796	-9.335832	80.4	109.0	5.0	1.0	
0.53	5.7125654	-1.2485762	7.091625	38.689796	-9.335832	80.4	109.0	5.0	1.0	
0.54	4.9045224	-1.1444284	6.1064115	38.689796	-9.335832	80.4	109.0	5.0	1.0	
0.55	4.736928	-0.90979666	5.5389857	38.689796	-9.335832	80.4	109.0	5.0	1.0	
0.56	4.6339774	-0.6344634	4.933253	38.689796	-9.335832	80.4	109.0	5.0	1.0	
0.5700000000000001	4.6112323	-0.37588966	4.3382936	38.689796	-9.335832	80.4	109.0	5.0	1.0	
0.58	4.68665	-0.14963761	3.855862	38.689796	-9.335832	80.4	109.0	5.0	1.0	
0.59	4.7896004	0.06464344	3.526659	38.689796	-9.335832	80.4	109.0	5.0	1.0	
0.6	4.9105077	0.2705448	3.3770216	38.689796	-9.335832	80.4	109.0	5.0	1.0	
0.61	5.0302176	0.4261679	3.2345665	38.689796	-9.335832	80.4	109.0	5.0	1.0	
0.62	5.044583	0.45130703	3.1028855	38.689796	-9.335832	80.4	109.0	5.0	1.0	
0.63	5.0146556	0.35793316	3.0765493	38.689796	-9.335832	80.4	109.0	5.0	1.0	
0.64	4.8877625	0.16400282	3.1256304	38.689796	-9.335832	80.4	109.0	5.0	1.0	
0.65	4.799177	-0.073023155	3.1615434	38.689796	-9.335832	80.4	109.0	5.0	1.0	
0.66	4.7165775	-0.35793316	3.3674448	38.689796	-9.335832	80.4	109.0	5.0	1.0	
0.67	4.8255134	-0.51235914	3.9576154	38.689796	-9.335832	80.4	109.0	5.0	1.0	
0.68	5.1547165	-0.6500258	4.537012	38.689796	-9.335832	80.4	109.0	5.0	1.0	
0.6900000000000001	5.6982	-0.724246	4.997896	38.689796	-9.335832	80.4	109.0	5.0	1.0	
0.7000000000000001	6.43322	-0.8295909	5.434838	38.689796	-9.335832	80.4	109.0	5.0	1.0	
0.71	7.36217	-1.0127473	5.8717794	38.689796	-9.335832	80.4	109.0	5.0	1.0	
0.72	8.459911	-1.2557588	6.453571	38.689796	-9.335832	80.4	109.0	5.0	1.0	
0.73	9.470264	-1.6304513	7.1885905	38.689796	-9.335832	80.4	109.0	5.0	1.0	
0.74	10.516531	-1.9488802	8.166622	38.689796	-9.335832	80.4	109.0	5.0	1.0	
0.75	11.493365	-2.054225	9.369708	38.689796	-9.335832	80.4	109.0	5.0	1.0	
0.76	12.210428	-1.9656396	10.496181	38.689796	-9.335832	80.4	109.0	5.0	1.0	
0.77	12.588713	-1.780089	11.316195	38.689796	-9.335832	80.4	109.0	5.0	1.0	
0.78	12.628217	-1.5801731	11.765107	38.689796	-9.335832	80.4	109.0	5.0	1.0	
0.79	12.337321	-1.5263035	11.963826	38.689796	-9.335832	80.4	109.0	5.0	1.0	
0.8	11.668142	-1.6017209	11.803414	38.689796	-9.335832	80.4	109.0	5.0	1.0	
0.81	10.747571	-1.7429788	11.456255	38.689796	-9.335832	80.4	109.0	5.0	1.0	
0.8200000000000001	9.855731	-1.8339585	11.071986	38.689796	-9.335832	80.4	109.0	5.0	1.0	
0.8300000000000001	9.075222	-1.8351556	10.59554	38.689796	-9.335832	80.4	109.0	5.0	1.0	
0.84	8.395268	-1.6891093	9.898827	38.689796	-9.335832	80.4	109.0	5.0	1.0	
0.85	7.8709383	-1.3874398	9.229648	38.689796	-9.335832	80.4	109.0	5.0	1.0	
0.86	7.404069	-1.0749966	8.67539	38.689796	-9.335832	80.4	109.0	5.0	1.0	
0.87	6.9168487	-0.81642276	8.039729	38.689796	-9.335832	80.4	109.0	5.0	1.0	
0.88	6.3949127	-0.8451532	6.9647326	38.689796	-9.335832	80.4	109.0	5.0	1.0	
0.89	6.1782374	-1.3036429	5.746084	38.689796	-9.335832	80.4	109.0	5.0	1.0	
0.9	6.2967505	-2.0039468	4.9164934	38.689796	-9.335832	80.4	109.0	5.0	1.0	
0.91	6.7468605	-2.396596	4.662708	38.689796	-9.335832	80.4	109.0	5.0	1.0	
0.92	7.6410947	-2.505532	4.6938324	38.689796	-9.335832	80.4	109.0	5.0	1.0	
0.93	8.823831	-2.6276364	4.7500963	38.689796	-9.335832	80.4	109.0	5.0	1.0	
0.9400000000000001	10.079589	-2.7952304	5.1822495	38.689796	-9.335832	80.4	109.0	5.0	1.0	
0.9500000000000001	11.166556	-2.8550856	6.3745623	38.689796	-9.335832	80.4	109.0	5.0	1.0	
0.96	11.953052	-2.6982653	7.77517	38.689796	-9.335832	80.4	109.0	5.0	1.0	
0.97	12.221203	-2.7269957	8.848969	38.689796	-9.335832	80.4	109.0	5.0	1.0	
0.98	11.6669445	-3.3279405	9.423578	38.689796	-9.335832	80.4	109.0	5.0	1.0	
0.99	10.554838	-4.2197804	9.583989	38.689796	-9.335832	80.4	109.0	5.0	1.0	
1.0	9.556456	-5.1475334	9.610326	38.689796	-9.335832	80.4	109.0	5.0	1.0	
1.01	7.9906483	-5.768829	9.667787	38.689796	-9.335832	80.4	109.0	5.0	1.0	
1.02	7.429208	-5.483919	9.173384	38.689796	-9.335832	80.4	109.0	5.0	1.0	
1.03	7.27957	-5.019444	8.672996	38.689796	-9.335832	80.4	109.0	5.0	1.0	
1.04	7.45315	-4.4005427	8.2169	38.689796	-9.335832	80.4	109.0	5.0	1.0	
1.05	7.7320743	-3.774459	7.631518	38.689796	-9.335832	80.4	109.0	5.0	1.0	
1.06	7.9391727	-3.1244333	6.847417	38.689796	-9.335832	80.4	109.0	5.0	1.0	
1.07	7.9391727	-2.528277	5.8586116	38.689796	-9.335832	80.4	109.0	5.0	1.0	
1.08	7.8446016	-2.0147207	4.8362875	38.689796	-9.335832	80.4	109.0	5.0	1.0	
1.09	7.5668745	-1.5969325	3.9240966	38.689796	-9.335832	80.4	109.0	5.0	1.0	
1.1	7.1586633	-1.2617443	3.0753522	38.689796	-9.335832	80.4	109.0	5.0	1.0	
1.11	6.647501	-1.0402806	2.3594859	38.689796	-9.335832	80.4	109.0	5.0	1.0	
1.12	6.0920463	-0.89423436	1.8650831	38.689796	-9.335832	80.4	109.0	5.0	1.0	
1.1300000000000001	5.544971	-0.7565677	1.5394717	38.689796	-9.335832	80.4	109.0	5.0	1.0	
1.1400000000000001	5.052963	-0.6440403	1.3742718	38.689796	-9.335832	80.4	109.0	5.0	1.0	
1.1500000000000001	4.72376	-0.5566519	1.353921	38.689796	-9.335832	80.4	109.0	5.0	1.0	
1.16	4.5274353	-0.4297592	1.5023615	38.689796	-9.335832	80.4	109.0	5.0	1.0	
1.17	4.4699745	-0.30047232	1.7262194	38.689796	-9.335832	80.4	109.0	5.0	1.0	
1.18	4.5202527	-0.15801731	1.9548657	38.689796	-9.335832	80.4	109.0	5.0	1.0	
1.19	4.6962266	0.005985504	2.291251	38.689796	-9.335832	80.4	67.0	5.0	1.0	
1.2	4.903325	0.14724341	2.7126305	38.689796	-9.335832	80.4	67.0	5.0	1.0	
1.21	4.903325	0.14724341	2.7126305	38.689796	-9.335832	80.4	67.0	5.0	1.0	
1.22	4.903325	0.14724341	2.7126305	38.689796	-9.335832	80.4	67.0	5.0	1.0	
1.23	5.3366756	0.055066638	4.0138793	38.689796	-9.335832	80.4	67.0	5.0	1.0	
1.24	5.3857565	-0.038307227	4.5382094	38.689796	-9.335832	80.4	67.0	5.0	1.0	
1.25	5.445612	-0.16280572	4.959589	38.689796	-9.335832	80.4	67.0	5.0	1.0	
1.26	5.506664	-0.3196259	5.3043537	38.689796	-9.335832	80.4	67.0	5.0	1.0	
1.27	5.6203885	-0.58657944	5.5126495	38.689796	-9.335832	80.4	67.0	5.0	1.0	
1.28	5.8226986	-0.9504981	5.5581393	38.689796	-9.335832	80.4	67.0	5.0	1.0	
1.29	6.1279593	-1.2593501	5.747281	38.689796	-9.335832	80.4	67.0	5.0	1.0	
1.3	6.6079965	-1.4425066	6.3446345	38.689796	-9.335832	80.4	67.0	5.0	1.0	
1.31	7.2831616	-1.5143325	7.2831616	38.689796	-9.335832	80.4	67.0	5.0	1.0	
1.32	7.953538	-1.435324	8.324639	38.689796	-9.335832	80.4	67.0	5.0	1.0	
1.33	8.558074	-1.282095	9.408015	38.689796	-9.335832	80.4	67.0	5.0	1.0	
1.34	8.944737	-1.1288661	10.172963	38.689796	-9.335832	80.4	67.0	5.0	1.0	
1.35	9.00579	-0.9648633	10.553641	38.689796	-9.335832	80.4	67.0	5.0	1.0	
1.36	8.708909	-0.81761986	10.662578	38.689796	-9.335832	80.4	67.0	5.0	1.0	
1.37	8.139089	-0.8738836	10.333375	38.689796	-9.335832	80.4	67.0	5.0	1.0	
1.3800000000000001	7.398083	-1.1827357	9.623494	38.689796	-9.335832	80.4	67.0	5.0	1.0	
1.3900000000000001	6.7205243	-1.5705963	8.902839	38.689796	-9.335832	80.4	67.0	5.0	1.0	
1.4000000000000001	6.7205243	-1.5705963	8.902839	38.689796	-9.335832	80.4	67.0	5.0	1.0	
1.41	6.7205243	-1.5705963	8.902839	38.689796	-9.335832	80.4	67.0	5.0	1.0	
1.42	5.731719	-2.135628	7.3849154	38.689796	-9.335832	80.4	67.0	5.0	1.0	
1.43	5.731719	-2.135628	7.3849154	38.689796	-9.335832	80.4	67.0	5.0	1.0	
1.44	6.2644286	-1.6687586	7.1993647	38.689796	-9.335832	80.4	67.0	5.0	1.0	
1.45	6.5325794	-1.3982137	6.9491706	38.689796	-9.335832	80.4	67.0	5.0	1.0	
1.46	6.754043	-1.1360487	6.493075	38.689796	-9.335832	80.4	67.0	5.0	1.0	
1.47	6.815095	-0.9708488	5.9448028	38.689796	-9.335832	80.4	67.0	5.0	1.0	
1.48	6.7588315	-0.93852705	5.3462524	38.689796	-9.335832	80.4	67.0	5.0	1.0	
1.49	6.609194	-0.985214	4.5046906	38.689796	-9.335832	80.4	67.0	5.0	1.0	
1.5	6.7839704	-0.94810385	4.4819455	38.689796	-9.335832	80.4	67.0	5.0	1.0	
1.51	7.133524	-0.8499416	4.847061	38.689796	-9.335832	80.4	67.0	5.0	1.0	
1.52	7.513005	-0.8571242	5.2756233	38.689796	-9.335832	80.4	67.0	5.0	1.0	
1.53	7.7847466	-1.0199299	5.731719	38.689796	-9.335832	80.4	67.0	5.0	1.0	
1.54	8.054094	-1.2294226	6.326678	38.689796	-9.335832	80.4	67.0	5.0	1.0	
1.55	8.263587	-1.435324	6.963536	38.689796	-9.335832	80.4	67.0	5.0	1.0	
1.56	8.441956	-1.62686	7.539341	38.689796	-9.335832	80.4	67.0	5.0	1.0	
1.57	8.626308	-1.804031	8.056489	38.689796	-9.335832	80.4	67.0	5.0	1.0	
1.58	8.77834	-1.9369092	8.619126	38.689796	-9.335832	80.4	67.0	5.0	1.0	
1.59	8.92319	-2.0518308	9.25359	38.689796	-9.335832	80.4	67.0	5.0	1.0	
1.6	8.957906	-2.1021092	9.66659	38.689796	-9.335832	80.4	67.0	5.0	1.0	
1.61	8.8645315	-2.0913353	9.668983	38.689796	-9.335832	80.4	67.0	5.0	1.0	
1.62	8.53054	-2.1260512	9.38168	38.689796	-9.335832	80.4	67.0	5.0	1.0	
1.6300000000000001	8.147469	-2.1679497	8.871715	38.689796	-9.335832	80.4	67.0	5.0	1.0	
1.6400000000000001	7.811083	-2.0973208	8.186973	38.689796	-9.335832	80.4	67.0	5.0	1.0	
1.6500000000000001	7.505822	-1.9572599	7.395689	38.689796	-9.335832	80.4	67.0	5.0	1.0	
1.6600000000000001	7.1993647	-1.7705121	6.5589156	38.689796	-9.335832	80.4	67.0	5.0	1.0	
1.67	6.931214	-1.5586253	5.8717794	38.689796	-9.335832	80.4	67.0	5.0	1.0	
1.68	6.719327	-1.3299791	5.2744265	38.689796	-9.335832	80.4	67.0	5.0	1.0	
1.69	6.505046	-1.0702082	4.6782703	38.689796	-9.335832	80.4	67.0	5.0	1.0	
1.7	6.283582	-0.8439561	4.0892963	38.689796	-9.335832	80.4	67.0	5.0	1.0	
1.71	6.069301	-0.6859388	3.678691	38.689796	-9.335832	80.4	67.0	5.0	1.0	
1.72	5.8885393	-0.60094464	3.5110967	38.689796	-9.335832	80.4	67.0	5.0	1.0	
1.73	5.8238955	-0.51834464	3.4847605	38.689796	-9.335832	80.4	67.0	5.0	1.0	
1.74	5.8238955	-0.38067806	3.4368765	38.689796	-9.335832	80.4	67.0	5.0	1.0	
1.75	5.898116	-0.2681506	3.4320881	38.689796	-9.335832	80.4	67.0	5.0	1.0	
1.76	6.123171	-0.18195933	3.6128504	38.689796	-9.335832	80.4	67.0	5.0	1.0	
1.77	6.4032927	-0.12808979	3.9839516	38.689796	-9.335832	80.4	67.0	5.0	1.0	
1.78	6.615179	-0.1316811	4.38498	38.689796	-9.335832	80.4	67.0	5.0	1.0	
1.79	6.7588315	-0.16998832	4.736928	38.689796	-9.335832	80.4	67.0	5.0	1.0	
1.8	6.7959414	-0.25378537	5.0757074	38.689796	-9.335832	80.4	67.0	5.0	1.0	
1.81	6.815095	-0.39863458	5.398925	38.689796	-9.335832	80.4	67.0	5.0	1.0	
1.82	6.827066	-0.5746084	5.7185507	38.689796	-9.335832	80.4	67.0	5.0	1.0	
1.83	6.8893156	-0.7757214	5.9531827	38.689796	-9.335832	80.4	67.0	5.0	1.0	
1.84	7.005434	-0.93852705	6.179435	38.689796	-9.335832	80.4	67.0	5.0	1.0	
1.85	7.1969705	-0.997185	6.5110316	38.689796	-9.335832	80.4	67.0	5.0	1.0	
1.86	7.439982	-0.9744401	6.993463	38.689796	-9.335832	80.4	67.0	5.0	1.0	
1.87	7.714118	-0.8403648	7.5189905	38.689796	-9.335832	80.4	67.0	5.0	1.0	
1.8800000000000001	7.8912888	-0.7374141	7.9595237	38.689796	-9.335832	80.4	67.0	5.0	1.0	
1.8900000000000001	7.937976	-0.6691794	8.305486	38.689796	-9.335832	80.4	67.0	5.0	1.0	
1.9000000000000001	7.9188223	-0.6931214	8.504205	38.689796	-9.335832	80.4	67.0	5.0	1.0	
1.9100000000000001	7.9236107	-0.7697359	8.394072	38.689796	-9.335832	80.4	67.0	5.0	1.0	
1.92	7.8912888	-0.82719666	8.182184	38.689796	-9.335832	80.4	67.0	5.0	1.0	
1.93	7.8793178	-0.80564886	7.571663	38.689796	-9.335832	80.4	67.0	5.0	1.0	
1.94	7.78355	-0.79367787	7.571663	38.689796	-9.335832	80.4	67.0	5.0	1.0	
1.95	7.711724	-0.78050977	7.5644803	38.689796	-9.335832	80.4	67.0	5.0	1.0	
1.96	7.309498	-0.8858546	7.6734166	38.689796	-9.335832	80.4	67.0	5.0	1.0	
1.97	7.017405	-1.0833763	7.5668745	38.689796	-9.335832	80.4	67.0	5.0	1.0	
1.98	6.7444663	-1.3599066	7.3873096	38.689796	-9.335832	80.4	67.0	5.0	1.0	
1.99	6.588843	-1.697489	7.289147	38.689796	-9.335832	80.4	67.0	5.0	1.0	
2.0	6.567295	-1.8555063	7.2687964	38.689796	-9.335832	80.4	67.0	5.0	1.0	
2.0100000000000002	6.7564373	-1.8974048	7.350199	38.689796	-9.335832	80.4	67.0	5.0	1.0	
2.02	7.052121	-1.8459295	7.442376	38.689796	-9.335832	80.4	67.0	5.0	1.0	
2.0300000000000002	7.2939353	-1.733402	7.4615297	38.689796	-9.335832	80.4	67.0	5.0	1.0	
2.04	7.3849154	-1.6400281	7.2592196	38.689796	-9.335832	80.4	67.0	5.0	1.0	
2.05	7.392098	-1.5993267	6.927623	38.689796	-9.335832	80.4	67.0	5.0	1.0	
2.06	7.301118	-1.6448165	6.542156	38.689796	-9.335832	80.4	67.0	5.0	1.0	
2.07	7.1383123	-1.7441759	6.232107	38.689796	-9.335832	80.4	67.0	5.0	1.0	
2.08	7.0126166	-1.8435353	5.973533	38.689796	-9.335832	80.4	67.0	5.0	1.0	
2.09	6.956353	-1.8962077	5.7748146	38.689796	-9.335832	80.4	67.0	5.0	1.0	
2.1	6.979098	-1.9297266	5.4863133	38.689796	-9.335832	80.4	67.0	5.0	1.0	
2.11	7.0832458	-1.9033904	5.306748	38.689796	-9.335832	80.4	67.0	5.0	1.0	
2.12	7.1287355	-1.8890251	5.389348	38.689796	-9.335832	80.4	67.0	5.0	1.0	
2.13	7.181408	-1.8327614	5.6922145	38.689796	-9.335832	80.4	67.0	5.0	1.0	
2.14	7.2723875	-1.6891093	5.969942	38.689796	-9.335832	80.4	67.0	5.0	1.0	
2.15	7.2424603	-1.6017209	6.2129536	38.689796	-9.335832	80.4	67.0	5.0	1.0	
2.16	7.1873937	-1.5131354	6.542156	38.689796	-9.335832	80.4	32.0	5.0	1.0	
2.17	7.123947	-1.5729905	7.03177	38.689796	-9.335832	80.4	32.0	5.0	1.0	
2.18	6.9587474	-1.7705121	7.72968	38.689796	-9.335832	80.4	32.0	5.0	1.0	
2.19	6.7205243	-1.9812019	8.286332	38.689796	-9.335832	80.4	32.0	5.0	1.0	
2.2	6.4643445	-2.0602105	8.221688	38.689796	-9.335832	80.4	32.0	5.0	1.0	
2.21	6.205771	-2.0817583	7.787141	38.689796	-9.335832	80.4	32.0	5.0	1.0	
2.22	5.973533	-2.2002714	7.3178773	38.689796	-9.335832	80.4	32.0	5.0	1.0	
2.23	5.8334723	-2.2002714	7.3178773	38.689796	-9.335832	80.4	32.0	5.0	1.0	
2.24	5.791574	-2.2158337	7.529764	38.689796	-9.335832	80.4	32.0	5.0	1.0	
2.25	5.90889	-2.1739352	7.9583263	38.689796	-9.335832	80.4	32.0	5.0	1.0	
2.2600000000000002	6.0525417	-2.0841527	7.997831	38.689796	-9.335832	80.4	32.0	5.0	1.0	
2.27	6.2165446	-1.9057846	7.4974427	38.689796	-9.335832	80.4	32.0	5.0	1.0	
2.2800000000000002	6.331466	-1.7345991	6.861782	38.689796	-9.335832	80.4	32.0	5.0	1.0	
2.29	6.4882865	-1.6292542	6.303933	38.689796	-9.335832	80.4	32.0	5.0	1.0	
2.3000000000000003	6.6630635	-1.5071499	5.8705826	38.689796	-9.335832	80.4	32.0	5.0	1.0	
2.31	6.885724	-1.271321	5.583278	38.689796	-9.335832	80.4	32.0	5.0	1.0	
2.32	7.098808	-1.0115502	5.3594203	38.689796	-9.335832	80.4	32.0	5.0	1.0	
2.33	7.4232225	-0.6931214	4.950012	38.689796	-9.335832	80.4	32.0	5.0	1.0	
2.34	7.8302364	-0.24779987	4.369418	38.689796	-9.335832	80.4	32.0	5.0	1.0	
2.35	8.321048	0.24301147	3.8127663	38.689796	-9.335832	80.4	32.0	5.0	1.0	
2.36	8.717288	0.6512229	3.371036	38.689796	-9.335832	80.4	32.0	5.0	1.0	
2.37	9.015367	1.0067618	3.0561984	38.689796	-9.335832	80.4	32.0	5.0	1.0	
2.38	9.118318	1.2485762	2.802413	38.689796	-9.335832	80.4	32.0	5.0	1.0	
2.39	9.02614	1.2892777	2.5366566	38.689796	-9.335832	80.4	32.0	5.0	1.0	
2.4	8.882488	1.2114661	2.4265234	38.689796	-9.335832	80.4	32.0	5.0	1.0	
2.41	8.910022	1.2354081	2.4947581	38.689796	-9.335832	80.4	32.0	5.0	1.0	
2.42	8.910022	1.2354081	2.4947581	38.689796	-9.335832	80.4	32.0	5.0	1.0	
2.43	9.259575	1.1432313	2.72939	38.689796	-9.335832	80.4	32.0	5.0	1.0	
2.44	9.369708	1.1073183	2.706645	38.689796	-9.335832	80.4	32.0	5.0	1.0	
2.45	9.495404	1.0163386	2.707842	38.689796	-9.335832	80.4	32.0	5.0	1.0	
2.46	9.613917	0.90141696	2.7724855	38.689796	-9.335832	80.4	32.0	5.0	1.0	
2.47	9.742006	0.7649474	2.9604304	38.689796	-9.335832	80.4	32.0	5.0	1.0	
2.48	9.812635	0.62488663	3.1603463	38.689796	-9.335832	80.4	32.0	5.0	1.0	
2.49	9.907207	0.51595044	3.2704794	38.689796	-9.335832	80.4	32.0	5.0	1.0	
2.5	10.03769	0.36990416	3.4584243	38.689796	-9.335832	80.4	32.0	5.0	1.0	
2.5100000000000002	10.139444	0.16879122	3.643975	38.689796	-9.335832	80.4	32.0	5.0	1.0	
2.52	10.316615	0.008379706	3.6966474	38.689796	-9.335832	80.4	32.0	5.0	1.0	
2.5300000000000002	10.560823	-0.01436521	3.894169	38.689796	-9.335832	80.4	32.0	5.0	1.0	
2.54	10.875661	0.007182605	4.1539397	38.689796	-9.335832	80.4	32.0	5.0	1.0	
2.5500000000000003	11.244369	0.108936176	4.164714	38.689796	-9.335832	80.4	32.0	5.0	1.0	
2.56	11.482592	0.10055647	3.9013517	38.689796	-9.335832	80.4	32.0	5.0	1.0	
2.57	11.517307	0.033518825	3.5901055	38.689796	-9.335832	80.4	32.0	5.0	1.0	
2.58	11.440693	-0.08619126	3.2249897	38.689796	-9.335832	80.4	32.0	5.0	1.0	
2.59	11.116279	-0.23343466	2.815581	38.689796	-9.335832	80.4	32.0	5.0	1.0	
2.6	10.761936	-0.32561144	2.4384944	38.689796	-9.335832	80.4	32.0	5.0	1.0	
2.61	10.418368	-0.46686932	2.183512	38.689796	-9.335832	80.4	32.0	5.0	1.0	
2.62	10.147824	-0.58418524	1.8914193	38.689796	-9.335832	80.4	32.0	5.0	1.0	
2.63	9.90601	-0.7110779	1.5251064	38.689796	-9.335832	80.4	32.0	5.0	1.0	
2.64	9.757569	-0.79966336	1.412579	38.689796	-9.335832	80.4	32.0	5.0	1.0	
2.65	9.779117	-0.676362	1.4987702	38.689796	-9.335832	80.4	32.0	5.0	1.0	
2.66	9.813833	-0.39983168	1.5777789	38.689796	-9.335832	80.4	32.0	5.0	1.0	
2.67	9.763555	-0.22625206	1.5191209	38.689796	-9.335832	80.4	32.0	5.0	1.0	
2.68	9.583989	-0.25977087	1.2856863	38.689796	-9.335832	80.4	32.0	5.0	1.0	
2.69	9.354146	-0.40462008	1.0175357	38.689796	-9.335832	80.4	32.0	5.0	1.0	
2.7	9.222465	-0.51475334	0.80684596	38.689796	-9.335832	80.4	32.0	5.0	1.0	
2.71	9.271546	-0.46926352	0.6691794	38.689796	-9.335832	80.4	32.0	5.0	1.0	
2.72	9.309854	-0.427365	0.6536171	38.689796	-9.335832	80.4	32.0	5.0	1.0	
2.73	9.369708	-0.45609543	0.70509243	38.689796	-9.335832	80.4	32.0	5.0	1.0	
2.74	9.461885	-0.44771573	0.92775315	38.689796	-9.335832	80.4	32.0	5.0	1.0	
2.75	9.544485	-0.45489833	1.423353	38.689796	-9.335832	80.4	32.0	5.0	1.0	
2.7600000000000002	9.5013895	-0.47764325	1.8902222	38.689796	-9.335832	80.4	32.0	5.0	1.0	
2.77	9.459491	-0.4213795	2.4049757	38.689796	-9.335832	80.4	32.0	5.0	1.0	
2.7800000000000002	9.379285	-0.37828386	2.8514943	38.689796	-9.335832	80.4	32.0	5.0	1.0	
2.79	9.241618	-0.39384618	2.943671	38.689796	-9.335832	80.4	32.0	5.0	1.0	
2.8000000000000003	9.022549	-0.39983168	2.634819	38.689796	-9.335832	80.4	32.0	5.0	1.0	
2.81	8.823831	-0.4381389	2.2050598	38.689796	-9.335832	80.4	32.0	5.0	1.0	
2.82	8.773552	-0.34356794	1.7764976	38.689796	-9.335832	80.4	32.0	5.0	1.0	
2.83	8.768764	-0.17477672	1.5191209	38.689796	-9.335832	80.4	32.0	5.0	1.0	
2.84	8.798691	0.050278235	1.436521	38.689796	-9.335832	80.4	32.0	5.0	1.0	
2.85	8.895657	0.30765492	1.412579	38.689796	-9.335832	80.4	32.0	5.0	1.0	
2.86	9.093178	0.5470751	1.3311762	38.689796	-9.335832	80.4	32.0	5.0	1.0	
2.87	9.25359	0.78170687	1.2078748	38.689796	-9.335832	80.4	32.0	5.0	1.0	
2.88	9.324219	0.94211835	1.1180922	38.689796	-9.335832	80.4	32.0	5.0	1.0	
2.89	9.287108	0.9588778	1.2629414	38.689796	-9.335832	80.4	32.0	5.0	1.0	
2.9	9.109938	0.736217	1.6687586	38.689796	-9.335832	80.4	32.0	5.0	1.0	
2.91	8.995016	0.58298814	1.8148049	38.689796	-9.335832	80.4	32.0	5.0	1.0	
2.92	8.938752	0.5530606	1.9416976	38.689796	-9.335832	80.4	32.0	5.0	1.0	
2.93	8.968679	0.63087213	2.079364	38.689796	-9.335832	80.4	32.0	5.0	1.0	
2.94	9.065644	0.7338228	2.1272483	38.689796	-9.335832	80.4	32.0	5.0	1.0	
2.95	9.241618	0.8355764	2.1679497	38.689796	-9.335832	80.4	32.0	5.0	1.0	
2.96	9.552865	0.94930094	2.19668	38.689796	-9.335832	80.4	32.0	5.0	1.0	
2.97	9.844957	1.1025299	2.0709844	38.689796	-9.335832	80.4	32.0	5.0	1.0	
2.98	10.146626	1.210269	1.9045875	38.689796	-9.335832	80.4	32.0	5.0	1.0	
2.99	10.382456	1.2366052	1.8387469	38.689796	-9.335832	80.4	32.0	5.0	1.0	
3.0	10.579977	1.2126632	1.8028339	38.689796	-9.335832	80.4	32.0	5.0	1.0	
3.0100000000000002	10.741586	1.1492168	1.6891093	38.689796	-9.335832	80.4	32.0	5.0	1.0	
3.02	10.813412	0.973243	1.7070658	38.689796	-9.335832	80.4	32.0	5.0	1.0	
3.0300000000000002	10.868479	0.80684596	1.7178397	38.689796	-9.335832	80.4	32.0	5.0	1.0	
3.04	10.939108	0.7254431	1.899799	38.689796	-9.335832	80.4	32.0	5.0	1.0	
3.0500000000000003	11.104307	0.7158663	2.0961237	38.689796	-9.335832	80.4	32.0	5.0	1.0	
3.06	11.206061	0.7326257	2.135628	38.689796	-9.335832	80.4	32.0	5.0	1.0	
3.0700000000000003	11.200075	0.7697359	2.1547816	38.689796	-9.335832	80.4	32.0	5.0	1.0	
3.08	11.087548	0.724246	2.2780828	38.689796	-9.335832	80.4	32.0	5.0	1.0	
3.09	10.957064	0.6512229	2.4720132	38.689796	-9.335832	80.4	32.0	5.0	1.0	
3.1	10.790668	0.46806642	2.6779146	38.689796	-9.335832	80.4	29.0	5.0	1.0	
3.11	10.630256	0.25977087	2.883816	38.689796	-9.335832	80.4	29.0	5.0	1.0	
3.12	10.420763	0.089782566	2.8814218	38.689796	-9.335832	80.4	29.0	5.0	1.0	
3.13	10.21965	-0.033518825	2.7246015	38.689796	-9.335832	80.4	29.0	5.0	1.0	
3.14	10.070012	-0.059855044	2.5091233	38.689796	-9.335832	80.4	29.0	5.0	1.0	
3.15	9.913192	-0.09935937	2.3211784	38.689796	-9.335832	80.4	29.0	5.0	1.0	
3.16	9.757569	-0.18076223	2.1332338	38.689796	-9.335832	80.4	29.0	5.0	1.0	
3.17	9.653421	-0.35913026	2.043451	38.689796	-9.335832	80.4	29.0	5.0	1.0	
3.18	9.633071	-0.59855044	2.2002714	38.689796	-9.335832	80.4	29.0	5.0	1.0	
3.19	9.660604	-0.866701	2.3930047	38.689796	-9.335832	80.4	29.0	5.0	1.0	
3.2	9.739613	-1.0618285	2.4995465	38.689796	-9.335832	80.4	29.0	5.0	1.0	
3.21	9.828198	-1.1791444	2.7353754	38.689796	-9.335832	80.4	29.0	5.0	1.0	
3.22	9.828198	-1.1791444	2.7353754	38.689796	-9.335832	80.4	29.0	5.0	1.0	
3.23	9.91798	-1.1168951	3.3554738	38.689796	-9.335832	80.4	29.0	5.0	1.0	
3.24	9.920375	-1.1168951	3.3554738	38.689796	-9.335832	80.4	29.0	5.0	1.0	
3.25	9.865308	-1.1121067	3.4392707	38.689796	-9.335832	80.4	29.0	5.0	1.0	
3.2600000000000002	9.6845455	-1.2006922	3.3542767	38.689796	-9.335832	80.4	29.0	5.0	1.0	
3.27	9.471462	-1.376666	3.1232362	38.689796	-9.335832	80.4	29.0	5.0	1.0	
3.2800000000000002	9.295488	-1.5442601	3.0310593	38.689796	-9.335832	80.4	29.0	5.0	1.0	
3.29	9.251195	-1.7130513	2.9233203	38.689796	-9.335832	80.4	29.0	5.0	1.0	
3.3000000000000003	9.222465	-1.8555063	2.822764	38.689796	-9.335832	80.4	29.0	5.0	1.0	
3.31	9.291897	-1.9285295	2.7365725	38.689796	-9.335832	80.4	29.0	5.0	1.0	
3.3200000000000003	9.548077	-1.9405005	2.7042508	38.689796	-9.335832	80.4	29.0	5.0	1.0	
3.33	9.840169	-1.8794483	2.7269957	38.689796	-9.335832	80.4	29.0	5.0	1.0	
3.34	10.047267	-1.7944542	2.815581	38.689796	-9.335832	80.4	29.0	5.0	1.0	
3.35	10.084377	-1.7645266	3.1639376	38.689796	-9.335832	80.4	29.0	5.0	1.0	
3.36	10.103531	-1.7932571	3.8510735	38.689796	-9.335832	80.4	29.0	5.0	1.0	
3.37	10.0029745	-1.7836803	4.156334	38.689796	-9.335832	80.4	29.0	5.0	1.0	
3.38	9.569624	-1.1815386	3.301604	38.689796	-9.335832	80.4	29.0	5.0	1.0	
3.39	9.406818	-0.5805939	2.6264393	38.689796	-9.335832	80.4	29.0	5.0	1.0	
3.4	9.197326	-0.031124622	1.8914193	38.689796	-9.335832	80.4	29.0	5.0	1.0	
3.41	8.917204	0.3854665	1.2593501	38.689796	-9.335832	80.4	29.0	5.0	1.0	
3.42	8.505402	0.7553706	0.7541735	38.689796	-9.335832	80.4	29.0	5.0	1.0	
3.43	7.9248075	1.1623849	0.33159694	38.689796	-9.335832	80.4	29.0	5.0	1.0	
3.44	7.297527	1.4628572	0.01316811	38.689796	-9.335832	80.4	29.0	5.0	1.0	
3.45	6.7863646	1.567005	-0.20709845	38.689796	-9.335832	80.4	29.0	5.0	1.0	
3.46	6.519411	1.4030021	-0.32441434	38.689796	-9.335832	80.4	29.0	5.0	1.0	
3.47	6.3709707	1.043872	-0.23223756	38.689796	-9.335832	80.4	29.0	5.0	1.0	
3.48	6.3446345	0.59855044	0.5554548	38.689796	-9.335832	80.4	29.0	5.0	1.0	
3.49	6.862979	0.39624038	2.267309	38.689796	-9.335832	80.4	29.0	5.0	1.0	
3.5	7.4471645	0.48482585	3.9564183	38.689796	-9.335832	80.4	29.0	5.0	1.0	
3.5100000000000002	7.8589673	0.2885013	4.894945	38.689796	-9.335832	80.4	29.0	5.0	1.0	
3.52	8.323442	-0.22026655	4.97156	38.689796	-9.335832	80.4	29.0	5.0	1.0	
3.5300000000000002	8.980651	-0.63206923	4.56694	38.689796	-9.335832	80.4	29.0	5.0	1.0	
3.54	9.800665	-0.5398925	4.31076	38.689796	-9.335832	80.4	29.0	5.0	1.0	
3.5500000000000003	10.588357	-0.10654198	4.449624	38.689796	-9.335832	80.4	29.0	5.0	1.0	
3.56	11.282676	0.45370123	4.5741224	38.689796	-9.335832	80.4	29.0	5.0	1.0	
3.5700000000000003	11.675324	0.94451255	4.486734	38.689796	-9.335832	80.4	29.0	5.0	1.0	
3.58	11.808203	1.1791444	4.344279	38.689796	-9.335832	80.4	29.0	5.0	1.0	
3.59	11.584345	1.151611	4.6220064	38.689796	-9.335832	80.4	29.0	5.0	1.0	
3.6	10.97502	0.7074866	5.153519	38.689796	-9.335832	80.4	29.0	5.0	1.0	
3.61	10.116699	0.093373865	5.697003	38.689796	-9.335832	80.4	29.0	5.0	1.0	
3.62	8.986636	-0.60214174	6.0956373	38.689796	-9.335832	80.4	29.0	5.0	1.0	
3.63	7.8865004	-1.365892	5.864597	38.689796	-9.335832	80.4	29.0	5.0	1.0	
3.64	7.0904284	-1.8243817	4.88058	38.689796	-9.335832	80.4	29.0	5.0	1.0	
3.65	6.7025676	-1.7286136	3.739743	38.689796	-9.335832	80.4	29.0	5.0	1.0	
3.66	6.7253127	-1.2844892	2.908955	38.689796	-9.335832	80.4	29.0	5.0	1.0	
3.67	6.9826894	-0.6859388	2.3080103	38.689796	-9.335832	80.4	29.0	5.0	1.0	
3.68	7.327454	-0.016759412	1.8052281	38.689796	-9.335832	80.4	29.0	5.0	1.0	
3.69	7.7548194	0.7026982	1.6460136	38.689796	-9.335832	80.4	29.0	5.0	1.0	
3.7	8.110358	1.2749124	1.7968484	38.689796	-9.335832	80.4	29.0	5.0	1.0	
3.71	8.130709	1.5502456	1.863886	38.689796	-9.335832	80.4	29.0	5.0	1.0	
3.72	8.112753	1.2018893	2.1272483	38.689796	-9.335832	80.4	29.0	5.0	1.0	
3.73	8.080431	0.90859956	2.6515784	38.689796	-9.335832	80.4	29.0	5.0	1.0	
3.74	7.6626425	0.6488287	2.9113493	38.689796	-9.335832	80.4	29.0	5.0	1.0	
3.75	7.4327993	0.46926352	3.229778	38.689796	-9.335832	80.4	29.0	5.0	1.0	
3.7600000000000002	7.5309615	0.56982	3.6523547	38.689796	-9.335832	80.4	29.0	5.0	1.0	
3.77	7.7931266	0.92895025	3.9217024	38.689796	-9.335832	80.4	29.0	5.0	1.0	
3.7800000000000002	8.032547	1.1791444	3.964798	38.689796	-9.335832	80.4	29.0	5.0	1.0	
3.79	8.170214	1.353921	3.86903	38.689796	-9.335832	80.4	29.0	5.0	1.0	
3.8000000000000003	8.503007	1.5298948	3.643975	38.689796	-9.335832	80.4	29.0	5.0	1.0	
3.81	9.065644	1.9381063	3.526659	38.689796	-9.335832	80.4	29.0	5.0	1.0	
3.8200000000000003	9.648633	2.542642	3.7612908	38.689796	-9.335832	80.4	29.0	5.0	1.0	
3.83	9.884461	2.906561	4.1455603	38.689796	-9.335832	80.4	29.0	5.0	1.0	
3.84	9.817424	2.8766334	4.748899	38.689796	-9.335832	80.4	29.0	5.0	1.0	
3.85	9.337387	2.3355439	5.1810527	38.689796	-9.335832	80.4	29.0	5.0	1.0	
3.86	9.059659	2.0003555	5.631162	38.689796	-9.335832	80.4	29.0	5.0	1.0	
3.87	8.956709	1.9081788	5.849035	38.689796	-9.335832	80.4	29.0	5.0	1.0	
3.88	8.973468	2.0566192	5.9639564	38.689796	-9.335832	80.4	29.0	5.0	1.0	
3.89	8.9124155	2.2900538	5.8322754	38.689796	-9.335832	80.4	29.0	5.0	1.0	
3.9	8.900445	2.469619	5.896919	38.689796	-9.335832	80.4	29.0	5.0	1.0	
3.91	8.969876	2.3211784	5.997475	38.689796	-9.335832	80.4	29.0	5.0	1.0	
3.92	9.136273	1.7381904	6.0848637	38.689796	-9.335832	80.4	29.0	5.0	1.0	
3.93	9.2907	0.58538234	5.895722	38.689796	-9.335832	80.4	29.0	5.0	1.0	
3.94	9.591172	-0.641646	5.577293	38.689796	-9.335832	80.4	29.0	5.0	1.0	
3.95	10.324995	-1.2162545	5.9771247	38.689796	-9.335832	80.4	29.0	5.0	1.0	
3.96	11.356895	-1.2378023	6.8809357	38.689796	-9.335832	80.4	29.0	5.0	1.0	
3.97	12.496535	-1.103727	7.813477	38.689796	-9.335832	80.4	29.0	5.0	1.0	
3.98	13.482946	-0.92176765	8.511387	38.689796	-9.335832	80.4	29.0	5.0	1.0	
3.99	14.103045	-0.6907272	8.797494	38.689796	-9.335832	80.4	29.0	5.0	1.0	
4.0	14.285005	-0.41060558	8.799889	38.689796	-9.335832	80.4	29.0	5.0	1.0	
4.01	14.074315	-0.11133038	8.702923	38.689796	-9.335832	80.4	29.0	5.0	1.0	
4.0200000000000005	13.572729	0.16879122	8.553286	38.689796	-9.335832	80.4	29.0	5.0	1.0	
4.03	12.678495	0.25617957	8.139089	38.689796	-9.335832	80.4	29.0	5.0	1.0	
4.04	11.683704	0.25737667	7.603985	38.689796	-9.335832	80.4	29.0	5.0	1.0	
4.05	10.564415	0.19991584	7.1514807	38.689796	-9.335832	80.4	29.0	5.0	1.0	
4.0600000000000005	9.458294	-0.090979666	6.6726403	38.689796	-9.335832	80.4	29.0	5.0	1.0	
4.07	8.495825	-0.36750996	6.2608376	38.689796	-9.335832	80.4	29.0	5.0	1.0	
4.08	7.5094137	-0.770933	5.819107	38.689796	-9.335832	80.4	29.0	5.0	1.0	
4.09	6.657078	-1.3132197	5.473145	38.689796	-9.335832	80.4	29.0	5.0	1.0	
4.1	5.9867015	-1.7561469	5.5988407	38.689796	-9.335832	80.4	29.0	5.0	1.0	
4.11	5.4288526	-2.2888567	5.7005944	38.689796	-9.335832	80.4	29.0	5.0	1.0	
4.12	4.855441	-2.846706	5.604826	38.689796	-9.335832	80.4	29.0	5.0	1.0	
4.13	4.337096	-3.3039982	5.410896	38.689796	-9.335832	80.4	29.0	5.0	1.0	
4.14	4.167108	-3.4500446	5.351041	38.689796	-9.335832	80.4	29.0	5.0	1.0	
4.15	4.1659107	-3.4392707	5.2768207	38.689796	-9.335832	80.4	29.0	5.0	1.0	
4.16	4.3275194	-3.3674448	5.0421886	38.689796	-9.335832	80.4	65.0	5.0	1.0	
4.17	4.572925	-3.2429461	5.0062757	38.689796	-9.335832	80.4	65.0	5.0	1.0	
4.18	5.0362034	-3.110068	5.237316	38.689796	-9.335832	80.4	65.0	5.0	1.0	
4.19	5.638345	-2.9137435	5.5030727	38.689796	-9.335832	80.4	65.0	5.0	1.0	
4.2	6.293159	-2.622848	5.9064956	38.689796	-9.335832	80.4	65.0	5.0	1.0	
4.21	6.9587474	-2.3092074	6.4308257	38.689796	-9.335832	80.4	65.0	5.0	1.0	
4.22	6.9587474	-2.3092074	6.4308257	38.689796	-9.335832	80.4	65.0	5.0	1.0	
4.23	7.811083	-1.8543092	7.5213847	38.689796	-9.335832	80.4	65.0	5.0	1.0	
4.24	8.012196	-1.7932571	7.5213847	38.689796	-9.335832	80.4	65.0	5.0	1.0	
4.25	8.090008	-1.9033904	7.5106106	38.689796	-9.335832	80.4	65.0	5.0	1.0	
4.26	8.074445	-2.0242975	7.313089	38.689796	-9.335832	80.4	65.0	5.0	1.0	
4.2700000000000005	8.032547	-2.1140802	7.1706343	38.689796	-9.335832	80.4	65.0	5.0	1.0	
4.28	8.084022	-2.0638018	7.028179	38.689796	-9.335832	80.4	65.0	5.0	1.0	
4.29	8.276755	-1.8483237	6.909666	38.689796	-9.335832	80.4	65.0	5.0	1.0	
4.3	8.564059	-1.5143325	6.884527	38.689796	-9.335832	80.4	65.0	5.0	1.0	
4.3100000000000005	8.809465	-1.2282255	6.847417	38.689796	-9.335832	80.4	65.0	5.0	1.0	
4.32	8.841787	-1.0761937	6.658275	38.689796	-9.335832	80.4	65.0	5.0	1.0	
4.33	8.555679	-1.1001357	6.6486983	38.689796	-9.335832	80.4	65.0	5.0	1.0	
4.34	8.512584	-1.0582372	6.7360864	38.689796	-9.335832	80.4	65.0	5.0	1.0	
4.3500000000000005	8.471883	-0.92416185	6.731298	38.689796	-9.335832	80.4	65.0	5.0	1.0	
4.36	8.39048	-0.90979666	6.6067996	38.689796	-9.335832	80.4	65.0	5.0	1.0	
4.37	8.346188	-0.91578215	6.5565214	38.689796	-9.335832	80.4	65.0	5.0	1.0	
4.38	8.317456	-0.94211835	6.5589156	38.689796	-9.335832	80.4	65.0	5.0	1.0	
4.39	8.412027	-0.8355764	6.469133	38.689796	-9.335832	80.4	65.0	5.0	1.0	
4.4	8.4587145	-0.7326257	6.2464724	38.689796	-9.335832	80.4	65.0	5.0	1.0	
4.41	8.4647	-0.79128367	6.0345855	38.689796	-9.335832	80.4	65.0	5.0	1.0	
4.42	8.541314	-0.8798691	6.0980315	38.689796	-9.335832	80.4	65.0	5.0	1.0	
4.43	8.726865	-0.8858546	6.254852	38.689796	-9.335832	80.4	65.0	5.0	1.0	
4.44	8.820239	-0.89303726	6.1243677	38.689796	-9.335832	80.4	65.0	5.0	1.0	
4.45	8.866926	-0.9876082	5.8813562	38.689796	-9.335832	80.4	65.0	5.0	1.0	
4.46	8.820239	-1.1109096	5.828684	38.689796	-9.335832	80.4	65.0	5.0	1.0	
4.47	8.850166	-1.2425907	5.7736173	38.689796	-9.335832	80.4	65.0	5.0	1.0	
4.48	8.911219	-1.3156139	5.7867856	38.689796	-9.335832	80.4	65.0	5.0	1.0	
4.49	8.991425	-1.3323733	5.8801594	38.689796	-9.335832	80.4	65.0	5.0	1.0	
4.5	9.094376	-1.3515269	5.9867015	38.689796	-9.335832	80.4	65.0	5.0	1.0	
4.51	9.271546	-1.3623008	6.090849	38.689796	-9.335832	80.4	65.0	5.0	1.0	
4.5200000000000005	9.363723	-1.4508862	6.1327477	38.689796	-9.335832	80.4	65.0	5.0	1.0	
4.53	9.502586	-1.6484078	6.0022635	38.689796	-9.335832	80.4	65.0	5.0	1.0	
4.54	9.868899	-1.7705121	5.9364233	38.689796	-9.335832	80.4	65.0	5.0	1.0	
4.55	10.45907	-1.8267759	5.9878983	38.689796	-9.335832	80.4	65.0	5.0	1.0	
4.5600000000000005	11.098322	-1.7705121	6.1650696	38.689796	-9.335832	80.4	65.0	5.0	1.0	
4.57	11.628637	-1.5646108	6.506243	38.689796	-9.335832	80.4	65.0	5.0	1.0	
4.58	11.930307	-1.2773066	7.0964136	38.689796	-9.335832	80.4	65.0	5.0	1.0	
4.59	11.869255	-1.1001357	7.5644803	38.689796	-9.335832	80.4	65.0	5.0	1.0	
4.6000000000000005	11.344925	-1.2868834	7.6482773	38.689796	-9.335832	80.4	65.0	5.0	1.0	
4.61	10.382456	-1.8770541	7.4375877	38.689796	-9.335832	80.4	65.0	5.0	1.0	
4.62	9.266758	-2.6970682	6.992266	38.689796	-9.335832	80.4	65.0	5.0	1.0	
4.63	8.395268	-3.3961751	6.43322	38.689796	-9.335832	80.4	65.0	5.0	1.0	
4.64	7.7320743	-3.9312792	5.852626	38.689796	-9.335832	80.4	65.0	5.0	1.0	
4.65	7.323863	-4.31914	5.3366756	38.689796	-9.335832	80.4	65.0	5.0	1.0	
4.66	7.2699933	-4.2281604	5.1583076	38.689796	-9.335832	80.4	65.0	5.0	1.0	
4.67	7.4028716	-3.8391025	4.9943047	38.689796	-9.335832	80.4	65.0	5.0	1.0	
4.68	7.338228	-3.50152	4.6244006	38.689796	-9.335832	80.4	65.0	5.0	1.0	
4.69	7.041347	-3.3375173	3.989937	38.689796	-9.335832	80.4	65.0	5.0	1.0	
4.7	6.5744777	-3.2070332	3.3518825	38.689796	-9.335832	80.4	65.0	5.0	1.0	
4.71	6.1411276	-3.015497	2.6886885	38.689796	-9.335832	80.4	65.0	5.0	1.0	
4.72	5.813122	-2.7593174	2.1428106	38.689796	-9.335832	80.4	65.0	5.0	1.0	
4.73	5.683835	-2.468422	1.7992426	38.689796	-9.335832	80.4	65.0	5.0	1.0	
4.74	5.673061	-2.1894975	1.471237	38.689796	-9.335832	80.4	65.0	5.0	1.0	
4.75	5.910087	-1.8171991	1.5765818	38.689796	-9.335832	80.4	65.0	5.0	1.0	
4.76	6.157887	-1.459266	2.067393	38.689796	-9.335832	80.4	65.0	5.0	1.0	
4.7700000000000005	6.51582	-1.2533646	2.4037786	38.689796	-9.335832	80.4	65.0	5.0	1.0	
4.78	6.9144545	-1.1001357	2.813187	38.689796	-9.335832	80.4	65.0	5.0	1.0	
4.79	7.941567	-0.91578215	4.0581717	38.689796	-9.335832	80.4	65.0	5.0	1.0	
4.8	8.467094	-0.92655605	4.6722846	38.689796	-9.335832	80.4	65.0	5.0	1.0	
4.8100000000000005	8.816648	-0.842759	5.305551	38.6898	-9.335827	80.4	65.0	5.0	1.0	
4.82	9.096769	-0.6691794	5.7784057	38.6898	-9.335827	80.4	65.0	5.0	1.0	
4.83	9.240421	-0.45848963	6.2009826	38.6898	-9.335827	80.4	65.0	5.0	1.0	
4.84	9.296685	-0.14963761	7.0006456	38.6898	-9.335827	80.4	65.0	5.0	1.0	
4.8500000000000005	9.296685	-0.14963761	7.0006456	38.6898	-9.335827	80.4	65.0	5.0	1.0	
4.86	9.054871	-0.076614454	7.228095	38.6898	-9.335827	80.4	65.0	5.0	1.0	
4.87	8.722076	-0.11971009	7.121553	38.6898	-9.335827	80.4	65.0	5.0	1.0	
4.88	8.389283	-0.2801216	6.8007298	38.6898	-9.335827	80.4	65.0	5.0	1.0	
4.89	8.198944	-0.35194764	6.6486983	38.6898	-9.335827	80.4	65.0	5.0	1.0	
4.9	8.1163435	-0.4441244	6.564901	38.6898	-9.335827	80.4	65.0	5.0	1.0	
4.91	8.110358	-0.4309563	6.623559	38.6898	-9.335827	80.4	65.0	5.0	1.0	
4.92	8.124723	-0.4237737	6.6534867	38.6898	-9.335827	80.4	65.0	5.0	1.0	
4.93	8.104373	-0.39624038	6.6534867	38.6898	-9.335827	80.4	65.0	5.0	1.0	
4.94	8.003817	-0.439336	6.5816603	38.6898	-9.335827	80.4	65.0	5.0	1.0	
4.95	7.904457	-0.47405192	6.4308257	38.6898	-9.335827	80.4	65.0	5.0	1.0	
4.96	7.7847466	-0.4249708	6.2991447	38.6898	-9.335827	80.4	65.0	5.0	1.0	
4.97	7.6949644	-0.40102878	5.9639564	38.6898	-9.335827	80.4	65.0	5.0	1.0	
4.98	7.5572977	-0.36990416	5.6299653	38.6898	-9.335827	80.4	65.0	5.0	1.0	
4.99	7.428011	-0.34715924	5.3378725	38.6898	-9.335827	80.4	65.0	5.0	1.0	
5.0	7.3298483	-0.21906945	5.2037973	38.6898	-9.335827	80.4	65.0	5.0	1.0	
5.01	7.265205	-0.073023155	5.2480903	38.6898	-9.335827	80.4	65.0	5.0	1.0	
5.0200000000000005	7.20535	-0.029927522	5.424064	38.6898	-9.335827	80.4	65.0	5.0	1.0	
5.03	7.249643	-0.011971008	5.729325	38.6898	-9.335827	80.4	65.0	5.0	1.0	
5.04	7.2544312	0.005985504	5.896919	38.6898	-9.335827	80.4	65.0	5.0	1.0	
5.05	7.1993647	-0.01316811	5.955577	38.6898	-9.335827	80.4	65.0	5.0	1.0	
5.0600000000000005	7.0784574	-0.08619126	6.1423244	38.6898	-9.335827	80.4	65.0	5.0	1.0	
5.07	6.9120603	-0.21906945	6.4032927	38.6898	-9.335827	80.4	65.0	5.0	1.0	
5.08	6.8522053	-0.33159694	6.691794	38.6898	-9.335827	80.4	65.0	5.0	1.0	
5.09	6.8127007	-0.39983168	6.9144545	38.6898	-9.335827	80.4	65.0	5.0	1.0	
5.1000000000000005	6.7971387	-0.33758244	7.03177	38.6898	-9.335827	80.4	65.0	5.0	1.0	
5.11	6.803124	-0.19871874	7.1526775	38.6898	-9.335827	80.4	65.0	5.0	1.0	
5.12	6.811504	-0.09696517	7.243657	38.6898	-9.335827	80.4	65.0	5.0	1.0	
5.13	6.8665705	0.12808979	7.3346367	38.6898	-9.335827	80.4	65.0	5.0	1.0	
5.14	6.767211	0.31124622	7.3047094	38.6898	-9.335827	80.4	65.0	5.0	1.0	
5.15	6.578069	0.35673606	7.1371155	38.6898	-9.335827	80.4	65.0	5.0	1.0	
5.16	6.3338604	0.4141969	7.091625	38.6898	-9.335827	80.4	65.0	5.0	1.0	
5.17	6.157887	0.5494693	6.977901	38.6898	-9.335827	80.4	65.0	5.0	1.0	
5.18	6.0836663	0.7015011	6.853402	38.6898	-9.335827	80.4	65.0	5.0	1.0	
5.19	6.0238113	0.89184016	6.9647326	38.6898	-9.335827	80.4	65.0	5.0	1.0	
5.2	5.9543796	1.0702082	7.28795	38.6898	-9.335827	80.4	65.0	5.0	1.0	
5.21	5.791574	1.2174516	7.285556	38.6898	-9.335827	80.4	96.0	5.0	1.0	
5.22	5.427655	1.1611878	7.3657618	38.6898	-9.335827	80.4	96.0	5.0	1.0	
5.23	5.08289	1.1611878	7.3657618	38.6898	-9.335827	80.4	96.0	5.0	1.0	
5.24	5.0242324	1.1336545	7.750031	38.6898	-9.335827	80.4	96.0	5.0	1.0	
5.25	5.1690817	1.1815386	8.475474	38.6898	-9.335827	80.4	96.0	5.0	1.0	
5.26	5.279215	1.2210429	9.074024	38.6898	-9.335827	80.4	96.0	5.0	1.0	
5.2700000000000005	5.2265425	1.1887212	10.356119	38.6898	-9.335827	80.4	96.0	5.0	1.0	
5.28	5.046977	1.1252748	10.9834	38.6898	-9.335827	80.4	96.0	5.0	1.0	
5.29	4.6926355	1.0354922	11.133038	38.6898	-9.335827	80.4	96.0	5.0	1.0	
5.3	4.3143516	1.0630256	10.961852	38.6898	-9.335827	80.4	96.0	5.0	1.0	
5.3100000000000005	3.9240966	1.1013328	10.420763	38.6898	-9.335827	80.4	96.0	5.0	1.0	
5.32	3.5661635	1.1085154	9.572019	38.6898	-9.335827	80.4	96.0	5.0	1.0	
5.33	3.2273839	1.1827357	8.683769	38.6898	-9.335827	80.4	96.0	5.0	1.0	
5.34	3.052607	1.3000516	8.128315	38.6898	-9.335827	80.4	96.0	5.0	1.0	
5.3500000000000005	3.0059202	1.4748282	8.1319065	38.6898	-9.335827	80.4	96.0	5.0	1.0	
5.36	3.1543608	1.555034	8.540117	38.6898	-9.335827	80.4	96.0	5.0	1.0	
5.37	3.3506854	1.7034745	9.099164	38.6898	-9.335827	80.4	96.0	5.0	1.0	
5.38	3.3925838	1.7753005	9.467871	38.6898	-9.335827	80.4	96.0	5.0	1.0	
5.39	3.3614593	1.7537527	9.464279	38.6898	-9.335827	80.4	96.0	5.0	1.0	
5.4	3.2309752	1.7944542	9.423578	38.6898	-9.335827	80.4	96.0	5.0	1.0	
5.41	2.9903579	1.7262194	9.449914	38.6898	-9.335827	80.4	96.0	5.0	1.0	
5.42	2.7006595	1.602918	9.671378	38.6898	-9.335827	80.4	96.0	5.0	1.0	
5.43	2.48159	1.5370775	9.974244	38.6898	-9.335827	80.4	96.0	5.0	1.0	
5.44	2.2421699	1.4772224	10.127473	38.6898	-9.335827	80.4	96.0	5.0	1.0	
5.45	2.0087352	1.4305356	9.904813	38.6898	-9.335827	80.4	96.0	5.0	1.0	
5.46	1.733402	1.3730747	9.572019	38.6898	-9.335827	80.4	96.0	5.0	1.0	
5.47	1.4628572	1.316811	9.234436	38.6898	-9.335827	80.4	96.0	5.0	1.0	
5.48	1.2545617	1.3251907	8.857349	38.6898	-9.335827	80.4	96.0	5.0	1.0	
5.49	1.0618285	1.2988545	8.550891	38.6898	-9.335827	80.4	96.0	5.0	1.0	
5.5	0.9935937	1.2892777	8.550891	38.6898	-9.335827	80.4	96.0	5.0	1.0	
5.51	1.0977415	1.3132197	8.6334915	38.6898	-9.335827	80.4	96.0	5.0	1.0	
5.5200000000000005	1.2473791	1.4137762	8.834604	38.6898	-9.335827	80.4	96.0	5.0	1.0	
5.53	1.3742718	1.5777789	9.065644	38.6898	-9.335827	80.4	96.0	5.0	1.0	
5.54	1.4030021	1.6364368	9.039309	38.6898	-9.335827	80.4	96.0	5.0	1.0	
5.55	1.3215994	1.6124948	9.053674	38.6898	-9.335827	80.4	96.0	5.0	1.0	
5.5600000000000005	1.1480197	1.6101006	9.269152	38.6898	-9.335827	80.4	96.0	5.0	1.0	
5.57	1.0726024	1.5705963	9.476251	38.6898	-9.335827	80.4	96.0	5.0	1.0	
5.58	1.0019734	1.5526398	9.593566	38.6898	-9.335827	80.4	96.0	5.0	1.0	
5.59	0.94810385	1.6053122	9.609129	38.6898	-9.335827	80.4	96.0	5.0	1.0	
5.6000000000000005	0.89543146	1.6244658	9.357738	38.6898	-9.335827	80.4	96.0	5.0	1.0	
5.61	0.78290397	1.6531962	9.02614	38.6898	-9.335827	80.4	96.0	5.0	1.0	
5.62	0.7673417	1.7549498	8.811859	38.6898	-9.335827	80.4	96.0	5.0	1.0	
5.63	0.94092125	1.9081788	8.759187	38.6898	-9.335827	80.4	96.0	5.0	1.0	
5.64	1.0522517	2.0338743	9.070433	38.6898	-9.335827	80.4	96.0	5.0	1.0	
5.65	1.1683705	2.1440077	9.390059	38.6898	-9.335827	80.4	96.0	5.0	1.0	
5.66	1.0749966	2.1200657	9.281123	38.6898	-9.335827	80.4	96.0	5.0	1.0	
5.67	0.91338795	2.0853498	8.876503	38.6898	-9.335827	80.4	96.0	5.0	1.0	
5.68	0.7613561	2.0757728	8.524555	38.6898	-9.335827	80.4	96.0	5.0	1.0	
5.69	0.56982	2.055422	8.335413	38.6898	-9.335827	80.4	96.0	5.0	1.0	
5.7	0.5303157	2.0362685	8.546103	38.6898	-9.335827	80.4	96.0	5.0	1.0	
5.71	0.5315128	1.9692309	8.872911	38.6898	-9.335827	80.4	96.0	5.0	1.0	
5.72	0.61530983	1.9764135	9.105149	38.6898	-9.335827	80.4	96.0	5.0	1.0	
5.73	0.6440403	2.0326772	9.326612	38.6898	-9.335827	80.4	96.0	5.0	1.0	
5.74	0.5291186	1.9033904	9.249998	38.6898	-9.335827	80.4	96.0	5.0	1.0	
5.75	0.58538234	1.9189527	9.339781	38.6898	-9.335827	80.4	96.0	5.0	1.0	
5.76	0.78529817	2.078167	9.508572	38.6898	-9.335827	80.4	96.0	5.0	1.0	
5.7700000000000005	0.80325466	2.1535845	9.362526	38.6898	-9.335827	80.4	96.0	5.0	1.0	
5.78	0.7146692	2.1523874	8.956709	38.6898	-9.335827	80.4	96.0	5.0	1.0	
5.79	0.545878	2.148796	8.6299	38.6898	-9.335827	80.4	96.0	5.0	1.0	
5.8	0.44891283	2.1296425	8.379706	38.6898	-9.335827	80.4	96.0	5.0	1.0	
5.8100000000000005	0.5530606	2.1918917	8.37013	38.6898	-9.335827	80.4	96.0	5.0	1.0	
5.82	0.8750807	2.3451207	8.534132	38.6898	-9.335827	80.4	96.0	5.0	1.0	
5.83	0.9983821	2.4109612	8.7532015	38.6898	-9.335827	80.4	96.0	5.0	1.0	
5.84	0.9564836	2.3546975	8.742428	38.6898	-9.335827	80.4	96.0	5.0	1.0	
5.8500000000000005	0.81761986	2.3116016	8.678981	38.6898	-9.335827	80.4	96.0	5.0	1.0	
5.86	0.6631939	2.2266076	8.60117	38.6898	-9.335827	80.4	96.0	5.0	1.0	
5.87	0.62847793	2.1918917	8.549694	38.6898	-9.335827	80.4	96.0	5.0	1.0	
5.88	0.724246	2.1799207	8.669404	38.6898	-9.335827	80.4	96.0	5.0	1.0	
5.89	0.9840169	2.2385786	8.916007	38.6898	-9.335827	80.4	96.0	5.0	1.0	
5.9	1.2186487	2.2996306	9.279925	38.6898	-9.335827	80.4	96.0	5.0	1.0	
5.91	1.3910311	2.2996306	9.478644	38.6898	-9.335827	80.4	96.0	5.0	1.0	
5.92	1.3383588	2.1787236	9.653421	38.6898	-9.335827	80.4	96.0	5.0	1.0	
5.93	1.2617443	1.9788077	9.958682	38.6898	-9.335827	80.4	96.0	5.0	1.0	
5.94	1.2952632	1.8722657	10.210073	38.6898	-9.335827	80.4	96.0	5.0	1.0	
5.95	1.3299791	1.7788919	10.261548	38.6898	-9.335827	80.4	96.0	5.0	1.0	
5.96	1.3467385	1.7178397	10.1861315	38.6898	-9.335827	80.4	96.0	5.0	1.0	
5.97	1.2306197	1.6196774	9.774328	38.6898	-9.335827	80.4	96.0	5.0	1.0	
5.98	1.1240777	1.6041151	9.143456	38.6898	-9.335827	80.4	96.0	5.0	1.0	
5.99	1.067814	1.5873557	8.595184	38.6898	-9.335827	80.4	96.0	5.0	1.0	
6.0	1.0702082	1.5251064	8.201338	38.6898	-9.335827	80.4	96.0	5.0	1.0	
6.01	1.1432313	1.5107412	8.118738	38.6898	-9.335827	80.4	96.0	5.0	1.0	
6.0200000000000005	1.2521675	1.5095441	8.145074	38.6898	-9.335827	80.4	96.0	5.0	1.0	
6.03	1.2485762	1.4221559	8.075643	38.6898	-9.335827	80.4	96.0	5.0	1.0	
6.04	1.2066777	1.2868834	8.082825	38.6898	-9.335827	80.4	96.0	5.0	1.0	
6.05	1.3443443	1.2473791	8.141483	38.6898	-9.335827	80.4	96.0	5.0	1.0	
6.0600000000000005	1.578976	1.3239936	8.219295	38.6898	-9.335827	80.4	96.0	5.0	1.0	
6.07	1.7070658	1.3850456	8.243237	38.6898	-9.335827	80.4	96.0	5.0	1.0	
6.08	1.7070658	1.4556746	8.12592	38.6898	-9.335827	80.4	96.0	5.0	1.0	
6.09	1.4987702	1.436521	7.795521	38.6898	-9.335827	80.4	96.0	5.0	1.0	
6.1000000000000005	1.2090719	1.4401124	7.2448545	38.6898	-9.335827	80.4	96.0	5.0	1.0	
6.11	0.9540894	1.5382746	6.7887588	38.6898	-9.335827	80.4	96.0	5.0	1.0	
6.12	0.8451532	1.6555905	6.38773	38.6898	-9.335827	80.4	96.0	5.0	1.0	
6.13	0.8810662	1.8387469	6.1530986	38.6898	-9.335827	80.4	96.0	5.0	1.0	
6.140000000000001	0.93373865	2.0326772	6.2021794	38.6898	-9.335827	80.4	96.0	5.0	1.0	
6.15	1.0307038	2.207454	6.208165	38.6898	-9.335827	80.4	96.0	5.0	1.0	
6.16	1.1085154	2.3259668	6.113594	38.6898	-9.335827	80.4	84.0	5.0	1.0	
6.17	1.1192893	2.4432828	6.0238113	38.6898	-9.335827	80.4	84.0	5.0	1.0	
6.18	1.009156	2.4516625	6.14831	38.6898	-9.335827	80.4	84.0	5.0	1.0	
6.19	0.93613285	2.3678656	6.393716	38.6898	-9.335827	80.4	84.0	5.0	1.0	
6.2	1.0055647	2.280477	6.95755	38.6898	-9.335827	80.4	84.0	5.0	1.0	
6.21	0.92057055	2.3211784	7.047333	38.6898	-9.335827	80.4	84.0	5.0	1.0	
6.22	0.92057055	2.3211784	7.047333	38.6898	-9.335827	80.4	84.0	5.0	1.0	
6.23	0.88944596	2.4504654	6.519411	38.6898	-9.335827	80.4	84.0	5.0	1.0	
6.24	0.7745243	2.4420857	6.1890116	38.6898	-9.335827	80.4	84.0	5.0	1.0	
6.25	0.37588966	2.2744915	6.0285997	38.6898	-9.335827	80.4	84.0	5.0	1.0	
6.26	0.09696517	1.9249382	5.8203044	38.6898	-9.335827	80.4	84.0	5.0	1.0	
6.2700000000000005	-0.25139117	1.567005	5.8825536	38.6898	-9.335827	80.4	84.0	5.0	1.0	
6.28	-0.47644615	1.1623849	6.019023	38.6898	-9.335827	80.4	84.0	5.0	1.0	
6.29	-0.47165772	0.94211835	6.066907	38.6898	-9.335827	80.4	84.0	5.0	1.0	
6.3	-0.40940848	0.8750807	5.9424086	38.6898	-9.335827	80.4	84.0	5.0	1.0	
6.3100000000000005	-0.25857377	0.93972415	5.5737014	38.6898	-9.335827	80.4	84.0	5.0	1.0	
6.32	-0.17597382	1.0079589	5.044583	38.6898	-9.335827	80.4	84.0	5.0	1.0	
6.33	0.06823475	1.1324574	4.721366	38.6898	-9.335827	80.4	84.0	5.0	1.0	
6.34	0.59017074	0.78050977	6.3985043	38.6898	-9.335827	80.4	84.0	5.0	1.0	
6.3500000000000005	0.9660604	-0.044292733	8.591593	38.6898	-9.335827	80.4	84.0	5.0	1.0	
6.36	1.412579	-0.7422025	9.087193	38.6898	-9.335827	80.4	84.0	5.0	1.0	
6.37	1.9381063	-1.2138603	8.269572	38.6898	-9.335827	80.4	84.0	5.0	1.0	
6.38	2.7641058	-1.5610195	7.2867527	38.6898	-9.335827	80.4	84.0	5.0	1.0	
6.390000000000001	3.7672763	-2.0518308	6.5720835	38.6898	-9.335827	80.4	84.0	5.0	1.0	
6.4	4.6459484	-2.6060886	5.8442464	38.6898	-9.335827	80.4	84.0	5.0	1.0	
6.41	5.6215854	-3.7325604	5.9064956	38.6898	-9.335827	80.4	84.0	5.0	1.0	
6.42	6.587646	-5.093664	7.2245035	38.6898	-9.335827	80.4	84.0	5.0	1.0	
6.43	7.501034	-6.281188	10.645818	38.6898	-9.335827	80.4	84.0	5.0	1.0	
6.44	8.725668	-6.9383965	15.446193	38.6898	-9.335827	80.4	84.0	5.0	1.0	
6.45	9.922769	-6.7229185	19.303251	38.6898	-9.335827	80.4	84.0	5.0	1.0	
6.46	10.366894	-6.381745	20.683508	38.6898	-9.335827	80.4	84.0	5.0	1.0	
6.47	10.151415	-5.9878983	19.868282	38.6898	-9.335827	80.4	84.0	5.0	1.0	
6.48	9.540894	-5.471948	18.167202	38.6898	-9.335827	80.4	84.0	5.0	1.0	
6.49	9.180567	-5.363012	16.608578	38.6898	-9.335827	80.4	84.0	5.0	1.0	
6.5	8.534132	-5.3618145	14.713567	38.6898	-9.335827	80.4	84.0	5.0	1.0	
6.51	7.988254	-5.1104236	12.196063	38.6898	-9.335827	80.4	84.0	5.0	1.0	
6.5200000000000005	7.65546	-4.6698904	9.998186	38.6898	-9.335827	80.4	84.0	5.0	1.0	
6.53	7.3992805	-4.047398	8.37013	38.6898	-9.335827	80.4	84.0	5.0	1.0	
6.54	7.1861963	-3.3913867	7.428011	38.6898	-9.335827	80.4	84.0	5.0	1.0	
6.55	7.049727	-2.7629087	6.9012866	38.6898	-9.335827	80.4	84.0	5.0	1.0	
6.5600000000000005	6.754043	-2.1703439	6.8306575	38.6898	-9.335827	80.4	84.0	5.0	1.0	
6.57	6.2823853	-1.7178397	6.9719152	38.6898	-9.335827	80.4	84.0	5.0	1.0	
6.58	5.717354	-1.423353	7.037756	38.6898	-9.335827	80.4	84.0	5.0	1.0	
6.59	5.088876	-1.2330139	6.897695	38.6898	-9.335827	80.4	84.0	5.0	1.0	
6.6000000000000005	4.5046906	-1.1252748	6.7013707	38.6898	-9.335827	80.4	84.0	5.0	1.0	
6.61	3.9935284	-1.0247183	6.5481415	38.6898	-9.335827	80.4	84.0	5.0	1.0	
6.62	3.5326445	-0.89423436	6.4416	38.6898	-9.335827	80.4	84.0	5.0	1.0	
6.63	3.1495724	-0.78410107	6.1662664	38.6898	-9.335827	80.4	84.0	5.0	1.0	
6.640000000000001	2.8119898	-0.7230489	5.791574	38.6898	-9.335827	80.4	84.0	5.0	1.0	
6.65	2.4911668	-0.6955156	5.5222263	38.6898	-9.335827	80.4	84.0	5.0	1.0	
6.66	2.1894975	-0.724246	5.397728	38.6898	-9.335827	80.4	84.0	5.0	1.0	
6.67	1.9656396	-0.79846627	5.3486466	38.6898	-9.335827	80.4	84.0	5.0	1.0	
6.68	1.7034745	-0.91697925	5.554548	38.6898	-9.335827	80.4	84.0	5.0	1.0	
6.69	1.6543933	-1.043872	5.461174	38.6898	-9.335827	80.4	84.0	5.0	1.0	
6.7	1.6879122	-1.1875241	5.409699	38.6898	-9.335827	80.4	84.0	5.0	1.0	
6.71	1.9740193	-1.2797008	5.2720323	38.6898	-9.335827	80.4	84.0	5.0	1.0	
6.72	2.3104045	-1.3060371	5.225345	38.6898	-9.335827	80.4	84.0	5.0	1.0	
6.73	2.7569232	-1.3192052	5.121197	38.6898	-9.335827	80.4	84.0	5.0	1.0	
6.74	3.1148565	-1.3371617	5.2983685	38.6898	-9.335827	80.4	84.0	5.0	1.0	
6.75	3.3482912	-1.4197617	5.8825536	38.6898	-9.335827	80.4	84.0	5.0	1.0	
6.76	3.4991257	-1.471237	6.6522894	38.6898	-9.335827	80.4	84.0	5.0	1.0	
6.7700000000000005	3.558981	-1.3922282	7.410054	38.6898	-9.335827	80.4	84.0	5.0	1.0	
6.78	3.5984852	-1.3132197	7.8972745	38.6898	-9.335827	80.4	84.0	5.0	1.0	
6.79	3.394978	-1.472434	8.194156	38.6898	-9.335827	80.4	84.0	5.0	1.0	
6.8	2.9149406	-1.9752164	8.109161	38.6898	-9.335827	80.4	84.0	5.0	1.0	
6.8100000000000005	2.516306	-2.4756045	7.323863	38.6898	-9.335827	80.4	84.0	5.0	1.0	
6.82	2.2649148	-2.944868	6.063316	38.6898	-9.335827	80.4	84.0	5.0	1.0	
6.83	2.372654	-3.3638535	4.847061	38.6898	-9.335827	80.4	84.0	5.0	1.0	
6.84	2.9628246	-3.9432502	3.8295257	38.6898	-9.335827	80.4	84.0	5.0	1.0	
6.8500000000000005	4.158728	-4.9895163	3.2321723	38.6898	-9.335827	80.4	84.0	5.0	1.0	
6.86	5.8143187	-6.495469	2.6635494	38.6898	-9.335827	80.4	84.0	5.0	1.0	
6.87	7.9188223	-8.418014	2.6527755	38.6898	-9.335827	80.4	84.0	5.0	1.0	
6.88	10.151415	-9.952697	4.4759603	38.6898	-9.335827	80.4	84.0	5.0	1.0	
6.890000000000001	12.352883	-10.381259	8.2037325	38.6898	-9.335827	80.4	84.0	5.0	1.0	
6.9	14.107834	-10.327389	13.261483	38.6898	-9.335827	80.4	84.0	5.0	1.0	
6.91	15.213955	-10.08318	18.956093	38.6898	-9.335827	80.4	84.0	5.0	1.0	
6.92	15.374366	-10.263943	23.066936	38.6898	-9.335827	80.4	84.0	5.0	1.0	
6.93	14.372393	-10.535685	24.149115	38.6898	-9.335827	80.4	84.0	5.0	1.0	
6.94	12.599486	-10.650606	23.757664	38.6898	-9.335827	80.4	84.0	5.0	1.0	
6.95	10.606314	-10.754754	22.365435	38.6898	-9.335827	80.4	84.0	5.0	1.0	
6.96	8.596381	-10.360908	19.637243	38.6898	-9.335827	80.4	84.0	5.0	1.0	
6.97	6.9120603	-9.478644	16.516401	38.6898	-9.335827	80.4	84.0	5.0	1.0	
6.98	5.7185507	-8.413225	13.648147	38.6898	-9.335827	80.4	84.0	5.0	1.0	
6.99	4.8937483	-7.359776	10.952275	38.6898	-9.335827	80.4	84.0	5.0	1.0	
7.0	4.3718123	-6.3769565	8.53892	38.6898	-9.335827	80.4	84.0	5.0	1.0	
7.01	4.0557775	-5.315128	6.2871737	38.6898	-9.335827	80.4	84.0	5.0	1.0	
7.0200000000000005	3.8762126	-4.095282	4.626795	38.6898	-9.335827	80.4	84.0	5.0	1.0	
7.03	3.9935284	-2.9532478	3.2441432	38.6898	-9.335827	80.4	84.0	5.0	1.0	
7.04	4.2197804	-1.8579005	2.1212628	38.6898	-9.335827	80.4	84.0	5.0	1.0	
7.05	4.5860934	-1.0043676	1.4437037	38.6898	-9.335827	80.4	84.0	5.0	1.0	
7.0600000000000005	4.747702	-0.39384618	1.3036429	38.6898	-9.335827	80.4	84.0	5.0	1.0	
7.07	4.6471453	0.035913024	1.4137762	38.6898	-9.335827	80.4	84.0	5.0	1.0	
7.08	4.225766	0.18555063	1.6376339	38.6898	-9.335827	80.4	84.0	5.0	1.0	
7.09	3.50152	0.11372458	1.9452889	38.6898	-9.335827	80.4	84.0	5.0	1.0	
7.1000000000000005	2.621651	-0.17836803	1.9800048	38.6898	-9.335827	80.4	84.0	5.0	1.0	
7.11	1.7788919	-0.5243302	1.8076223	38.6898	-9.335827	80.4	84.0	5.0	1.0	
7.12	1.1049241	-0.724246	1.340753	38.6898	-9.335827	80.4	129.0	5.0	1.0	
7.13	0.7565677	-0.7649474	0.33279404	38.6898	-9.335827	80.4	129.0	5.0	1.0	
7.140000000000001	0.5434838	-0.7733272	-0.770933	38.6898	-9.335827	80.4	129.0	5.0	1.0	
7.15	0.36391866	-0.49200845	-1.6340426	38.6898	-9.335827	80.4	129.0	5.0	1.0	
7.16	0.21667525	1.2952632	-2.705448	38.6898	-9.335827	80.4	129.0	5.0	1.0	
7.17	0.20949265	2.0614076	-3.834314	38.6898	-9.335827	80.4	129.0	5.0	1.0	
7.18	-0.06344634	1.7585411	-5.2421045	38.6898	-9.335827	80.4	129.0	5.0	1.0	
7.19	-0.6380547	-0.29807812	-6.2380924	38.6898	-9.335827	80.4	129.0	5.0	1.0	
7.2	-0.48482585	-3.2980127	-7.8745294	38.6898	-9.335827	80.4	129.0	5.0	1.0	
7.21	0.94690675	-5.753267	-8.6095495	38.6898	-9.335827	80.4	129.0	5.0	1.0	
7.22	4.2185836	-7.309498	-5.8598084	38.6898	-9.335827	80.4	129.0	5.0	1.0	
7.23	8.5473	-9.051279	0.19033903	38.6898	-9.335827	80.4	129.0	5.0	1.0	
7.24	12.810176	-10.512939	9.576807	38.6898	-9.335827	80.4	129.0	5.0	1.0	
7.25	16.466122	-10.277111	19.737799	38.6898	-9.335827	80.4	129.0	5.0	1.0	
7.26	18.54788	-8.593987	27.184963	38.6898	-9.335827	80.4	129.0	5.0	1.0	
7.2700000000000005	19.059042	-6.921637	30.536846	38.6898	-9.335827	80.4	129.0	5.0	1.0	
7.28	17.960104	-6.003461	30.928297	38.6898	-9.335827	80.4	129.0	5.0	1.0	
7.29	14.58428	-5.566519	28.033709	38.6898	-9.335827	80.4	129.0	5.0	1.0	
7.3	10.96664	-5.6790466	24.02342	38.689796	-9.335827	80.4	129.0	5.0	1.0	
7.3100000000000005	8.128315	-5.507861	21.320366	38.689796	-9.335827	80.4	129.0	5.0	1.0	
7.32	6.0106435	-4.710592	18.302475	38.689796	-9.335827	80.4	129.0	5.0	1.0	
7.33	4.44723	-3.41892	15.136143	38.689796	-9.335827	80.4	129.0	5.0	1.0	
7.34	3.3686419	-2.160767	12.619837	38.689796	-9.335827	80.4	129.0	5.0	1.0	
7.3500000000000005	2.6982653	-1.1803415	10.3214035	38.689796	-9.335827	80.4	129.0	5.0	1.0	
7.36	2.2996306	-0.48362875	8.057686	38.689796	-9.335827	80.4	129.0	5.0	1.0	
7.37	2.15957	0.031124622	6.1100025	38.689796	-9.335827	80.4	129.0	5.0	1.0	
7.38	2.3714569	0.50158525	4.1838675	38.689796	-9.335827	80.4	129.0	5.0	1.0	
7.390000000000001	2.5258827	1.1168951	2.6384103	38.689796	-9.335827	80.4	129.0	5.0	1.0	
7.4	2.7162218	1.6639702	1.5478514	38.689796	-9.335827	80.4	129.0	5.0	1.0	
7.41	2.847903	1.9967642	0.7625532	38.689796	-9.335827	80.4	129.0	5.0	1.0	
7.42	2.9053638	2.2038627	0.79487497	38.689796	-9.335827	80.4	129.0	5.0	1.0	
7.43	3.0657754	2.3175871	1.3670892	38.689796	-9.335827	80.4	129.0	5.0	1.0	
7.44	3.2632968	2.3702598	2.160767	38.689796	-9.335827	80.4	129.0	5.0	1.0	
7.45	3.38181	2.384625	3.1280246	38.689796	-9.335827	80.4	129.0	5.0	1.0	
7.46	3.4344823	2.4756045	3.9971197	38.689796	-9.335827	80.4	129.0	5.0	1.0	
7.47	3.4620156	2.3810337	4.7022123	38.689796	-9.335827	80.4	129.0	5.0	1.0	
7.48	3.3662477	2.0266917	5.5126495	38.689796	-9.335827	80.4	129.0	5.0	1.0	
7.49	3.1268275	1.6089035	6.1219735	38.689796	-9.335827	80.4	129.0	5.0	1.0	
7.5	2.8682537	1.2533646	6.2620344	38.689796	-9.335827	80.4	129.0	5.0	1.0	
7.51	2.5498247	1.0342951	6.9264255	38.689796	-9.335827	80.4	129.0	5.0	1.0	
7.5200000000000005	2.3080103	0.08259996	7.8206596	38.689796	-9.335827	80.4	129.0	5.0	1.0	
7.53	2.717419	-2.8048072	6.081272	38.689796	-9.335827	80.4	129.0	5.0	1.0	
7.54	4.1419687	-6.471527	5.5030727	38.689796	-9.335827	80.4	129.0	5.0	1.0	
7.55	7.314286	-8.78672	10.860099	38.689796	-9.335827	80.4	129.0	5.0	1.0	
7.5600000000000005	12.0332575	-10.160992	17.688362	38.689796	-9.335827	80.4	129.0	5.0	1.0	
7.57	16.281769	-11.190498	21.869835	38.689796	-9.335827	80.4	129.0	5.0	1.0	
7.58	19.430143	-10.510546	24.268826	38.689796	-9.335827	80.4	129.0	5.0	1.0	
7.59	21.150377	-8.408437	26.00103	38.689796	-9.335827	80.4	129.0	5.0	1.0	
7.6000000000000005	21.301212	-6.787562	26.454731	38.689796	-9.335827	80.4	129.0	5.0	1.0	
7.61	19.528307	-6.4547677	25.46473	38.689796	-9.335827	80.4	129.0	5.0	1.0	
7.62	16.215929	-7.392098	22.650345	38.689796	-9.335827	80.4	129.0	5.0	1.0	
7.63	9.927557	-8.998607	16.153679	38.689796	-9.335827	80.4	129.0	5.0	1.0	
7.640000000000001	7.5668745	-8.902839	13.120225	38.689796	-9.335827	80.4	129.0	5.0	1.0	
7.65	6.1938	-8.183381	10.819398	38.689796	-9.335827	80.4	129.0	5.0	1.0	
7.66	5.681441	-7.047333	8.781932	38.689796	-9.335827	80.4	129.0	5.0	1.0	
7.67	5.6096144	-5.638345	6.980295	38.689796	-9.335827	80.4	129.0	5.0	1.0	
7.68	5.542577	-4.459201	5.4539914	38.689796	-9.335827	80.4	129.0	5.0	1.0	
7.69	5.377377	-3.691859	4.146757	38.689796	-9.335827	80.4	129.0	5.0	1.0	
7.7	5.0541596	-3.2632968	3.0621839	38.689796	-9.335827	80.4	129.0	5.0	1.0	
7.71	4.721366	-2.8862102	2.030283	38.689796	-9.335827	80.4	129.0	5.0	1.0	
7.72	4.3514614	-2.433706	1.2018893	38.689796	-9.335827	80.4	129.0	5.0	1.0	
7.73	3.9073372	-2.0446482	0.40940848	38.689796	-9.335827	80.4	129.0	5.0	1.0	
7.74	3.442862	-1.7202339	-0.2681506	38.689796	-9.335827	80.4	129.0	5.0	1.0	
7.75	3.039439	-1.4449008	-0.6452374	38.689796	-9.335827	80.4	129.0	5.0	1.0	
7.76	2.8083985	-1.3144168	-0.91338795	38.689796	-9.335827	80.4	129.0	5.0	1.0	
7.7700000000000005	2.6120741	-1.2509704	-1.1168951	38.689796	-9.335827	80.4	129.0	5.0	1.0	
7.78	2.4827871	-1.1959038	-1.42455	38.689796	-9.335827	80.4	129.0	5.0	1.0	
7.79	2.5091233	-1.0869676	-1.7705121	38.689796	-9.335827	80.4	129.0	5.0	1.0	
7.8	2.754529	-0.78769237	-1.8076223	38.689796	-9.335827	80.4	129.0	5.0	1.0	
7.8100000000000005	3.1723173	-0.4177882	-1.8579005	38.689796	-9.335827	80.4	129.0	5.0	1.0	
7.82	3.6750996	-0.074220255	-2.0649989	38.689796	-9.335827	80.4	129.0	5.0	1.0	
7.83	4.268862	0.20709845	-2.0530279	38.689796	-9.335827	80.4	129.0	5.0	1.0	
7.84	4.865018	0.34596214	-1.6244658	38.689796	-9.335827	80.4	129.0	5.0	1.0	
7.8500000000000005	5.589264	0.32441434	-0.7565677	38.689796	-9.335827	80.4	129.0	5.0	1.0	
7.86	6.105214	0.20111294	0.36391866	38.689796	-9.335827	80.4	129.0	5.0	1.0	
7.87	6.408081	-0.047884032	1.2198458	38.689796	-9.335827	80.4	129.0	5.0	1.0	
7.88	6.5696893	-0.35434186	2.0829554	38.689796	-9.335827	80.4	129.0	5.0	1.0	
7.890000000000001	6.609194	-0.7218518	3.0813377	38.689796	-9.335827	80.4	129.0	5.0	1.0	
7.9	6.555324	-0.91219085	4.4077253	38.689796	-9.335827	80.4	129.0	5.0	1.0	
7.91	6.3661823	-0.9636662	5.771223	38.689796	-9.335827	80.4	129.0	5.0	1.0	
7.92	6.218939	-1.2210429	6.528988	38.689796	-9.335827	80.4	129.0	5.0	1.0	
7.930000000000001	6.3589997	-2.730587	5.9124813	38.689796	-9.335827	80.4	129.0	5.0	1.0	
7.94	6.658275	-4.8243165	5.0122614	38.689796	-9.335827	80.4	129.0	5.0	1.0	
7.95	7.469909	-6.256049	6.1507044	38.689796	-9.335827	80.4	129.0	5.0	1.0	
7.96	9.249998	-6.659472	9.378088	38.689796	-9.335827	80.4	129.0	5.0	1.0	
7.97	11.018116	-6.625953	12.276269	38.689796	-9.335827	80.4	129.0	5.0	1.0	
7.98	12.304999	-6.3769565	14.43105	38.689796	-9.335827	80.4	129.0	5.0	1.0	
7.99	13.080721	-5.9543796	16.097416	38.689796	-9.335827	80.4	129.0	5.0	1.0	
8.0	13.453019	-5.3761797	17.173609	38.689796	-9.335827	80.4	129.0	5.0	1.0	
8.01	13.231556	-4.808754	17.488447	38.689796	-9.335827	80.4	129.0	5.0	1.0	
8.02	12.510901	-4.06296	17.198748	38.689796	-9.335827	80.4	129.0	5.0	1.0	
8.03	11.47062	-3.4213142	16.695965	38.689796	-9.335827	80.4	129.0	5.0	1.0	
8.040000000000001	10.0508585	-3.0992942	16.021997	38.689796	-9.335827	80.4	129.0	5.0	1.0	
8.05	8.26239	-3.1639376	14.638149	38.689796	-9.335827	80.4	129.0	5.0	1.0	
8.06	6.7648168	-2.9281087	12.846089	38.689796	-9.335827	80.4	129.0	5.0	1.0	
8.07	5.410896	-2.7976246	11.116279	38.689796	-9.335827	80.4	129.0	5.0	1.0	
8.08	4.361038	-2.755726	9.591172	38.689796	-9.335827	80.4	201.0	5.0	1.0	
8.09	3.6152446	-2.529474	8.218098	38.689796	-9.335827	80.4	201.0	5.0	1.0	
8.1	3.071761	-1.7681179	6.113594	38.689796	-9.335827	80.4	201.0	5.0	1.0	
8.11	3.095703	-1.2593501	4.961983	38.689796	-9.335827	80.4	201.0	5.0	1.0	
8.120000000000001	3.1830912	-0.82360536	4.1395745	38.689796	-9.335827	80.4	201.0	5.0	1.0	
8.13	3.3746274	-0.45010993	3.6822822	38.689796	-9.335827	80.4	201.0	5.0	1.0	
8.14	3.5805287	-0.15203181	3.4967315	38.689796	-9.335827	80.4	201.0	5.0	1.0	
8.15	3.7708676	0.08259996	3.4320881	38.689796	-9.335827	80.4	201.0	5.0	1.0	
8.16	4.0222588	0.36391866	3.6140475	38.689796	-9.335827	80.4	201.0	5.0	1.0	
8.17	4.2521024	0.5770026	3.7349546	38.689796	-9.335827	80.4	201.0	5.0	1.0	
8.18	4.38498	0.58777654	3.8989575	38.689796	-9.335827	80.4	201.0	5.0	1.0	
8.19	4.5178585	0.45489833	4.1096473	38.689796	-9.335827	80.4	201.0	5.0	1.0	
8.2	4.5633483	0.31244332	4.2042184	38.689796	-9.335827	80.4	201.0	5.0	1.0	
8.21	4.7261543	0.20350714	4.3418846	38.689796	-9.335827	80.4	201.0	5.0	1.0	
8.22	4.9536033	0.011971008	4.4807487	38.689796	-9.335827	80.4	201.0	5.0	1.0	
8.23	5.201403	-0.21428105	4.631583	38.689796	-9.335827	80.4	201.0	5.0	1.0	
8.24	5.577293	-0.4417302	4.900931	38.689796	-9.335827	80.4	201.0	5.0	1.0	
8.25	6.0118403	-0.6775591	5.3223104	38.689796	-9.335827	80.4	201.0	5.0	1.0	
8.26	6.4104753	-0.89902276	5.756858	38.689796	-9.335827	80.4	201.0	5.0	1.0	
8.27	6.787562	-1.2413936	6.1243677	38.689796	-9.335827	80.4	201.0	5.0	1.0	
8.28	7.1311297	-1.5658079	6.7887588	38.689796	-9.335827	80.4	201.0	5.0	1.0	
8.290000000000001	7.4495587	-1.6124948	7.831434	38.689796	-9.335827	80.4	201.0	5.0	1.0	
8.3	7.6841903	-1.3850456	8.816648	38.689796	-9.335827	80.4	201.0	5.0	1.0	
8.31	7.6949644	-0.9708488	9.53012	38.689796	-9.335827	80.4	201.0	5.0	1.0	
8.32	7.4627266	-0.61291564	9.931149	38.689796	-9.335827	80.4	201.0	5.0	1.0	
8.33	6.8079123	-0.51116204	9.811439	38.689796	-9.335827	80.4	201.0	5.0	1.0	
8.34	5.9759274	-0.6871359	8.983045	38.689796	-9.335827	80.4	201.0	5.0	1.0	
8.35	5.121197	-0.9876082	8.021772	38.689796	-9.335827	80.4	201.0	5.0	1.0	
8.36	4.5262384	-1.3000516	7.123947	38.689796	-9.335827	80.4	201.0	5.0	1.0	
8.370000000000001	4.1144357	-1.6496049	6.4511766	38.689796	-9.335827	80.4	201.0	5.0	1.0	
8.38	4.0521865	-1.970428	6.187814	38.689796	-9.335827	80.4	201.0	5.0	1.0	
8.39	4.3179426	-2.0745757	6.361394	38.689796	-9.335827	80.4	201.0	5.0	1.0	
8.4	4.9404354	-1.9788077	6.7959414	38.689796	-9.335827	80.4	201.0	5.0	1.0	
8.41	5.663484	-1.7956513	7.231686	38.689796	-9.335827	80.4	201.0	5.0	1.0	
8.42	6.3422403	-1.7824832	7.404069	38.6898	-9.335824	80.4	201.0	5.0	1.0	
8.43	6.9647326	-1.9560628	7.548918	38.6898	-9.335824	80.4	201.0	5.0	1.0	
8.44	7.463924	-2.19668	7.699753	38.6898	-9.335824	80.4	201.0	5.0	1.0	
8.45	7.9906483	-2.3511062	7.908048	38.6898	-9.335824	80.4	201.0	5.0	1.0	
8.46	8.4826565	-2.3511062	8.330625	38.6898	-9.335824	80.4	201.0	5.0	1.0	
8.47	8.892065	-2.2146366	8.689755	38.6898	-9.335824	80.4	201.0	5.0	1.0	
8.48	9.175778	-1.9428947	8.995016	38.6898	-9.335824	80.4	201.0	5.0	1.0	
8.49	9.238028	-1.685518	9.333796	38.6898	-9.335824	80.4	201.0	5.0	1.0	
8.5	8.89805	-1.6089035	9.3421755	38.6898	-9.335824	80.4	201.0	5.0	1.0	
8.51	8.214506	-1.70946	8.99741	38.6898	-9.335824	80.4	201.0	5.0	1.0	
8.52	7.410054	-1.9321208	8.717288	38.6898	-9.335824	80.4	201.0	5.0	1.0	
8.53	6.658275	-2.0518308	8.564059	38.6898	-9.335824	80.4	201.0	5.0	1.0	
8.540000000000001	5.993884	-2.0853498	8.469488	38.6898	-9.335824	80.4	201.0	5.0	1.0	
8.55	5.392939	-2.1260512	8.307879	38.6898	-9.335824	80.4	201.0	5.0	1.0	
8.56	4.914099	-2.0015526	7.433996	38.6898	-9.335824	80.4	201.0	5.0	1.0	
8.57	4.914099	-2.0015526	7.433996	38.6898	-9.335824	80.4	201.0	5.0	1.0	
8.58	3.976769	-2.0769699	6.8222775	38.6898	-9.335824	80.4	201.0	5.0	1.0	
8.59	3.9013517	-2.4839842	6.1243677	38.6898	-9.335824	80.4	201.0	5.0	1.0	
8.6	3.9516299	-2.9484594	5.804742	38.6898	-9.335824	80.4	201.0	5.0	1.0	
8.61	4.333505	-3.4883518	5.6670756	38.6898	-9.335824	80.4	201.0	5.0	1.0	
8.620000000000001	5.081693	-4.2197804	5.591658	38.6898	-9.335824	80.4	201.0	5.0	1.0	
8.63	6.090849	-4.9069166	6.218939	38.6898	-9.335824	80.4	201.0	5.0	1.0	
8.64	7.2209125	-5.3235073	7.3322425	38.6898	-9.335824	80.4	201.0	5.0	1.0	
8.65	8.611943	-5.3259015	9.226056	38.6898	-9.335824	80.4	201.0	5.0	1.0	
8.66	9.903615	-5.141548	11.146206	38.6898	-9.335824	80.4	201.0	5.0	1.0	
8.67	11.009736	-4.699818	12.270284	38.6898	-9.335824	80.4	201.0	5.0	1.0	
8.68	11.316195	-4.4424415	12.998121	38.6898	-9.335824	80.4	201.0	5.0	1.0	
8.69	11.0061455	-4.3382936	13.111846	38.6898	-9.335824	80.4	201.0	5.0	1.0	
8.700000000000001	9.825804	-4.495114	12.503718	38.6898	-9.335824	80.4	201.0	5.0	1.0	
8.71	8.449138	-4.5801077	11.295844	38.6898	-9.335824	80.4	201.0	5.0	1.0	
8.72	7.3537903	-4.4927197	10.281899	38.6898	-9.335824	80.4	201.0	5.0	1.0	
8.73	6.271611	-4.5645456	9.093178	38.6898	-9.335824	80.4	201.0	5.0	1.0	
8.74	5.2899885	-4.6782703	7.6147585	38.6898	-9.335824	80.4	201.0	5.0	1.0	
8.75	4.4699745	-4.7764325	6.4763155	38.6898	-9.335824	80.4	201.0	5.0	1.0	
8.76	4.0581717	-4.853047	5.6563015	38.6898	-9.335824	80.4	201.0	5.0	1.0	
8.77	3.8606503	-4.8027687	4.841076	38.6898	-9.335824	80.4	201.0	5.0	1.0	
8.78	3.8618474	-4.7022123	4.1683054	38.6898	-9.335824	80.4	201.0	5.0	1.0	
8.790000000000001	4.0521865	-4.525041	3.8187518	38.6898	-9.335824	80.4	201.0	5.0	1.0	
8.8	4.2664676	-4.332308	3.5972881	38.6898	-9.335824	80.4	201.0	5.0	1.0	
8.81	4.5046906	-4.140772	3.2872388	38.6898	-9.335824	80.4	201.0	5.0	1.0	
8.82	4.7022123	-3.8726213	3.2752678	38.6898	-9.335824	80.4	201.0	5.0	1.0	
8.83	4.8722005	-3.715801	3.4703953	38.6898	-9.335824	80.4	201.0	5.0	1.0	
8.84	5.0397944	-3.678691	3.7229836	38.6898	-9.335824	80.4	201.0	5.0	1.0	
8.85	5.033809	-3.7062242	3.83192	38.6898	-9.335824	80.4	201.0	5.0	1.0	
8.86	5.0661306	-3.74094	4.035427	38.6898	-9.335824	80.4	201.0	5.0	1.0	
8.870000000000001	4.995502	-3.7816415	4.5046906	38.6898	-9.335824	80.4	201.0	5.0	1.0	
8.88	4.8961425	-3.867833	4.7201686	38.6898	-9.335824	80.4	201.0	5.0	1.0	
8.89	4.673482	-3.952827	4.879383	38.6898	-9.335824	80.4	201.0	5.0	1.0	
8.9	4.4244847	-4.0641575	5.2157683	38.6898	-9.335824	80.4	201.0	5.0	1.0	
8.91	4.256891	-4.1299977	5.497087	38.6898	-9.335824	80.4	201.0	5.0	1.0	
8.92	4.120421	-4.132392	5.6946087	38.6898	-9.335824	80.4	201.0	5.0	1.0	
8.93	4.0078936	-4.1635165	5.8801594	38.6898	-9.335824	80.4	201.0	5.0	1.0	
8.94	3.8414967	-4.2760444	6.242881	38.6898	-9.335824	80.4	201.0	5.0	1.0	
8.950000000000001	3.6858735	-4.390966	6.7085533	38.6898	-9.335824	80.4	201.0	5.0	1.0	
8.96	3.6008794	-4.4448357	7.0904284	38.6898	-9.335824	80.4	201.0	5.0	1.0	
8.97	3.5661635	-4.461595	7.517793	38.6898	-9.335824	80.4	201.0	5.0	1.0	
8.98	3.6655228	-4.4364557	7.893683	38.6898	-9.335824	80.4	201.0	5.0	1.0	
8.99	3.7792473	-4.368221	8.328231	38.6898	-9.335824	80.4	201.0	5.0	1.0	
9.0	3.9671922	-4.2640734	8.911219	38.6898	-9.335824	80.4	201.0	5.0	1.0	
9.01	4.1479545	-4.104859	9.508572	38.6898	-9.335824	80.4	201.0	5.0	1.0	
9.02	4.361038	-3.976769	9.91439	38.6898	-9.335824	80.4	201.0	5.0	1.0	
9.03	4.5980644	-3.8115692	10.220847	38.6898	-9.335824	80.4	201.0	5.0	1.0	
9.040000000000001	4.8243165	-3.608062	10.497377	38.6898	-9.335824	80.4	201.0	5.0	1.0	
9.05	4.829105	-3.3435028	10.387244	38.6898	-9.335824	80.4	201.0	5.0	1.0	
9.06	4.847061	-3.1830912	10.226832	38.6898	-9.335824	80.4	201.0	5.0	1.0	
9.07	4.921282	-2.966416	10.019734	38.6898	-9.335824	80.4	201.0	5.0	1.0	
9.08	4.993108	-2.834735	9.77792	38.6898	-9.335824	80.4	201.0	5.0	1.0	
9.09	4.969166	-2.755726	9.411607	38.6898	-9.335824	80.4	201.0	5.0	1.0	
9.1	4.9428296	-2.6479871	9.088389	38.6898	-9.335824	80.4	1867.0	5.0	1.0	
9.11	4.938041	-2.6048915	8.9842415	38.6898	-9.335824	80.4	1867.0	5.0	1.0	
9.120000000000001	4.960786	-2.5689783	8.866926	38.6898	-9.335824	80.4	1867.0	5.0	1.0	
9.13	5.019444	-2.4959552	8.7951	38.6898	-9.335824	80.4	1867.0	5.0	1.0	
9.14	5.177461	-2.3810337	8.801085	38.6898	-9.335824	80.4	1867.0	5.0	1.0	
9.15	5.3079453	-2.2972364	8.768764	38.6898	-9.335824	80.4	1867.0	5.0	1.0	
9.16	5.415684	-2.2661119	8.730456	38.6898	-9.335824	80.4	1867.0	5.0	1.0	
9.17	5.5006785	-2.2002714	8.607155	38.6898	-9.335824	80.4	1867.0	5.0	1.0	
9.18	5.555745	-2.1440077	8.438364	38.6898	-9.335824	80.4	1867.0	5.0	1.0	
9.19	5.554548	-2.1332338	8.274361	38.6898	-9.335824	80.4	1867.0	5.0	1.0	
9.200000000000001	5.518635	-2.1392193	8.158242	38.6898	-9.335824	80.4	1867.0	5.0	1.0	
9.21	5.509058	-2.148796	7.9990277	38.6898	-9.335824	80.4	1867.0	5.0	1.0	
9.22	5.509058	-2.148796	7.9990277	38.6898	-9.335824	80.4	1867.0	5.0	1.0	
9.23	5.708974	-2.0925324	7.728483	38.6898	-9.335824	80.4	1867.0	5.0	1.0	
9.24	5.825093	-2.030283	7.608773	38.6898	-9.335824	80.4	1867.0	5.0	1.0	
9.25	5.9902925	-2.0123265	7.550115	38.6898	-9.335824	80.4	1867.0	5.0	1.0	
9.26	6.0645127	-2.0326772	7.6003933	38.6898	-9.335824	80.4	1867.0	5.0	1.0	
9.27	6.1327477	-2.0733786	7.615956	38.6898	-9.335824	80.4	1867.0	5.0	1.0	
9.28	6.114791	-2.124854	7.679402	38.6898	-9.335824	80.4	1867.0	5.0	1.0	
9.290000000000001	5.995081	-2.2182279	7.753622	38.6898	-9.335824	80.4	1867.0	5.0	1.0	
9.3	5.767632	-2.385822	7.666234	38.6898	-9.335824	80.4	1867.0	5.0	1.0	
9.31	5.5102553	-2.5582044	7.463924	38.6898	-9.335824	80.4	1867.0	5.0	1.0	
9.32	5.3139305	-2.6982653	7.285556	38.6898	-9.335824	80.4	1867.0	5.0	1.0	
9.33	5.233725	-2.7940333	7.1526775	38.6898	-9.335824	80.4	1867.0	5.0	1.0	
9.34	5.258864	-2.8682537	7.04015	38.6898	-9.335824	80.4	1867.0	5.0	1.0	
9.35	5.482722	-2.822764	7.1646485	38.6898	-9.335824	80.4	1867.0	5.0	1.0	
9.36	5.805939	-2.741361	7.358579	38.6898	-9.335824	80.4	1867.0	5.0	1.0	
9.370000000000001	6.0944405	-2.7090392	7.445967	38.6898	-9.335824	80.4	1867.0	5.0	1.0	
9.38	6.289568	-2.7102363	7.5704656	38.6898	-9.335824	80.4	1867.0	5.0	1.0	
9.39	6.4499793	-2.693477	7.7129207	38.6898	-9.335824	80.4	1867.0	5.0	1.0	
9.4	6.528988	-2.7006595	7.8709383	38.6898	-9.335824	80.4	1867.0	5.0	1.0	
9.41	6.5816603	-2.6635494	8.063671	38.6898	-9.335824	80.4	1867.0	5.0	1.0	
9.42	6.622362	-2.5905263	8.175002	38.6898	-9.335824	80.4	1867.0	5.0	1.0	
9.43	6.622362	-2.5905263	8.175002	38.6898	-9.335824	80.4	1867.0	5.0	1.0	
9.44	6.5816603	-2.3439236	8.282741	38.6898	-9.335824	80.4	1867.0	5.0	1.0	
9.450000000000001	6.4044895	-2.2541409	8.137892	38.6898	-9.335824	80.4	1867.0	5.0	1.0	
9.46	6.1519012	-2.2014685	7.7332716	38.6898	-9.335824	80.4	1867.0	5.0	1.0	
9.47	5.8586116	-2.1320367	7.3083005	38.6898	-9.335824	80.4	1867.0	5.0	1.0	
9.48	5.6419363	-2.007538	6.9479733	38.6898	-9.335824	80.4	1867.0	5.0	1.0	
9.49	5.5018754	-1.8327614	6.5744777	38.6898	-9.335824	80.4	1867.0	5.0	1.0	
9.5	5.403713	-1.6436194	6.302736	38.6898	-9.335824	80.4	1867.0	5.0	1.0	
9.51	5.357026	-1.6077064	6.1040173	38.6898	-9.335824	80.4	1867.0	5.0	1.0	
9.52	5.3402667	-1.5610195	5.8478374	38.6898	-9.335824	80.4	1867.0	5.0	1.0	
9.53	5.315128	-1.3850456	5.8262897	38.689804	-9.335818	80.4	1867.0	5.0	1.0	
9.540000000000001	5.258864	-1.2868834	5.9160724	38.689804	-9.335818	80.4	1867.0	5.0	1.0	
9.55	5.2085857	-1.2569559	6.135142	38.689804	-9.335818	80.4	1867.0	5.0	1.0	
9.56	5.12838	-1.2557588	6.542156	38.689804	-9.335818	80.4	1867.0	5.0	1.0	
9.57	5.1116204	-1.2808979	6.7719994	38.689804	-9.335818	80.4	1867.0	5.0	1.0	
9.58	5.104438	-1.2677298	7.026982	38.689804	-9.335818	80.4	1867.0	5.0	1.0	
9.59	5.0745106	-1.2737153	7.383718	38.689804	-9.335818	80.4	1867.0	5.0	1.0	
9.6	5.085284	-1.3263878	7.7464395	38.689804	-9.335818	80.4	1867.0	5.0	1.0	
9.61	5.0062757	-1.2497733	8.14268	38.689804	-9.335818	80.4	1867.0	5.0	1.0	
9.620000000000001	4.9081135	-1.1324574	8.437167	38.689804	-9.335818	80.4	1867.0	5.0	1.0	
9.63	4.734534	-1.0139444	8.546103	38.689804	-9.335818	80.4	1867.0	5.0	1.0	
9.64	4.507085	-0.89902276	8.297106	38.689804	-9.335818	80.4	1867.0	5.0	1.0	
9.65	4.284424	-0.80325466	7.7943234	38.689804	-9.335818	80.4	1867.0	5.0	1.0	
9.66	4.0701427	-0.7661445	7.2604165	38.689804	-9.335818	80.4	1867.0	5.0	1.0	
9.67	3.9600096	-0.7194576	6.8450227	38.689804	-9.335818	80.4	1867.0	5.0	1.0	
9.68	3.9935284	-0.6775591	6.659472	38.689804	-9.335818	80.4	1867.0	5.0	1.0	
9.69	4.188656	-0.59136784	6.6415157	38.689804	-9.335818	80.4	1867.0	5.0	1.0	
9.700000000000001	4.4795513	-0.49081135	6.859388	38.689804	-9.335818	80.4	1867.0	5.0	1.0	
9.71	4.8614264	-0.39145198	7.023391	38.689804	-9.335818	80.4	1867.0	5.0	1.0	
9.72	5.1846437	-0.29328972	7.2843585	38.689804	-9.335818	80.4	1867.0	5.0	1.0	
9.73	5.451597	-0.2837129	7.643489	38.689804	-9.335818	80.4	1867.0	5.0	1.0	
9.74	5.590461	-0.32321724	7.964312	38.689804	-9.335818	80.4	1867.0	5.0	1.0	
9.75	5.6431336	-0.37948096	8.380903	38.689804	-9.335818	80.4	1867.0	5.0	1.0	
9.76	5.649119	-0.4189853	8.736442	38.689804	-9.335818	80.4	1867.0	5.0	1.0	
9.77	5.590461	-0.39025488	9.166202	38.689804	-9.335818	80.4	1867.0	5.0	1.0	
9.78	5.471948	-0.40821138	9.566033	38.689804	-9.335818	80.4	1867.0	5.0	1.0	
9.790000000000001	5.3007627	-0.39743748	9.8677025	38.689804	-9.335818	80.4	1867.0	5.0	1.0	
9.8	5.145139	-0.36272156	10.132261	38.689804	-9.335818	80.4	1867.0	5.0	1.0	
9.81	5.0026846	-0.37708676	10.356119	38.689804	-9.335818	80.4	1867.0	5.0	1.0	
9.82	4.820725	-0.4261679	10.392033	38.689804	-9.335818	80.4	1867.0	5.0	1.0	
9.83	4.620809	-0.46806642	10.286688	38.689804	-9.335818	80.4	1867.0	5.0	1.0	
9.84	4.5238442	-0.51954174	10.195708	38.689804	-9.335818	80.4	1867.0	5.0	1.0	
9.85	4.4939165	-0.56982	9.981427	38.689804	-9.335818	80.4	1867.0	5.0	1.0	
9.86	4.548983	-0.5805939	9.799467	38.689804	-9.335818	80.4	1867.0	5.0	1.0	
9.870000000000001	4.6710877	-0.5351041	9.8042555	38.689804	-9.335818	80.4	1867.0	5.0	1.0	
9.88	4.8733974	-0.47524905	9.866506	38.689804	-9.335818	80.4	1867.0	5.0	1.0	
9.89	5.044583	-0.49200845	9.850943	38.689804	-9.335818	80.4	1867.0	5.0	1.0	
9.9	5.106832	-0.5422867	9.720459	38.689804	-9.335818	80.4	1469.0	5.0	1.0	
9.91	5.118803	-0.6500258	9.478644	38.689804	-9.335818	80.4	1469.0	5.0	1.0	
9.92	5.0374002	-0.7445967	9.343372	38.689804	-9.335818	80.4	1469.0	5.0	1.0	
9.93	5.0505686	-0.80564886	9.105149	38.689804	-9.335818	80.4	1469.0	5.0	1.0	
9.94	5.0374002	-0.8283938	8.827422	38.689804	-9.335818	80.4	1469.0	5.0	1.0	
9.950000000000001	5.0840874	-0.82001406	8.584411	38.689804	-9.335818	80.4	1469.0	5.0	1.0	
9.96	5.1666875	-0.81522566	8.333019	38.689804	-9.335818	80.4	1469.0	5.0	1.0	
9.97	5.243302	-0.79966336	8.175002	38.689804	-9.335818	80.4	1469.0	5.0	1.0	
9.98	5.2744265	-0.80804306	8.136695	38.689804	-9.335818	80.4	1469.0	5.0	1.0	
9.99	5.1475334	-0.82480246	8.010999	38.689804	-9.335818	80.4	1469.0	5.0	1.0	
10.0	4.996699	-0.961272	8.039729	38.689804	-9.335818	80.4	1469.0	5.0	1.0	
10.01	4.847061	-1.0594343	8.119935	38.689804	-9.335818	80.4	1469.0	5.0	1.0	
10.02	4.7261543	-1.1085154	8.039729	38.689804	-9.335818	80.4	1469.0	5.0	1.0	
10.03	4.6519337	-1.1168951	7.928399	38.689804	-9.335818	80.4	1469.0	5.0	1.0	
10.040000000000001	4.675876	-1.1240777	7.8158712	38.689804	-9.335818	80.4	1469.0	5.0	1.0	
10.05	4.7141833	-1.1061212	7.7189064	38.689804	-9.335818	80.4	1469.0	5.0	1.0	
10.06	4.757279	-1.1659763	7.607576	38.689804	-9.335818	80.4	1469.0	5.0	1.0	
10.07	4.748899	-1.2030864	7.493851	38.689804	-9.335818	80.4	1469.0	5.0	1.0	
10.08	4.7656584	-1.2413936	7.40766	38.689804	-9.335818	80.4	1469.0	5.0	1.0	
10.09	4.747702	-1.2964603	7.419631	38.689804	-9.335818	80.4	1469.0	5.0	1.0	
10.1	4.709395	-1.340753	7.4950485	38.689804	-9.335818	80.4	1469.0	5.0	1.0	
10.11	4.68665	-1.3682863	7.529764	38.689804	-9.335818	80.4	1469.0	5.0	1.0	
10.120000000000001	4.6471453	-1.3515269	7.526173	38.689804	-9.335818	80.4	1469.0	5.0	1.0	
10.13	4.626795	-1.376666	7.418434	38.689804	-9.335818	80.4	1469.0	5.0	1.0	
10.14	4.571728	-1.4030021	7.241263	38.689804	-9.335818	80.4	1469.0	5.0	1.0	
10.15	4.5896845	-1.4185646	7.053318	38.689804	-9.335818	80.4	1469.0	5.0	1.0	
10.16	4.5860934	-1.4197617	7.0245876	38.689804	-9.335818	80.4	1469.0	5.0	1.0	
10.17	4.620809	-1.4532804	7.0006456	38.689804	-9.335818	80.4	1469.0	5.0	1.0	
10.18	4.643554	-1.4867992	6.96593	38.689804	-9.335818	80.4	1469.0	5.0	1.0	
10.19	4.687847	-1.5011644	7.015011	38.689804	-9.335818	80.4	1469.0	5.0	1.0	
10.200000000000001	4.771644	-1.5634137	7.111976	38.689804	-9.335818	80.4	1469.0	5.0	1.0	
10.21	4.7776294	-1.6160861	7.2185183	38.689804	-9.335818	80.4	1469.0	5.0	1.0	
10.22	4.8243165	-1.6795325	7.321469	38.689804	-9.335818	80.4	1469.0	5.0	1.0	
10.23	4.927267	-1.7274165	7.4567413	38.689804	-9.335818	80.4	1469.0	5.0	1.0	
10.24	5.0601454	-1.7753005	7.5788455	38.689804	-9.335818	80.4	1469.0	5.0	1.0	
10.25	5.213374	-1.7717092	7.7919292	38.689804	-9.335818	80.4	1469.0	5.0	1.0	
10.26	5.409699	-1.7345991	7.965509	38.689804	-9.335818	80.4	1469.0	5.0	1.0	
10.27	5.5162406	-1.6759412	7.961918	38.689804	-9.335818	80.4	1469.0	5.0	1.0	
10.28	5.6227827	-1.6160861	7.8469963	38.689804	-9.335818	80.4	1469.0	5.0	1.0	
10.290000000000001	5.6551046	-1.5622166	7.837419	38.689804	-9.335818	80.4	1469.0	5.0	1.0	
10.3	5.7724204	-1.4676456	7.801506	38.689804	-9.335818	80.4	1469.0	5.0	1.0	
10.31	5.8262897	-1.3850456	7.6135616	38.689804	-9.335818	80.4	1469.0	5.0	1.0	
10.32	5.8801594	-1.2976574	7.3442135	38.689804	-9.335818	80.4	1469.0	5.0	1.0	
10.33	5.9244523	-1.1959038	7.1634517	38.689804	-9.335818	80.4	1469.0	5.0	1.0	
10.34	5.9483943	-1.1456255	7.061698	38.689804	-9.335818	80.4	1469.0	5.0	1.0	
10.35	5.979519	-1.1168951	7.076063	38.689804	-9.335818	80.4	1469.0	5.0	1.0	
10.36	5.985504	-1.0893618	7.1861963	38.689804	-9.335818	80.4	1469.0	5.0	1.0	
10.370000000000001	5.9890957	-1.0785879	7.359776	38.689804	-9.335818	80.4	1469.0	5.0	1.0	
10.38	5.9986725	-1.1731589	7.559692	38.689804	-9.335818	80.4	1469.0	5.0	1.0	
10.39	5.9926867	-1.328782	7.728483	38.689804	-9.335818	80.4	1469.0	5.0	1.0	
10.4	5.9926867	-1.328782	7.728483	38.689804	-9.335818	80.4	1469.0	5.0	1.0	
10.41	6.301539	-1.6101006	8.01459	38.689804	-9.335818	80.4	1469.0	5.0	1.0	
10.42	6.5720835	-1.7118542	8.401254	38.689804	-9.335818	80.4	1469.0	5.0	1.0	
10.43	6.8318543	-1.7681179	8.944737	38.689804	-9.335818	80.4	1469.0	5.0	1.0	
10.44	7.0724716	-1.7812861	9.460688	38.689804	-9.335818	80.4	1469.0	5.0	1.0	
10.450000000000001	7.2340803	-1.7369933	9.953894	38.689804	-9.335818	80.4	1469.0	5.0	1.0	
10.46	7.2592196	-1.7429788	10.346542	38.689804	-9.335818	80.4	1469.0	5.0	1.0	
10.47	6.839037	-2.087744	10.461464	38.689804	-9.335818	80.4	1469.0	5.0	1.0	
10.48	6.4392056	-2.4516625	10.152613	38.689804	-9.335818	80.4	1469.0	5.0	1.0	
10.49	6.1243677	-2.6563668	9.7084875	38.689804	-9.335818	80.4	1469.0	5.0	1.0	
10.5	5.901707	-2.834735	9.340978	38.689804	-9.335818	80.4	1469.0	5.0	1.0	
10.51	5.85502	-3.0705638	9.012972	38.689804	-9.335818	80.4	1469.0	5.0	1.0	
10.52	5.9531827	-3.3494883	8.7532015	38.689804	-9.335818	80.4	1469.0	5.0	1.0	
10.53	6.2105594	-3.4620156	8.615535	38.689804	-9.335818	80.4	1469.0	5.0	1.0	
10.540000000000001	6.5744777	-3.300407	8.577228	38.689804	-9.335818	80.4	1469.0	5.0	1.0	
10.55	6.8366427	-3.0813377	8.415619	38.689804	-9.335818	80.4	1469.0	5.0	1.0	
10.56	6.9012866	-2.9532478	8.252813	38.689804	-9.335818	80.4	1469.0	5.0	1.0	
10.57	6.7348895	-2.7629087	8.1319065	38.689804	-9.335818	80.4	1469.0	5.0	1.0	
10.58	6.3482256	-2.610877	7.9487495	38.689804	-9.335818	80.4	1469.0	5.0	1.0	
10.59	5.8358665	-2.5258827	7.6829934	38.689804	-9.335818	80.4	1469.0	5.0	1.0	
10.6	5.269638	-2.4732103	7.299921	38.689804	-9.335818	80.4	1469.0	5.0	1.0	
10.61	4.722563	-2.4612393	6.906075	38.689804	-9.335818	80.4	1469.0	5.0	1.0	
10.620000000000001	4.1635165	-2.5342624	6.31351	38.689804	-9.335818	80.4	1469.0	5.0	1.0	
10.63	3.7481227	-2.4947581	5.8741736	38.689804	-9.335818	80.4	1469.0	5.0	1.0	
10.64	3.7481227	-2.4947581	5.8741736	38.689804	-9.335818	80.4	1469.0	5.0	1.0	
10.65	3.3913867	-2.5833437	5.521029	38.689804	-9.335818	80.4	1469.0	5.0	1.0	
10.66	3.0669725	-2.7461493	5.088876	38.689804	-9.335818	80.4	1469.0	5.0	1.0	
10.67	3.2752678	-2.7114334	4.915296	38.689804	-9.335818	80.4	1469.0	5.0	1.0	
10.68	3.6822822	-2.4971523	4.9069166	38.689804	-9.335818	80.4	1469.0	5.0	1.0	
10.69	4.1826706	-2.3942018	5.085284	38.689804	-9.335818	80.4	1469.0	5.0	1.0	
10.700000000000001	4.656722	-2.421735	5.2840033	38.689804	-9.335818	80.4	1469.0	5.0	1.0	
10.71	5.1319714	-2.3714569	5.485116	38.689804	-9.335818	80.4	1469.0	5.0	1.0	
10.72	5.592855	-2.3678656	5.843049	38.689804	-9.335818	80.4	1469.0	5.0	1.0	
10.73	5.955577	-2.4133554	6.483498	38.689804	-9.335818	80.4	1469.0	5.0	1.0	
10.74	6.194997	-2.4516625	7.2807674	38.689804	-9.335818	80.4	1469.0	5.0	1.0	
10.75	6.3206925	-2.468422	8.185776	38.689804	-9.335818	80.4	1469.0	5.0	1.0	
10.76	6.3446345	-2.4875755	9.100361	38.689804	-9.335818	80.4	1469.0	5.0	1.0	
10.77	6.2847795	-2.4983494	9.726444	38.689804	-9.335818	80.4	1469.0	5.0	1.0	
10.78	6.1638722	-2.457648	10.01734	38.689804	-9.335818	80.4	1469.0	5.0	1.0	
10.790000000000001	6.019023	-2.360683	10.032902	38.689804	-9.335818	80.4	1469.0	5.0	1.0	
10.8	5.8705826	-2.2852654	9.661801	38.689804	-9.335818	80.4	1469.0	5.0	1.0	
10.81	5.6766524	-2.1942859	9.046491	38.689804	-9.335818	80.4	1469.0	5.0	1.0	
10.82	5.6227827	-1.99437	8.556877	38.689804	-9.335818	80.4	1469.0	5.0	1.0	
10.83	5.5701103	-1.7753005	8.075643	38.689804	-9.335818	80.4	1469.0	5.0	1.0	
10.84	5.5258174	-1.5957354	7.6590514	38.689804	-9.335818	80.4	1469.0	5.0	1.0	
10.85	5.5102553	-1.4820108	7.3777328	38.689804	-9.335818	80.4	1469.0	5.0	1.0	
10.86	5.483919	-1.4628572	7.2245035	38.689804	-9.335818	80.4	1469.0	5.0	1.0	
10.870000000000001	5.475539	-1.4676456	7.144298	38.689804	-9.335818	80.4	1469.0	5.0	1.0	
10.88	5.459977	-1.4556746	7.026982	38.689804	-9.335818	80.4	1469.0	5.0	1.0	
10.89	5.439626	-1.459266	7.061698	38.689804	-9.335818	80.4	1469.0	5.0	1.0	
10.9	5.4420204	-1.4616601	7.193379	38.689804	-9.335818	80.4	1469.0	5.0	1.0	
10.91	5.407305	-1.4616601	7.249643	38.689804	-9.335818	80.4	1469.0	5.0	1.0	
10.92	5.3833623	-1.5167267	7.327454	38.689804	-9.335818	80.4	1469.0	5.0	1.0	
10.93	5.3474493	-1.6448165	7.419631	38.689804	-9.335818	80.4	1469.0	5.0	1.0	
10.94	5.579687	-1.6376339	7.4723034	38.689804	-9.335818	80.4	1469.0	5.0	1.0	
10.950000000000001	5.9400144	-1.4544775	7.386112	38.689804	-9.335818	80.4	1469.0	5.0	1.0	
10.96	6.339846	-1.2940661	7.422025	38.689804	-9.335818	80.4	1469.0	5.0	1.0	
10.97	6.7265096	-1.1001357	7.469909	38.689804	-9.335818	80.4	1469.0	5.0	1.0	
10.98	6.9491706	-0.8858546	7.49026	38.689804	-9.335818	80.4	1469.0	5.0	1.0	
10.99	7.1431007	-0.6476316	7.5848308	38.689804	-9.335818	80.4	1469.0	5.0	1.0	
11.0	7.0808516	-0.5506664	7.630321	38.689804	-9.335818	80.4	1469.0	5.0	1.0	
11.01	6.903681	-0.60453594	7.6267295	38.689804	-9.335818	80.4	1469.0	5.0	1.0	
11.02	6.631939	-0.79128367	7.639898	38.689804	-9.335818	80.4	1469.0	5.0	1.0	
11.03	6.3542113	-0.9720459	7.7224975	38.689804	-9.335818	80.4	1469.0	5.0	1.0	
11.040000000000001	6.1423244	-1.1827357	7.6829934	38.689804	-9.335818	80.4	1469.0	5.0	1.0	
11.05	5.9926867	-1.2988545	7.4687123	38.689804	-9.335818	80.4	1469.0	5.0	1.0	
11.06	5.9807158	-1.3455414	7.3047094	38.689804	-9.335818	80.4	1469.0	5.0	1.0	
11.07	6.0944405	-1.2641385	7.261614	38.689804	-9.335818	80.4	1469.0	5.0	1.0	
11.08	6.4368114	-0.94451255	7.2149267	38.689804	-9.335818	80.4	1469.0	5.0	1.0	
11.09	6.8438253	-0.5398925	7.088034	38.689804	-9.335818	80.4	1469.0	5.0	1.0	
11.1	7.1502833	-0.1388637	7.1383123	38.689804	-9.335818	80.4	1469.0	5.0	1.0	
11.11	7.2963295	0.18435353	7.2819643	38.689804	-9.335818	80.4	1469.0	5.0	1.0	
11.120000000000001	7.2149267	0.1400608	7.4351935	38.689804	-9.335818	80.4	1469.0	5.0	1.0	
11.13	6.9707184	-0.20709845	7.547721	38.689804	-9.335818	80.4	1469.0	5.0	1.0	
11.14	6.6654577	-0.7338228	7.5213847	38.689804	-9.335818	80.4	1469.0	5.0	1.0	
11.15	6.420052	-1.3551182	7.4363904	38.689804	-9.335818	80.4	95572.0	5.0	1.0	
11.16	6.265626	-1.9416976	7.339425	38.689804	-9.335818	80.4	95572.0	5.0	1.0	
11.17	6.671443	-2.1440077	7.253234	38.689804	-9.335818	80.4	95572.0	5.0	1.0	
11.18	7.6267295	-1.6831238	6.963536	38.689804	-9.335818	80.4	95572.0	5.0	1.0	
11.19	8.736442	-0.81283146	6.8067155	38.689804	-9.335818	80.4	95572.0	5.0	1.0	
11.200000000000001	9.799467	0.25617957	6.7025676	38.689804	-9.335818	80.4	95572.0	5.0	1.0	
11.21	9.799467	0.25617957	6.7025676	38.689804	-9.335818	80.4	95572.0	5.0	1.0	
11.22	11.192893	1.6687586	6.4523735	38.689804	-9.335818	80.4	95572.0	5.0	1.0	
11.23	11.2371855	1.9153614	6.1542954	38.689804	-9.335818	80.4	95572.0	5.0	1.0	
11.24	10.904391	1.8746599	5.7185507	38.689804	-9.335818	80.4	95572.0	5.0	1.0	
11.25	10.286688	1.5813702	5.3007627	38.689804	-9.335818	80.4	95572.0	5.0	1.0	
11.26	9.496601	1.0151415	5.3606176	38.689804	-9.335818	80.4	95572.0	5.0	1.0	
11.27	8.686164	0.21068975	6.0716953	38.689804	-9.335818	80.4	95572.0	5.0	1.0	
11.28	7.893683	-0.40940848	6.963536	38.689804	-9.335818	80.4	95572.0	5.0	1.0	
11.290000000000001	7.2544312	-0.7733272	7.559692	38.689804	-9.335818	80.4	95572.0	5.0	1.0	
11.3	6.5589156	-1.30484	7.9990277	38.689804	-9.335818	80.4	95572.0	5.0	1.0	
11.31	5.7377043	-1.8938135	8.401254	38.689804	-9.335818	80.4	95572.0	5.0	1.0	
11.32	5.129577	-2.3319526	8.670602	38.689804	-9.335818	80.4	95572.0	5.0	1.0	
11.33	4.867412	-2.4947581	8.471883	38.689804	-9.335818	80.4	95572.0	5.0	1.0	
11.34	4.876989	-2.4911668	7.878121	38.689804	-9.3358135	80.4	95572.0	5.0	1.0	
11.35	5.104438	-2.3750482	7.299921	38.689804	-9.3358135	80.4	95572.0	5.0	1.0	
11.36	5.5521536	-2.1272483	6.8318543	38.689804	-9.3358135	80.4	95572.0	5.0	1.0	
11.370000000000001	6.0920463	-1.922544	6.5445504	38.689804	-9.3358135	80.4	95572.0	5.0	1.0	
11.38	6.4763155	-1.9776106	6.5325794	38.689804	-9.3358135	80.4	95572.0	5.0	1.0	
11.39	6.8067155	-2.0709844	6.3470287	38.689804	-9.3358135	80.4	95572.0	5.0	1.0	
11.4	7.133524	-2.054225	5.768829	38.689804	-9.3358135	80.4	95572.0	5.0	1.0	
11.41	7.586028	-2.0362685	5.088876	38.689804	-9.3358135	80.4	95572.0	5.0	1.0	
11.42	7.741651	-1.9979613	5.2636523	38.689804	-9.3358135	80.4	95572.0	5.0	1.0	
11.43	7.785944	-1.9045875	5.650316	38.689804	-9.3358135	80.4	95572.0	5.0	1.0	
11.44	7.7129207	-1.9488802	6.101623	38.689804	-9.3358135	80.4	95572.0	5.0	1.0	
11.450000000000001	7.524976	-1.9955671	6.55293	38.689804	-9.3358135	80.4	95572.0	5.0	1.0	
11.46	7.2867527	-2.0901382	6.9012866	38.689804	-9.3358135	80.4	95572.0	5.0	1.0	
11.47	7.0006456	-2.304419	7.0844426	38.689804	-9.3358135	80.4	95572.0	5.0	1.0	
11.48	6.740875	-2.5594015	7.2005615	38.689804	-9.3358135	80.4	95572.0	5.0	1.0	
11.49	6.6271505	-2.7234044	7.4268136	38.689804	-9.3358135	80.4	95572.0	5.0	1.0	
11.5	6.669049	-2.7952304	7.631518	38.689804	-9.3358135	80.4	95572.0	5.0	1.0	
11.51	6.7684083	-2.778471	7.607576	38.689804	-9.3358135	80.4	95572.0	5.0	1.0	
11.52	6.839037	-2.7006595	7.3992805	38.689804	-9.3358135	80.4	95572.0	5.0	1.0	
11.53	6.811504	-2.5390508	6.96593	38.689804	-9.3358135	80.4	95572.0	5.0	1.0	
11.540000000000001	6.751649	-2.373851	6.634333	38.689804	-9.3358135	80.4	95572.0	5.0	1.0	
11.55	6.661866	-2.31639	6.411672	38.689804	-9.3358135	80.4	95572.0	5.0	1.0	
11.56	6.567295	-2.2960393	6.2345014	38.689804	-9.3358135	80.4	95572.0	5.0	1.0	
11.57	6.5230026	-2.2888567	6.1542954	38.689804	-9.3358135	80.4	95572.0	5.0	1.0	
11.58	6.528988	-2.2732944	6.194997	38.689804	-9.3358135	80.4	95572.0	5.0	1.0	
11.59	6.477513	-2.3187842	6.129156	38.689804	-9.3358135	80.4	95572.0	5.0	1.0	
11.6	6.408081	-2.3870192	6.0226145	38.689804	-9.3358135	80.4	95572.0	5.0	1.0	
11.61	6.329072	-2.4839842	6.054936	38.689804	-9.3358135	80.4	95572.0	5.0	1.0	
11.620000000000001	6.2979474	-2.5617957	6.05733	38.689804	-9.3358135	80.4	95572.0	5.0	1.0	
11.63	6.2979474	-2.5617957	6.05733	38.689804	-9.3358135	80.4	95572.0	5.0	1.0	
11.64	6.4667387	-2.541445	5.935226	38.689804	-9.3358135	80.4	95572.0	5.0	1.0	
11.65	6.6642604	-2.493561	5.925649	38.689804	-9.3358135	80.4	95572.0	5.0	1.0	
11.66	6.8749504	-2.3870192	5.7041855	38.689804	-9.3358135	80.4	95572.0	5.0	1.0	
11.67	7.026982	-2.3319526	5.3594203	38.689804	-9.3358135	80.4	95572.0	5.0	1.0	
11.68	7.1383123	-2.372654	5.0505686	38.689804	-9.3358135	80.4	95572.0	5.0	1.0	
11.69	7.1383123	-2.372654	5.0505686	38.689804	-9.3358135	80.4	95572.0	5.0	1.0	
11.700000000000001	7.2065473	-2.3654714	4.495114	38.689804	-9.3358135	80.4	95572.0	5.0	1.0	
11.71	7.1646485	-2.433706	4.3754034	38.689804	-9.3358135	80.4	95572.0	5.0	1.0	
11.72	7.08564	-2.505532	4.308366	38.689804	-9.3358135	80.4	95572.0	5.0	1.0	
11.73	6.9862804	-2.5785553	4.471172	38.689804	-9.3358135	80.4	95572.0	5.0	1.0	
11.74	6.9168487	-2.6431987	4.853047	38.689804	-9.3358135	80.4	95572.0	5.0	1.0	
11.75	6.9527617	-2.5689783	5.094861	38.689804	-9.3358135	80.4	95572.0	5.0	1.0	
11.76	6.955156	-2.4025815	5.1343656	38.689804	-9.3358135	80.4	95572.0	5.0	1.0	
11.77	6.9120603	-2.3535004	4.959589	38.689804	-9.3358135	80.4	95572.0	5.0	1.0	
11.78	6.841431	-2.2397757	4.771644	38.689804	-9.3358135	80.4	95572.0	5.0	1.0	
11.790000000000001	6.8007298	-2.1308396	4.429273	38.689804	-9.3358135	80.4	95572.0	5.0	1.0	
11.8	6.6522894	-2.0494366	4.120421	38.689804	-9.3358135	80.4	95572.0	5.0	1.0	
11.81	6.5577183	-2.0111294	3.892972	38.689804	-9.3358135	80.4	95572.0	5.0	1.0	
11.82	6.5948286	-1.9321208	3.833117	38.689804	-9.3358135	80.4	95572.0	5.0	1.0	
11.83	6.811504	-1.7753005	3.679888	38.689804	-9.3358135	80.4	95572.0	5.0	1.0	
11.84	7.038953	-1.4891934	3.594894	38.689804	-9.3358135	80.4	95572.0	5.0	1.0	
11.85	7.2352777	-1.2617443	3.539827	38.689804	-9.3358135	80.4	95572.0	5.0	1.0	
11.86	7.193379	-1.1719618	3.442862	38.689804	-9.3358135	80.4	95572.0	5.0	1.0	
11.870000000000001	6.9479733	-1.3000516	3.3674448	38.689804	-9.3358135	80.4	95572.0	5.0	1.0	
11.88	6.707356	-1.5239093	3.4991257	38.689804	-9.3358135	80.4	95572.0	5.0	1.0	
11.89	6.5984197	-1.6663644	3.9432502	38.689804	-9.3358135	80.4	95572.0	5.0	1.0	
11.9	6.7444663	-1.6065093	4.1419687	38.689804	-9.3358135	80.4	95572.0	5.0	1.0	
11.91	7.041347	-1.3994108	4.220978	38.689804	-9.3358135	80.4	95572.0	5.0	1.0	
11.92	7.323863	-1.1707647	4.0904937	38.689804	-9.3358135	80.4	95572.0	5.0	1.0	
11.93	7.5800424	-0.92655605	3.9097314	38.689804	-9.3358135	80.4	95572.0	5.0	1.0	
11.94	7.7248917	-0.7637503	3.7828386	38.689804	-9.3358135	80.4	95572.0	5.0	1.0	
11.950000000000001	7.704541	-0.6799533	3.7002387	38.689804	-9.3358135	80.4	95572.0	5.0	1.0	
11.96	7.595605	-0.79846627	3.715801	38.689804	-9.3358135	80.4	95572.0	5.0	1.0	
11.97	7.2352777	-1.1659763	3.8869865	38.689804	-9.3358135	80.4	95572.0	5.0	1.0	
11.98	6.754043	-1.7190368	4.4196963	38.689804	-9.3358135	80.4	95572.0	5.0	1.0	
11.99	6.3566055	-2.0039468	5.2516813	38.689804	-9.3358135	80.4	95572.0	5.0	1.0	
12.0	6.039374	-2.2242134	5.685032	38.689804	-9.3358135	80.4	95572.0	5.0	1.0	
12.01	5.865794	-2.3175871	5.8574142	38.689804	-9.3358135	80.4	95572.0	5.0	1.0	
12.02	5.6790466	-2.3786395	5.767632	38.689804	-9.3358135	80.4	95572.0	5.0	1.0	
12.030000000000001	5.6646814	-2.3355439	5.555745	38.689804	-9.3358135	80.4	95572.0	5.0	1.0	
12.040000000000001	5.6658783	-2.3415294	5.2361193	38.689804	-9.3358135	80.4	95572.0	5.0	1.0	
12.05	5.8346696	-2.2481554	5.04578	38.689804	-9.3358135	80.4	95572.0	5.0	1.0	
12.06	6.017826	-2.2744915	5.209783	38.689804	-9.3358135	80.4	55395.0	5.0	1.0	
12.07	6.0848637	-2.3594859	5.6108117	38.689804	-9.3358135	80.4	55395.0	5.0	1.0	
12.08	6.1159883	-2.5151088	5.8681884	38.689804	-9.3358135	80.4	55395.0	5.0	1.0	
12.09	6.0118403	-2.8933928	6.2129536	38.689804	-9.3358135	80.4	55395.0	5.0	1.0	
12.1	6.0238113	-3.309984	6.455965	38.689804	-9.3358135	80.4	55395.0	5.0	1.0	
12.11	6.3326635	-3.6056678	6.811504	38.689804	-9.3358135	80.4	55395.0	5.0	1.0	
12.120000000000001	6.8557963	-3.6020765	7.228095	38.689804	-9.3358135	80.4	55395.0	5.0	1.0	
12.13	7.2711906	-3.4452562	7.392098	38.689804	-9.3358135	80.4	55395.0	5.0	1.0	
12.14	7.4974427	-3.514688	7.313089	38.689804	-9.3358135	80.4	55395.0	5.0	1.0	
12.15	7.6614456	-3.5745432	7.3765354	38.689804	-9.3358135	80.4	55395.0	5.0	1.0	
12.16	7.728483	-3.5733461	7.041347	38.689804	-9.3358135	80.4	55395.0	5.0	1.0	
12.17	7.7440453	-3.5793316	6.4966664	38.689804	-9.3358135	80.4	55395.0	5.0	1.0	
12.18	7.926005	-3.4596214	6.0980315	38.689804	-9.3358135	80.4	55395.0	5.0	1.0	
12.19	8.289924	-3.2213984	6.078878	38.689804	-9.3358135	80.4	55395.0	5.0	1.0	
12.200000000000001	8.664616	-2.992752	6.591237	38.689804	-9.3358135	80.4	55395.0	5.0	1.0	
12.21	9.082404	-2.8682537	7.606379	38.689804	-9.3358135	80.4	55395.0	5.0	1.0	
12.22	9.411607	-2.89459	9.911995	38.689804	-9.3358135	80.4	55395.0	5.0	1.0	
12.23	9.411607	-2.89459	9.911995	38.689804	-9.3358135	80.4	55395.0	5.0	1.0	
12.24	10.019734	-2.89459	9.911995	38.689804	-9.3358135	80.4	55395.0	5.0	1.0	
12.25	10.382456	-2.7665	10.930728	38.689804	-9.3358135	80.4	55395.0	5.0	1.0	
12.26	10.732009	-2.5917234	11.829751	38.689804	-9.3358135	80.4	55395.0	5.0	1.0	
12.27	10.753557	-2.4995465	12.276269	38.689804	-9.3358135	80.4	55395.0	5.0	1.0	
12.280000000000001	10.736797	-2.4229321	12.355278	38.689804	-9.3358135	80.4	55395.0	5.0	1.0	
12.290000000000001	10.59554	-2.2038627	12.202049	38.689804	-9.3358135	80.4	55395.0	5.0	1.0	
12.3	10.3453455	-1.6759412	12.044032	38.689804	-9.3358135	80.4	55395.0	5.0	1.0	
12.31	10.055647	-1.0163386	12.2080345	38.689804	-9.3358135	80.4	55395.0	5.0	1.0	
12.32	9.660604	-0.29927522	12.522872	38.689804	-9.3358135	80.4	55395.0	5.0	1.0	
12.33	9.148245	0.36750996	12.662932	38.689804	-9.3358135	80.4	55395.0	5.0	1.0	
12.34	7.1502833	0.92176765	11.592725	38.689804	-9.3358135	80.4	55395.0	5.0	1.0	
12.35	7.1502833	0.92176765	11.592725	38.689804	-9.3358135	80.4	55395.0	5.0	1.0	
12.36	4.663905	0.50278234	8.856153	38.689804	-9.3358135	80.4	55395.0	5.0	1.0	
12.370000000000001	3.8402996	0.46208093	7.477092	38.689804	-9.3358135	80.4	55395.0	5.0	1.0	
12.38	3.2106245	0.37828386	6.6654577	38.689804	-9.3358135	80.4	55395.0	5.0	1.0	
12.39	2.8060043	0.36750996	6.089652	38.689804	-9.3358135	80.4	55395.0	5.0	1.0	
12.4	2.574964	0.30765492	5.604826	38.689804	-9.3358135	80.4	55395.0	5.0	1.0	
12.41	2.3307555	0.16639702	5.446809	38.689804	-9.3358135	80.4	55395.0	5.0	1.0	
12.42	2.3187842	0.20829555	5.209783	38.689804	-9.3358135	80.4	55395.0	5.0	1.0	
12.43	2.3427265	0.2777274	5.0876784	38.689804	-9.3358135	80.4	55395.0	5.0	1.0	
12.44	2.3235726	0.21428105	5.1678843	38.689804	-9.3358135	80.4	55395.0	5.0	1.0	
12.450000000000001	2.4636335	0.029927522	5.4982843	38.689804	-9.3358135	80.4	55395.0	5.0	1.0	
12.46	2.6288335	-0.24779987	5.732916	38.689804	-9.3358135	80.4	55395.0	5.0	1.0	
12.47	2.858677	-0.59735334	5.6431336	38.689804	-9.3358135	80.4	55395.0	5.0	1.0	
12.48	3.4608185	-0.9995792	5.6443305	38.689804	-9.3358135	80.4	55395.0	5.0	1.0	
12.49	4.253299	-1.13964	6.3829417	38.689804	-9.3358135	80.4	55395.0	5.0	1.0	
12.5	5.1547165	-1.2006922	7.973889	38.689804	-9.3358135	80.4	55395.0	5.0	1.0	
12.51	6.172252	-1.2401965	10.752359	38.689804	-9.3358135	80.4	55395.0	5.0	1.0	
12.52	6.9623384	-1.2437878	13.767857	38.689804	-9.3358135	80.4	55395.0	5.0	1.0	
12.530000000000001	7.323863	-1.2761095	15.702372	38.689804	-9.3358135	80.4	55395.0	5.0	1.0	
12.540000000000001	7.076063	-1.4257472	16.051926	38.689804	-9.3358135	80.4	55395.0	5.0	1.0	
12.55	6.3661823	-1.602918	15.119384	38.689804	-9.3358135	80.4	55395.0	5.0	1.0	
12.56	5.6766524	-1.7788919	13.79539	38.689804	-9.3358135	80.4	55395.0	5.0	1.0	
12.57	5.2624555	-1.7812861	12.543222	38.689804	-9.3358135	80.4	55395.0	5.0	1.0	
12.58	4.912902	-1.7226281	11.273099	38.689804	-9.3358135	80.4	55395.0	5.0	1.0	
12.59	4.685453	-1.5777789	10.46745	38.689804	-9.3358135	80.4	55395.0	5.0	1.0	
12.6	4.5298295	-1.411382	10.278308	38.689804	-9.3358135	80.4	55395.0	5.0	1.0	
12.61	4.378995	-1.283292	9.915586	38.689804	-9.3358135	80.4	55395.0	5.0	1.0	
12.620000000000001	4.225766	-1.1192893	9.3661175	38.689804	-9.3358135	80.4	55395.0	5.0	1.0	
12.63	4.0857053	-0.9995792	8.775947	38.689804	-9.3358135	80.4	55395.0	5.0	1.0	
12.64	3.750517	-1.033098	7.892486	38.689804	-9.3358135	80.4	55395.0	5.0	1.0	
12.65	3.2944214	-1.151611	6.9168487	38.689804	-9.3358135	80.4	55395.0	5.0	1.0	
12.66	2.8802247	-1.2988545	6.1890116	38.689804	-9.3358135	80.4	55395.0	5.0	1.0	
12.67	2.670732	-1.3563153	5.9867015	38.689804	-9.3358135	80.4	55395.0	5.0	1.0	
12.68	2.7114334	-1.3563153	5.9867015	38.689804	-9.3358135	80.4	55395.0	5.0	1.0	
12.69	2.9652188	-1.2258313	6.135142	38.689804	-9.3358135	80.4	55395.0	5.0	1.0	
12.700000000000001	3.309984	-1.1061212	6.1112	38.689804	-9.3358135	80.4	55395.0	5.0	1.0	
12.71	3.642778	-1.0642227	5.932832	38.689804	-9.3358135	80.4	55395.0	5.0	1.0	
12.72	3.8630445	-1.079785	5.9029045	38.689804	-9.3358135	80.4	55395.0	5.0	1.0	
12.73	4.0641575	-1.13964	6.0704985	38.689804	-9.3358135	80.4	55395.0	5.0	1.0	
12.74	4.3382936	-1.1803415	6.5122285	38.689804	-9.3358135	80.4	55395.0	5.0	1.0	
12.75	4.6579194	-1.1312603	7.029376	38.689804	-9.3358135	80.4	55395.0	5.0	1.0	
12.76	5.0505686	-1.0295067	7.511808	38.689804	-9.3358135	80.4	55395.0	5.0	1.0	
12.77	5.353435	-1.0163386	7.9547353	38.689804	-9.3358135	80.4	55395.0	5.0	1.0	
12.780000000000001	5.5880666	-1.0163386	8.348581	38.689804	-9.3358135	80.4	55395.0	5.0	1.0	
12.790000000000001	5.673061	-1.0223241	8.8777	38.689804	-9.3358135	80.4	55395.0	5.0	1.0	
12.8	5.6910176	-0.94810385	9.184157	38.689804	-9.3358135	80.4	55395.0	5.0	1.0	
12.81	5.675455	-0.8726865	9.545682	38.689804	-9.3358135	80.4	55395.0	5.0	1.0	
12.82	5.5258174	-0.81881696	9.849746	38.689804	-9.3358135	80.4	55395.0	5.0	1.0	
12.83	4.8662148	-0.91338795	9.680955	38.689804	-9.3358135	80.4	55395.0	5.0	1.0	
12.84	4.509479	-0.90859956	9.266758	38.689808	-9.3358135	80.6	55395.0	5.0	1.0	
12.85	4.212598	-0.8511387	8.736442	38.689808	-9.3358135	80.6	55395.0	5.0	1.0	
12.86	4.086902	-0.7110779	8.210915	38.689808	-9.3358135	80.6	55395.0	5.0	1.0	
12.870000000000001	4.060566	-0.5398925	7.878121	38.689808	-9.3358135	80.6	55395.0	5.0	1.0	
12.88	4.0797195	-0.40581718	7.5561004	38.689808	-9.3358135	80.6	55395.0	5.0	1.0	
12.89	4.0617633	-0.3172317	7.3669586	38.689808	-9.3358135	80.6	55395.0	5.0	1.0	
12.9	4.143166	-0.23463176	7.2233067	38.689808	-9.3358135	80.6	55395.0	5.0	1.0	
12.91	4.268862	-0.1436521	7.369353	38.689808	-9.3358135	80.6	55395.0	5.0	1.0	
12.92	4.4663835	-0.09935937	7.5920134	38.689808	-9.3358135	80.6	55395.0	5.0	1.0	
12.93	4.51307	-0.077811554	7.9595237	38.689808	-9.3358135	80.6	55395.0	5.0	1.0	
12.94	4.5034933	-0.1400608	8.213309	38.689808	-9.3358135	80.6	55395.0	5.0	1.0	
12.950000000000001	4.4316673	-0.2657564	8.494628	38.689808	-9.3358135	80.6	55395.0	5.0	1.0	
12.96	4.3634324	-0.3866636	8.683769	38.689808	-9.3358135	80.6	55395.0	5.0	1.0	
12.97	4.322731	-0.4285621	8.613141	38.689808	-9.3358135	80.6	55395.0	5.0	1.0	
12.98	4.4340615	-0.37229836	8.602366	38.689808	-9.3358135	80.6	55395.0	5.0	1.0	
12.99	4.703409	-0.3184288	8.781932	38.689808	-9.3358135	80.6	55395.0	5.0	1.0	
13.0	4.9296613	-0.20709845	8.907627	38.689808	-9.3358135	80.6	55395.0	5.0	1.0	
13.01	5.0493712	-0.12210429	9.069236	38.689808	-9.3358135	80.6	55395.0	5.0	1.0	
13.02	5.105635	-0.1352724	9.386468	38.689808	-9.3358135	80.6	55395.0	5.0	1.0	
13.030000000000001	5.033809	-0.19153613	9.700109	38.689808	-9.3358135	80.6	55395.0	5.0	1.0	
13.040000000000001	4.939238	-0.21068975	9.907207	38.689808	-9.3358135	80.6	55395.0	5.0	1.0	
13.05	4.7907977	-0.25737667	10.016143	38.689808	-9.3358135	80.6	55395.0	5.0	1.0	
13.06	4.6698904	-0.32680854	9.904813	38.689808	-9.3358135	80.6	55395.0	5.0	1.0	
13.07	4.570531	-0.36631286	9.6845455	38.689808	-9.3358135	80.6	55395.0	5.0	1.0	
13.08	4.533421	-0.36870706	9.258378	38.689808	-9.3358135	80.6	55395.0	5.0	1.0	
13.09	4.4999022	-0.31244332	8.759187	38.689808	-9.3358135	80.6	55395.0	5.0	1.0	
13.1	4.559757	-0.2657564	8.428787	38.689808	-9.3358135	80.6	55395.0	5.0	1.0	
13.11	4.582502	-0.21906945	8.25401	38.689808	-9.3358135	80.6	55395.0	5.0	1.0	
13.120000000000001	4.5561657	-0.23822308	8.025364	38.689808	-9.3358135	80.6	55395.0	5.0	1.0	
13.13	4.485537	-0.24181437	8.010999	38.689808	-9.3358135	80.6	55395.0	5.0	1.0	
13.14	4.44723	-0.2873042	7.9631147	38.689808	-9.3358135	80.6	55395.0	5.0	1.0	
13.15	4.38498	-0.33399114	8.01459	38.689808	-9.3358135	80.6	55395.0	5.0	1.0	
13.16	4.3047748	-0.40821138	8.026561	38.689808	-9.3358135	80.6	88170.0	5.0	1.0	
13.17	4.271256	-0.4225766	8.074445	38.689808	-9.3358135	80.6	88170.0	5.0	1.0	
13.18	4.280833	-0.4429273	8.192958	38.689808	-9.3358135	80.6	88170.0	5.0	1.0	
13.19	4.3239284	-0.47644615	8.214506	38.689808	-9.3358135	80.6	88170.0	5.0	1.0	
13.200000000000001	4.346673	-0.48482585	8.256405	38.689808	-9.3358135	80.6	88170.0	5.0	1.0	
13.21	4.406528	-0.49679685	8.324639	38.689808	-9.3358135	80.6	88170.0	5.0	1.0	
13.22	4.406528	-0.49679685	8.324639	38.689808	-9.3358135	80.6	88170.0	5.0	1.0	
13.23	4.5286326	-0.60932434	8.825027	38.689808	-9.3358135	80.6	88170.0	5.0	1.0	
13.24	4.5418005	-0.58298814	8.9758625	38.689808	-9.3358135	80.6	88170.0	5.0	1.0	
13.25	4.4687777	-0.62009823	9.108741	38.689808	-9.3358135	80.6	88170.0	5.0	1.0	
13.26	4.256891	-0.7505822	9.160215	38.689808	-9.3358135	80.6	88170.0	5.0	1.0	
13.27	3.9624038	-0.91578215	9.16261	38.689808	-9.3358135	80.6	88170.0	5.0	1.0	
13.280000000000001	3.7792473	-1.0630256	9.188946	38.689808	-9.3358135	80.6	88170.0	5.0	1.0	
13.290000000000001	3.6715083	-1.1492168	9.157822	38.689808	-9.3358135	80.6	88170.0	5.0	1.0	
13.3	3.678691	-1.1599907	8.829816	38.689808	-9.3358135	80.6	88170.0	5.0	1.0	
13.31	3.845088	-1.009156	8.767567	38.689808	-9.3358135	80.6	88170.0	5.0	1.0	
13.32	3.930082	-1.0007763	8.620323	38.689808	-9.3358135	80.6	88170.0	5.0	1.0	
13.33	3.9492357	-0.9540894	8.492233	38.689808	-9.3358135	80.6	88170.0	5.0	1.0	
13.34	3.9791632	-0.91099375	8.487445	38.689808	-9.3358135	80.6	88170.0	5.0	1.0	
13.35	3.9133227	-0.92296475	8.342596	38.689808	-9.3358135	80.6	88170.0	5.0	1.0	
13.36	3.810372	-0.9540894	8.196549	38.689808	-9.3358135	80.6	88170.0	5.0	1.0	
13.370000000000001	3.7241807	-0.9708488	8.095993	38.689808	-9.3358135	80.6	88170.0	5.0	1.0	
13.38	3.7134068	-0.90740246	7.9990277	38.689808	-9.3358135	80.6	88170.0	5.0	1.0	
13.39	3.7792473	-0.81881696	7.8876977	38.689808	-9.3358135	80.6	88170.0	5.0	1.0	
13.4	3.9336734	-0.7278373	7.86615	38.689808	-9.3358135	80.6	88170.0	5.0	1.0	
13.41	4.107253	-0.6811504	7.979874	38.689808	-9.3358135	80.6	88170.0	5.0	1.0	
13.42	4.2700586	-0.62368953	8.06008	38.689808	-9.3358135	80.6	88170.0	5.0	1.0	
13.43	4.4244847	-0.5722142	8.171411	38.689808	-9.3358135	80.6	88170.0	5.0	1.0	
13.44	4.507085	-0.5566519	8.271967	38.689808	-9.3358135	80.6	88170.0	5.0	1.0	
13.450000000000001	4.582502	-0.5470751	8.238448	38.689808	-9.3358135	80.6	88170.0	5.0	1.0	
13.46	4.6160207	-0.5291186	8.198944	38.689808	-9.3358135	80.6	88170.0	5.0	1.0	
13.47	4.6722846	-0.51116204	8.173804	38.689808	-9.3358135	80.6	88170.0	5.0	1.0	
13.48	4.72376	-0.50397944	8.26239	38.689808	-9.3358135	80.6	88170.0	5.0	1.0	
13.49	4.784812	-0.50876784	8.483853	38.689808	-9.3358135	80.6	88170.0	5.0	1.0	
13.5	4.876989	-0.46208093	8.669404	38.689808	-9.3358135	80.6	88170.0	5.0	1.0	
13.51	5.0002904	-0.4285621	8.900445	38.689808	-9.3358135	80.6	88170.0	5.0	1.0	
13.52	5.1726727	-0.33518824	8.905233	38.689808	-9.3358135	80.6	88170.0	5.0	1.0	
13.530000000000001	5.282806	-0.260968	8.7292595	38.689808	-9.3358135	80.6	88170.0	5.0	1.0	
13.540000000000001	5.315128	-0.20350714	8.432379	38.689808	-9.3358135	80.6	88170.0	5.0	1.0	
13.55	5.3235073	-0.21428105	8.185776	38.689808	-9.3358135	80.6	88170.0	5.0	1.0	
13.56	5.2564697	-0.25139117	8.015787	38.689808	-9.3358135	80.6	88170.0	5.0	1.0	
13.57	5.1798553	-0.320823	7.9367785	38.689808	-9.3358135	80.6	88170.0	5.0	1.0	
13.58	5.145139	-0.34596214	7.9487495	38.689808	-9.3358135	80.6	88170.0	5.0	1.0	
13.59	5.116409	-0.33877954	7.9427643	38.689808	-9.3358135	80.6	88170.0	5.0	1.0	
13.6	5.121197	-0.35075054	7.926005	38.689808	-9.3358135	80.6	88170.0	5.0	1.0	
13.61	5.094861	-0.35913026	7.8865004	38.689808	-9.3358135	80.6	88170.0	5.0	1.0	
13.620000000000001	4.995502	-0.36990416	7.8853035	38.689808	-9.3358135	80.6	88170.0	5.0	1.0	
13.63	4.88058	-0.4357447	7.8182654	38.689808	-9.3358135	80.6	88170.0	5.0	1.0	
13.64	4.722563	-0.48482585	7.827842	38.689808	-9.3358135	80.6	88170.0	5.0	1.0	
13.65	4.4424415	-0.5482722	7.668628	38.689808	-9.3358135	80.6	88170.0	5.0	1.0	
13.66	4.4424415	-0.5482722	7.668628	38.689808	-9.3358135	80.6	88170.0	5.0	1.0	
13.67	4.295198	-0.58777654	7.6865845	38.689808	-9.3358135	80.6	88170.0	5.0	1.0	
13.68	4.1958385	-0.62608373	7.7572136	38.689808	-9.3358135	80.6	88170.0	5.0	1.0	
13.69	4.1491513	-0.61052144	7.976283	38.689808	-9.3358135	80.6	88170.0	5.0	1.0	
13.700000000000001	4.1539397	-0.6631939	8.281544	38.689808	-9.3358135	80.6	88170.0	5.0	1.0	
13.71	4.1156325	-0.7314286	8.468291	38.689808	-9.3358135	80.6	88170.0	5.0	1.0	
13.72	4.0521865	-0.8319851	8.615535	38.689808	-9.3358135	80.6	88170.0	5.0	1.0	
13.73	4.074931	-0.9840169	8.725668	38.689808	-9.3358135	80.6	88170.0	5.0	1.0	
13.74	4.0306387	-1.0690111	8.8884735	38.689808	-9.3358135	80.6	88170.0	5.0	1.0	
13.75	4.0892963	-1.1049241	9.032125	38.689808	-9.3358135	80.6	88170.0	5.0	1.0	
13.76	4.0785227	-1.186327	9.150639	38.689808	-9.3358135	80.6	88170.0	5.0	1.0	
13.77	4.0821137	-1.2485762	9.190144	38.689808	-9.3358135	80.6	88170.0	5.0	1.0	
13.780000000000001	4.098873	-1.2246342	9.260772	38.689808	-9.3358135	80.6	88170.0	5.0	1.0	
13.790000000000001	4.0378213	-1.2653356	9.355343	38.689808	-9.3358135	80.6	88170.0	5.0	1.0	
13.8	3.9444473	-1.3072342	9.455899	38.689808	-9.3358135	80.6	88170.0	5.0	1.0	
13.81	3.8379054	-1.377863	9.613917	38.689808	-9.3358135	80.6	88170.0	5.0	1.0	
13.82	3.775656	-1.4556746	9.755175	38.689808	-9.3358135	80.6	88170.0	5.0	1.0	
13.83	3.750517	-1.4987702	9.817424	38.689808	-9.3358135	80.6	88170.0	5.0	1.0	
13.84	3.7948096	-1.5765818	9.797073	38.689808	-9.3358135	80.6	88170.0	5.0	1.0	
13.85	3.9360676	-1.543063	9.719262	38.689808	-9.3358135	80.6	88170.0	5.0	1.0	
13.86	4.122815	-1.4867992	9.496601	38.689808	-9.3358135	80.6	88170.0	5.0	1.0	
13.870000000000001	4.2940006	-1.4437037	9.28232	38.689808	-9.3358135	80.6	88170.0	5.0	1.0	
13.88	4.369418	-1.4401124	9.028535	38.689808	-9.3358135	80.6	88170.0	5.0	1.0	
13.89	4.3897686	-1.4065934	8.893262	38.689808	-9.3358135	80.6	88170.0	5.0	1.0	
13.9	4.369418	-1.4065934	8.892065	38.689808	-9.3358135	80.6	88170.0	5.0	1.0	
13.91	4.3478703	-1.3958195	9.096769	38.689808	-9.3358135	80.6	88170.0	5.0	1.0	
13.92	4.3143516	-1.376666	9.436746	38.689808	-9.3358135	80.6	88170.0	5.0	1.0	
13.93	4.2281604	-1.365892	9.709685	38.689808	-9.3358135	80.6	88170.0	5.0	1.0	
13.94	4.1240125	-1.3706805	10.053253	38.689808	-9.3358135	80.6	88170.0	5.0	1.0	
13.950000000000001	4.0174704	-1.4413095	10.105926	38.689808	-9.3358135	80.6	88170.0	5.0	1.0	
13.96	3.8283286	-1.5155296	9.623494	38.689808	-9.3358135	80.6	88170.0	5.0	1.0	
13.97	3.6739025	-1.5921441	9.095572	38.689808	-9.3358135	80.6	88170.0	5.0	1.0	
13.98	3.642778	-1.6771383	8.870518	38.689808	-9.3358135	80.6	88170.0	5.0	1.0	
13.99	3.7193923	-1.6723499	8.957906	38.689808	-9.3358135	80.6	88170.0	5.0	1.0	
14.0	3.8594532	-1.6424223	9.361329	38.689808	-9.3358135	80.6	88170.0	5.0	1.0	
14.01	3.8594532	-1.6424223	9.361329	38.689808	-9.3358135	80.6	88170.0	5.0	1.0	
14.02	4.010288	-1.5622166	10.457873	38.689808	-9.3358135	80.6	88170.0	5.0	1.0	
14.030000000000001	3.8367083	-1.6053122	10.471041	38.689808	-9.3358135	80.6	88170.0	5.0	1.0	
14.040000000000001	3.4225113	-1.6053122	10.061633	38.689808	-9.3358135	80.6	88170.0	5.0	1.0	
14.05	3.1675289	-1.6759412	9.80665	38.689808	-9.3358135	80.6	88170.0	5.0	1.0	
14.06	3.1675289	-1.6759412	9.80665	38.689808	-9.3358135	80.6	88170.0	5.0	1.0	
14.07	3.4081461	-1.3192052	9.392453	38.689808	-9.3358135	80.6	88170.0	5.0	1.0	
14.08	3.8786068	-0.9983821	9.543288	38.689808	-9.3358135	80.6	88170.0	5.0	1.0	
14.09	4.301183	-0.6811504	9.702502	38.689808	-9.3358135	80.6	88170.0	5.0	1.0	
14.1	4.542998	-0.47764325	9.610326	38.689808	-9.3358135	80.6	88170.0	5.0	1.0	
14.11	4.6698904	-0.39264908	9.4774475	38.689808	-9.3358135	80.6	88170.0	5.0	1.0	
14.120000000000001	4.7285485	-0.37588966	9.276335	38.689808	-9.3358135	80.6	88170.0	5.0	1.0	
14.13	4.8135424	-0.24420857	8.878897	38.689808	-9.3358135	80.6	88170.0	5.0	1.0	
14.14	4.8781857	-0.0047884034	8.413225	38.689808	-9.3358135	80.6	88170.0	5.0	1.0	
14.15	5.044583	0.16879122	8.117541	38.689808	-9.3358135	80.6	88170.0	5.0	1.0	
14.16	5.151125	0.2693477	8.0684595	38.689808	-9.3358135	80.6	98977.0	5.0	1.0	
14.17	5.197812	0.31124622	7.8170686	38.689808	-9.3358135	80.6	98977.0	5.0	1.0	
14.18	5.1559134	0.30166942	7.5525093	38.689808	-9.3358135	80.6	98977.0	5.0	1.0	
14.19	5.2002063	0.23582886	7.49026	38.689808	-9.3358135	80.6	98977.0	5.0	1.0	
14.200000000000001	5.306748	0.130484	7.603985	38.689808	-9.3358135	80.6	98977.0	5.0	1.0	
14.21	5.4025164	0.075417355	7.787141	38.689808	-9.3358135	80.6	98977.0	5.0	1.0	
14.22	5.4025164	0.075417355	7.787141	38.689808	-9.3358135	80.6	98977.0	5.0	1.0	
14.23	5.449203	-0.053869538	7.6746135	38.689808	-9.3358135	80.6	98977.0	5.0	1.0	
14.24	5.446809	-0.053869538	7.6746135	38.689808	-9.3358135	80.6	98977.0	5.0	1.0	
14.25	5.461174	-0.40581718	7.1167645	38.689808	-9.3358135	80.6	98977.0	5.0	1.0	
14.26	5.7963624	-0.52073884	7.219715	38.689808	-9.3358135	80.6	98977.0	5.0	1.0	
14.27	6.295553	-0.48722005	7.836222	38.689808	-9.3358135	80.6	98977.0	5.0	1.0	
14.280000000000001	6.7839704	-0.4189853	8.796297	38.689808	-9.3358135	80.6	98977.0	5.0	1.0	
14.290000000000001	7.049727	-0.37349546	9.599552	38.689808	-9.3358135	80.6	98977.0	5.0	1.0	
14.3	6.9120603	-0.47884035	9.882068	38.689808	-9.3358135	80.6	98977.0	5.0	1.0	
14.31	6.39611	-0.7673417	9.890448	38.689808	-9.3358135	80.6	98977.0	5.0	1.0	
14.32	5.8442464	-1.0773908	9.524135	38.689808	-9.3358135	80.6	98977.0	5.0	1.0	
14.33	5.45878	-1.1994951	9.003395	38.689808	-9.3358135	80.6	98977.0	5.0	1.0	
14.34	5.45878	-1.1994951	9.003395	38.689808	-9.3358135	80.6	98977.0	5.0	1.0	
14.35	5.291186	-1.2880806	8.335413	38.689808	-9.3358135	80.6	98977.0	5.0	1.0	
14.36	5.639542	-1.2533646	8.615535	38.689808	-9.3358135	80.6	98977.0	5.0	1.0	
14.370000000000001	6.1447186	-1.1468226	8.990228	38.689808	-9.3358135	80.6	98977.0	5.0	1.0	
14.38	6.6510925	-1.0043676	9.283517	38.689808	-9.3358135	80.6	98977.0	5.0	1.0	
14.39	7.0664864	-0.91458505	9.303867	38.689808	-9.3358135	80.6	98977.0	5.0	1.0	
14.4	7.383718	-0.842759	9.408015	38.689808	-9.3358135	80.6	98977.0	5.0	1.0	
14.41	7.6123643	-0.8487445	9.452309	38.689808	-9.3358135	80.6	98977.0	5.0	1.0	
14.42	7.7452426	-0.85473	9.184157	38.689808	-9.3358135	80.6	98977.0	5.0	1.0	
14.43	7.941567	-0.7074866	8.597578	38.689808	-9.3358135	80.6	98977.0	5.0	1.0	
14.44	8.145074	-0.5566519	7.831434	38.689808	-9.3358135	80.6	98977.0	5.0	1.0	
14.450000000000001	8.394072	-0.45010993	7.147889	38.689808	-9.3358135	80.6	98977.0	5.0	1.0	
14.46	8.65863	-0.33758244	6.873753	38.689808	-9.3358135	80.6	98977.0	5.0	1.0	
14.47	8.847773	-0.29448682	6.703765	38.689808	-9.3358135	80.6	98977.0	5.0	1.0	
14.48	9.015367	-0.22744916	6.5218053	38.689808	-9.3358135	80.6	98977.0	5.0	1.0	
14.49	8.710106	-0.32920274	6.1746464	38.689808	-9.3358135	80.6	98977.0	5.0	1.0	
14.5	8.397662	-0.5267244	6.015432	38.689808	-9.3358135	80.6	98977.0	5.0	1.0	
14.51	7.973889	-0.81522566	5.6982	38.689808	-9.3358135	80.6	98977.0	5.0	1.0	
14.52	7.620744	-1.033098	5.647922	38.689808	-9.3358135	80.6	98977.0	5.0	1.0	
14.530000000000001	7.4495587	-1.2294226	5.674258	38.689808	-9.3358135	80.6	98977.0	5.0	1.0	
14.540000000000001	7.443573	-1.2761095	5.8801594	38.689808	-9.3358135	80.6	98977.0	5.0	1.0	
14.55	7.3071036	-1.2593501	5.9627595	38.689808	-9.3358135	80.6	98977.0	5.0	1.0	
14.56	6.9850836	-1.3024458	5.957971	38.689808	-9.3358135	80.6	98977.0	5.0	1.0	
14.57	6.513426	-1.3611037	5.853823	38.689808	-9.3358135	80.6	98977.0	5.0	1.0	
14.58	6.0489507	-1.4065934	5.923255	38.689808	-9.3358135	80.6	98977.0	5.0	1.0	
14.59	5.7065797	-1.3862427	6.136339	38.689808	-9.3358135	80.6	98977.0	5.0	1.0	
14.6	5.6419363	-1.2150574	6.4990606	38.689808	-9.3358135	80.6	98977.0	5.0	1.0	
14.61	5.333084	-1.1456255	7.0808516	38.689808	-9.3358135	80.6	98977.0	5.0	1.0	
14.620000000000001	4.783615	-1.2366052	7.1981673	38.689808	-9.3358135	80.6	98977.0	5.0	1.0	
14.63	4.201824	-1.2318168	7.01142	38.689808	-9.3358135	80.6	98977.0	5.0	1.0	
14.64	3.7924154	-1.079785	6.841431	38.689808	-9.3358135	80.6	98977.0	5.0	1.0	
14.65	3.6715083	-0.6380547	6.7444663	38.689808	-9.3358135	80.6	98977.0	5.0	1.0	
14.66	3.764882	-0.2908955	6.573281	38.689808	-9.3358135	80.6	98977.0	5.0	1.0	
14.67	3.8869865	0.21428105	6.884527	38.689808	-9.3358135	80.6	98977.0	5.0	1.0	
14.68	4.187459	0.48482585	6.817489	38.689808	-9.3358135	80.6	98977.0	5.0	1.0	
14.69	3.9121256	0.59735334	6.777985	38.689808	-9.3358135	80.6	98977.0	5.0	1.0	
14.700000000000001	3.6894648	0.6751649	6.9982514	38.689808	-9.3358135	80.6	98977.0	5.0	1.0	
14.71	3.4979286	0.7074866	7.65546	38.689808	-9.3358135	80.6	98977.0	5.0	1.0	
14.72	3.1962593	0.6428431	7.9667063	38.689808	-9.3358135	80.6	98977.0	5.0	1.0	
14.73	3.228581	0.6332663	8.265982	38.689808	-9.3358135	80.6	98977.0	5.0	1.0	
14.74	3.335123	0.7218518	8.4587145	38.689808	-9.3358135	80.6	98977.0	5.0	1.0	
14.75	3.309984	0.7206547	8.763975	38.689808	-9.3358135	80.6	98977.0	5.0	1.0	
14.76	3.2142158	0.6847417	9.153033	38.689808	-9.3358135	80.6	98977.0	5.0	1.0	
14.77	3.0753522	0.7110779	9.009381	38.689808	-9.3358135	80.6	98977.0	5.0	1.0	
14.780000000000001	2.9891608	0.7158663	8.6299	38.689808	-9.3358135	80.6	98977.0	5.0	1.0	
14.790000000000001	3.063381	0.878672	8.692149	38.689808	-9.3358135	80.6	98977.0	5.0	1.0	
14.8	3.0226796	0.89303726	8.65863	38.689808	-9.3358135	80.6	98977.0	5.0	1.0	
14.81	3.0119057	0.8643068	8.550891	38.689808	-9.3358135	80.6	98977.0	5.0	1.0	
14.82	3.2800562	1.0474633	8.62152	38.689808	-9.3358135	80.6	98977.0	5.0	1.0	
14.83	4.012682	1.4377182	8.9998045	38.689808	-9.3358135	80.6	98977.0	5.0	1.0	
14.84	4.985925	1.9189527	9.838972	38.689808	-9.3358135	80.6	98977.0	5.0	1.0	
14.85	5.7065797	2.1918917	10.712855	38.689808	-9.3358135	80.6	98977.0	5.0	1.0	
14.86	5.864597	2.146402	11.042058	38.689808	-9.3358135	80.6	98977.0	5.0	1.0	
14.870000000000001	5.424064	1.9237411	10.81461	38.689808	-9.3358135	80.6	98977.0	5.0	1.0	
14.88	4.7788267	1.6759412	10.18254	38.689808	-9.3358135	80.6	98977.0	5.0	1.0	
14.89	4.5034933	1.638831	9.610326	38.689808	-9.3358135	80.6	98977.0	5.0	1.0	
14.9	4.6698904	1.8890251	9.707291	38.689808	-9.3358135	80.6	98977.0	5.0	1.0	
14.91	5.1104236	2.0374656	10.04607	38.689808	-9.3358135	80.6	98977.0	5.0	1.0	
14.92	5.4025164	2.1284454	10.596737	38.689808	-9.3358135	80.6	98977.0	5.0	1.0	
14.93	5.3845596	2.2218192	10.729615	38.689808	-9.3358135	80.6	98977.0	5.0	1.0	
14.94	5.141548	2.1164744	10.736797	38.689808	-9.3358135	80.6	98977.0	5.0	1.0	
14.950000000000001	4.808754	1.9812019	10.666168	38.689808	-9.3358135	80.6	98977.0	5.0	1.0	
14.96	4.307169	1.673547	10.103531	38.689808	-9.3358135	80.6	98977.0	5.0	1.0	
14.97	3.9791632	1.5957354	9.763555	38.689808	-9.3358135	80.6	98977.0	5.0	1.0	
14.98	3.870227	1.7609353	9.554062	38.689808	-9.3358135	80.6	98977.0	5.0	1.0	
14.99	3.608062	2.0147207	9.19972	38.689808	-9.3358135	80.6	98977.0	5.0	1.0	
15.0	3.3327289	2.0829554	9.483433	38.689808	-9.3358135	80.6	98977.0	5.0	1.0	
15.01	2.8538885	1.9201498	9.621099	38.689808	-9.3358135	80.6	98977.0	5.0	1.0	
15.02	2.1200657	1.7788919	9.115923	38.689808	-9.3358135	80.6	98977.0	5.0	1.0	
15.030000000000001	1.471237	1.7501614	8.740033	38.689808	-9.3358135	80.6	98977.0	5.0	1.0	
15.040000000000001	1.2617443	1.887828	9.021352	38.689808	-9.3358135	80.6	98977.0	5.0	1.0	
15.05	1.520318	2.207454	9.204509	38.689808	-9.3358135	80.6	98977.0	5.0	1.0	
15.06	1.7525556	2.541445	9.330204	38.689808	-9.3358135	80.6	98977.0	5.0	1.0	
15.07	1.697489	2.6910827	9.275137	38.689808	-9.3358135	80.6	98977.0	5.0	1.0	
15.08	1.4197617	2.896984	8.88608	38.689808	-9.3358135	80.6	98977.0	5.0	1.0	
15.09	1.22224	3.1591492	8.333019	38.689808	-9.3358135	80.6	98977.0	5.0	1.0	
15.1	1.365892	3.4524388	8.348581	38.689808	-9.3358135	80.6	98977.0	5.0	1.0	
15.11	1.5801731	3.7672763	8.620323	38.689808	-9.3358135	80.6	98977.0	5.0	1.0	
15.120000000000001	1.3958195	3.8498764	8.50181	38.689808	-9.3358135	80.6	98977.0	5.0	1.0	
15.13	1.1252748	3.7912183	8.152257	38.689808	-9.3358135	80.6	98977.0	5.0	1.0	
15.14	0.8822633	3.833117	7.9607205	38.689808	-9.3358135	80.6	98977.0	5.0	1.0	
15.15	0.82480246	4.036624	7.4471645	38.689808	-9.3358135	80.6	98977.0	5.0	1.0	
15.16	1.0354922	4.4759603	7.101202	38.689808	-9.3358135	80.6	113761.0	5.0	1.0	
15.17	1.5071499	5.056554	7.631518	38.689808	-9.3358135	80.6	113761.0	5.0	1.0	
15.18	1.6280571	5.207389	7.513005	38.689808	-9.3358135	80.6	113761.0	5.0	1.0	
15.19	1.4449008	5.306748	6.9371996	38.689808	-9.3358135	80.6	113761.0	5.0	1.0	
15.200000000000001	1.0510546	5.997475	6.31351	38.689808	-9.3358135	80.6	113761.0	5.0	1.0	
15.21	0.82480246	6.1662664	6.208165	38.689808	-9.3358135	80.6	113761.0	5.0	1.0	
15.22	0.82480246	6.1662664	6.208165	38.689808	-9.3358135	80.6	113761.0	5.0	1.0	
15.23	0.39384618	6.659472	5.9280434	38.689808	-9.3358135	80.6	113761.0	5.0	1.0	
15.24	0.2777274	7.0449386	5.7029886	38.689808	-9.3358135	80.6	113761.0	5.0	1.0	
15.25	0.4225766	7.2352777	6.0764837	38.689808	-9.3358135	80.6	113761.0	5.0	1.0	
15.26	0.49320555	6.918046	6.862979	38.689808	-9.3358135	80.6	113761.0	5.0	1.0	
15.27	0.51595044	6.341043	7.055712	38.689808	-9.3358135	80.6	113761.0	5.0	1.0	
15.280000000000001	0.46088383	6.019023	7.0940194	38.689808	-9.3358135	80.6	113761.0	5.0	1.0	
15.290000000000001	0.5674258	5.671864	7.290344	38.689808	-9.3358135	80.6	113761.0	5.0	1.0	
15.3	0.8451532	5.4384294	7.785944	38.689808	-9.3358135	80.6	113761.0	5.0	1.0	
15.31	0.90261406	5.0493712	8.208521	38.689808	-9.3358135	80.6	113761.0	5.0	1.0	
15.32	1.0450691	4.6495395	8.783129	38.689808	-9.3358135	80.6	113761.0	5.0	1.0	
15.33	1.1468226	4.3957543	9.333796	38.689808	-9.3358135	80.6	113761.0	5.0	1.0	
15.34	0.82240826	4.023456	9.742006	38.689808	-9.3358135	80.6	113761.0	5.0	1.0	
15.35	0.16519992	3.5996823	9.390059	38.689808	-9.3358135	80.6	113761.0	5.0	1.0	
15.36	-0.58418524	3.3973722	8.497022	38.689808	-9.3358135	80.6	113761.0	5.0	1.0	
15.370000000000001	-1.1791444	3.3542767	7.523779	38.689808	-9.3358135	80.6	113761.0	5.0	1.0	
15.38	-1.6280571	3.3674448	6.9886746	38.689808	-9.3358135	80.6	113761.0	5.0	1.0	
15.39	-1.7633295	3.2453403	7.025785	38.689808	-9.3358135	80.6	113761.0	5.0	1.0	
15.4	-1.7705121	3.016694	7.4567413	38.689808	-9.3358135	80.6	113761.0	5.0	1.0	
15.41	-1.520318	2.8060043	8.149862	38.689808	-9.3358135	80.6	113761.0	5.0	1.0	
15.42	-1.1097125	2.669535	8.992621	38.689808	-9.3358135	80.6	113761.0	5.0	1.0	
15.43	-0.49559975	2.802413	9.461885	38.689808	-9.3358135	80.6	113761.0	5.0	1.0	
15.44	-0.12569559	2.96881	9.728839	38.689808	-9.3358135	80.6	113761.0	5.0	1.0	
