# OpenSignals Text File Format
# {"SM-A405FN": {"channels":[1,2,3],"column":["nSeq","timestamp","system_time","xAcc","yAcc","zAcc"],"comments":"","date":"2020-07-06","device":"channeller","device connection":"","device name":"SM-A405FN","digital IO":[0,1],"firmware version":772,"label":["xAcc","yAcc","zAcc"],"mode":0,"position":0,"range":[-39.2266,39.2266],"resolution":[16,16,16],"sampling rate":100,"sensor":["Acc","Acc","Acc"],"special":"","sync interval":2,"time":"10:11:22","units":" m/s²"}}
# EndOfHeader
0	2679619607211500	1594026683284	-1.3982137	2.7126305	9.400833
1	2679619628751750	1594026683285	-1.3467385	2.7665	9.323022
2	2679619644528875	1594026683285	-1.2952632	2.754529	9.370906
3	2679619657443437	1594026683305	-1.2605472	2.719813	9.458294
4	2679619668889718	1594026683305	-1.270124	2.7401638	9.536105
5	2679619679635359	1594026683309	-1.2677298	2.755726	9.478644
6	2679619690155179	1594026683319	-1.3108255	2.7210102	9.387665
7	2679619700328089	1594026683330	-1.3479356	2.6671407	9.186552
8	2679619710355044	1594026683339	-1.4460979	2.6503813	9.011775
9	2679619720341022	1594026683350	-1.5406688	2.6910827	8.983045
10	2679619730412011	1594026683360	-1.5622166	2.6731262	9.121908
11	2679619740560505	1594026683372	-1.553837	2.6300306	9.317036
12	2679619750464752	1594026683380	-1.5873557	2.5809495	9.428367
13	2679619760684876	1594026683391	-1.5933412	2.5246856	9.489418
14	2679619770485938	1594026683400	-1.5275006	2.4899697	9.539697
15	2679619780503969	1594026683410	-1.4700398	2.4911668	9.507375
16	2679619790403984	1594026683420	-1.376666	2.5342624	9.440337
17	2679619800416492	1594026683430	-1.2880806	2.5821466	9.288305
18	2679619810373746	1594026683440	-1.2749124	2.6024973	9.081207
19	2679619820345373	1594026683450	-1.3347675	2.5941176	8.89446
20	2679619830444186	1594026683462	-1.4317327	2.5833437	8.86932
21	2679619840470593	1594026683471	-1.4903905	2.6072857	9.0476885
22	2679619850459796	1594026683481	-1.5095441	2.5941176	9.144653
23	2679619860458898	1594026683490	-1.4939818	2.669535	9.187749
24	2679619870411449	1594026683500	-1.4257472	2.7329812	9.097966
25	2679619880377224	1594026683510	-1.340753	2.7952304	8.62152
26	2679619890376112	1594026683520	-1.3551182	2.8874073	8.461109
27	2679619900368056	1594026683530	-1.3862427	2.8526914	8.48146
28	2679619910347528	1594026683540	-1.4197617	2.7928362	8.619126
29	2679619920492764	1594026683551	-1.4460979	2.7222073	8.925584
30	2679619930403382	1594026683560	-1.4281414	2.6372132	9.178172
31	2679619940421691	1594026683570	-1.1971009	2.9281087	9.361329
32	2679619950460845	1594026683581	-0.9935937	3.2094274	9.124303
33	2679619960558422	1594026683598	-0.9720459	2.955642	9.244013
34	2679619970463711	1594026683605	-0.94810385	2.8646624	9.28232
35	2679619980390855	1594026683610	-1.246182	2.8167782	9.331401
36	2679619990346427	1594026683621	-1.6112977	2.60968	9.241618
37	2679620000433713	1594026683631	-1.9249382	2.457648	9.004593
38	2679620010387356	1594026683641	-2.0769699	2.397793	8.785523
39	2679620020402678	1594026683651	-2.0638018	2.3870192	8.692149
40	2679620030497839	1594026683663	-2.007538	2.4061728	8.66701
41	2679620040730419	1594026683672	-1.9428947	2.469619	8.72088
42	2679620050529209	1594026683681	-1.8112136	2.5773582	8.780735
43	2679620060679104	1594026683691	-1.6316484	2.6874914	8.791509
44	2679620070510552	1594026683701	-1.5131354	2.7234044	8.850166
45	2679620081261776	1594026683713	-1.4221559	2.681506	9.015367
46	2679620090867888	1594026683722	-1.3694834	2.6384103	9.147048
47	2679620100633944	1594026683732	-1.4460979	2.6024973	9.165004
48	2679620110496472	1594026683741	-1.5562311	2.5258827	9.123106
49	2679620120447236	1594026683751	-1.553837	2.5187001	9.018958
50	2679620130731118	1594026683761	-1.578976	2.645593	8.9519205
51	2679620140639059	1594026683771	-1.7669208	2.4480712	9.062054
52	2679620151084029	1594026683783	-1.9069817	2.1978772	9.179369
53	2679620160731014	1594026683792	-1.9416976	2.2709002	9.240421
54	2679620170910007	1594026683826	-1.8327614	2.397793	9.260772
55	2679620182957503	1594026683826	-1.6938977	2.4899697	9.233239
56	2679620200430000	1594026683826	-1.6436194	2.5629928	9.130288
57	2679620210473000	1594026683832	-1.7345991	2.5390508	8.985439
58	2679620221358000	1594026683841	-1.8471266	2.4756045	8.908825
59	2679620230416000	1594026683851	-1.9081788	2.4001873	8.901642
60	2679620240604000	1594026683860	-1.8782512	2.4025815	9.027337
61	2679620250416000	1594026683870	-1.863886	2.4229321	9.223662
62	2679620260321000	1594026683880	-1.8794483	2.3642743	9.374496
63	2679620270489000	1594026683891	-1.9548657	2.3307555	9.36492
64	2679620281421000	1594026683901	-2.1559787	2.280477	9.15423
65	2679620290484000	1594026683937	-2.2026656	2.3319526	8.9040365
66	2679620300406000	1594026683937	-2.0602105	2.4600422	8.732851
67	2679620310690000	1594026683937	-1.99437	2.541445	8.732851
68	2679620320446000	1594026683942	-1.9548657	2.5258827	8.907627
69	2679620330530000	1594026683953	-2.0841527	2.4073699	9.131485
70	2679620340414000	1594026683963	-2.1894975	2.2984335	9.217676
71	2679620350358000	1594026683970	-2.147599	2.4193408	9.083601
72	2679620360655000	1594026683985	-1.8267759	2.8311436	8.913613
73	2679620370452000	1594026683992	-1.5849615	2.9819782	8.962694
74	2679620380350000	1594026684001	-1.3491327	3.1232362	9.091981
75	2679620390691000	1594026684011	-1.4640543	3.0573955	10.45069
76	2679620400314000	1594026684021	-0.79008657	3.0992942	7.727286
77	2679620410331000	1594026684030	-0.9564836	3.321955	8.59279
78	2679620420353000	1594026684041	-1.186327	2.5785553	8.195353
79	2679620430302000	1594026684050	-2.1739352	2.1068976	9.124303
80	2679620440464000	1594026684060	-2.6994624	2.0733786	10.070012
81	2679620450394000	1594026684070	-3.311181	1.7669208	10.933122
82	2679620460255000	1594026684080	-3.4141316	1.9979613	11.077971
83	2679620470509000	1594026684091	-3.064578	2.2469583	10.557233
84	2679620480394000	1594026684101	-2.4049757	2.5629928	9.8198185
85	2679620490399000	1594026684110	-1.5969325	3.0573955	9.4535055
86	2679620500307000	1594026684121	-0.8367735	3.4967315	9.333796
87	2679620510378000	1594026684133	-0.48602295	3.5972881	9.334992
88	2679620520443000	1594026684141	-0.85473	3.241749	9.405622
89	2679620530300000	1594026684150	-1.6460136	2.9101522	9.664195
90	2679620540276000	1594026684160	-2.2649148	2.8622682	10.044873
91	2679620550350000	1594026684171	-2.5091233	2.9400797	10.332177
92	2679620560295000	1594026684179	-2.4851813	3.0226796	10.070012
93	2679620571535000	1594026684194	-2.4061728	3.0334535	9.452309
94	2679620580349000	1594026684200	-2.1823149	2.9364884	8.846576
95	2679620590326000	1594026684210	-1.7812861	2.719813	8.610746
96	2679620600433000	1594026684221	-1.2258313	2.5773582	8.887277
97	2679620610301000	1594026684230	-0.6548142	2.6048915	9.534908
98	2679620620450000	1594026684241	-0.11611878	2.8191724	10.187328
99	2679620630291000	1594026684250	-0.1448492	2.6240451	10.5704
100	2679620640345000	1594026684259	-0.2885013	2.2649148	10.471041
101	2679620650313000	1594026684269	-0.5793968	1.9907787	10.214862
102	2679620660347000	1594026684280	-0.78050977	2.0566192	10.108319
103	2679620670365000	1594026684290	-0.79487497	2.134431	10.200497
104	2679620680313000	1594026684299	-0.79846627	2.1583729	10.222044
105	2679620690294000	1594026684310	-0.8774749	2.2242134	10.166978
106	2679620700305000	1594026684321	-0.89303726	2.2720973	10.093954
107	2679620710282000	1594026684329	-0.8738836	2.2421699	9.97185
108	2679620720303000	1594026684339	-0.7505822	2.1739352	10.013748
109	2679620730350000	1594026684351	-0.4225766	2.15957	10.356119
110	2679620740281000	1594026684359	0.06464344	2.148796	10.635044
111	2679620750342000	1594026684370	0.48722005	2.12246	10.522516
112	2679620760337000	1594026684380	0.78170687	2.0470424	10.274716
113	2679620770264000	1594026684390	0.9624691	1.9057846	10.151415
114	2679620780370000	1594026684400	1.0857705	1.8124107	10.248381
115	2679620790347000	1594026684410	1.1791444	1.7046716	10.46745
116	2679620800852000	1594026684421	1.2186487	1.5993267	10.723629
117	2679620810334000	1594026684431	1.2366052	1.5466543	10.803835
118	2679620820522000	1594026684440	1.1563994	1.4688427	10.466252
119	2679620830314000	1594026684450	0.9828198	1.364695	9.894038
120	2679620840286000	1594026684460	0.78050977	1.3084313	8.859743
121	2679620850338000	1594026684469	0.6500258	1.2557588	8.365341
122	2679620860257000	1594026684479	0.59017074	1.2545617	8.049306
123	2679620870290000	1594026684489	0.61411273	1.3263878	7.914034
124	2679620880284000	1594026684500	0.6751649	1.4508862	7.831434
125	2679620890263000	1594026684509	0.6979098	1.5610195	7.801506
126	2679620900306000	1594026684520	0.7170634	1.5394717	7.943961
127	2679620910271000	1594026684529	0.7697359	1.4915876	8.192958
128	2679620920332000	1594026684539	0.82240826	1.5298948	8.377312
129	2679620930330000	1594026684552	0.8511387	1.6687586	8.567651
130	2679620940258000	1594026684559	0.93014735	1.8543092	8.573636
131	2679620950348000	1594026684569	0.9672575	2.0231004	8.379706
132	2679620960258000	1594026684579	1.0127473	2.19668	8.057686
133	2679620970283000	1594026684589	1.1552023	2.3870192	7.8050976
134	2679620980314000	1594026684599	1.2617443	2.504335	7.7332716
135	2679620990291000	1594026684610	1.3227965	2.5510218	7.78355
136	2679621000397000	1594026684620	1.3120226	2.5677812	8.019379
137	2679621010299000	1594026684632	1.1504139	2.5737667	8.304289
138	2679621020314000	1594026684640	0.8283938	2.505532	8.556877
139	2679621030291000	1594026684650	0.49679685	2.3582888	8.7125
140	2679621040295000	1594026684660	0.19273324	2.2864625	8.756793
141	2679621050391000	1594026684670	0.04070143	2.315193	8.730456
142	2679621060426000	1594026684680	0.08738836	2.3822308	8.726865
143	2679621070395000	1594026684691	0.260968	2.5462334	8.706514
144	2679621080438000	1594026684700	0.45848963	2.7234044	8.836999
145	2679621090338000	1594026684710	0.59855044	2.815581	8.972271
146	2679621100606000	1594026684720	0.6739678	2.7521348	8.993818
147	2679621110433000	1594026684730	0.724246	2.705448	8.980651
148	2679621120461000	1594026684744	0.6847417	2.64679	9.074024
149	2679621130337000	1594026684750	0.60214174	2.5725696	9.200917
150	2679621140440000	1594026684760	0.49559975	2.5258827	9.270349
151	2679621150520000	1594026684771	0.40342298	2.529474	9.275137
152	2679621160584000	1594026684781	0.36990416	2.5438392	9.160215
153	2679621170568000	1594026684791	0.34596214	2.5797524	8.973468
154	2679621180448000	1594026684800	0.36391866	2.6264393	8.793902
155	2679621190416000	1594026684810	0.4177882	2.6431987	8.760384
156	2679621200458000	1594026684831	0.48123455	2.633622	8.807071
157	2679621210537000	1594026684831	0.5363012	2.6084828	8.918402
158	2679621220383000	1594026684840	0.5351041	2.5905263	9.070433
159	2679621230314000	1594026684850	0.5422867	2.5773582	9.105149
160	2679621240283000	1594026684860	0.50278234	2.554613	9.0476885
161	2679621250399000	1594026684871	0.37588966	2.5450363	8.953117
162	2679621260435000	1594026684880	0.21787235	2.5342624	8.967483
163	2679621270324000	1594026684890	0.18076223	2.5139117	9.226056
164	2679621280421000	1594026684901	0.19273324	2.4516625	9.284714
165	2679621290256000	1594026684910	0.11971009	2.4768016	9.157822
166	2679621300512000	1594026684921	0.14963761	2.6743233	9.054871
167	2679621310510000	1594026684930	0.39863458	3.0358477	9.204509
168	2679621320394000	1594026684940	0.51834464	3.2501287	9.258378
169	2679621330572000	1594026684951	0.5746084	3.4368765	9.332599
170	2679621340357000	1594026684960	0.65242	3.5326445	9.428367
171	2679621350437000	1594026684971	0.6787562	3.582923	9.382876
172	2679621360378000	1594026684980	0.70509243	3.6894648	9.238028
173	2679621370399000	1594026684990	0.8331822	3.8259344	9.150639
174	2679621380343000	1594026685001	0.9935937	3.9935284	9.063251
175	2679621390299000	1594026685010	1.1300632	4.096479	9.003395
176	2679621400704000	1594026685021	1.2641385	4.2401314	9.084799
177	2679621410450000	1594026685033	1.3850456	4.3047748	9.26556
178	2679621420346000	1594026685040	1.3467385	4.284424	9.463082
179	2679621430397000	1594026685051	1.1599907	4.225766	9.763555
180	2679621440282000	1594026685060	0.9888053	4.107253	10.113108
181	2679621450930000	1594026685071	0.7757214	3.940856	10.396821
182	2679621460499000	1594026685081	0.5602432	3.7565024	10.569203
183	2679621470898000	1594026685090	0.37708676	3.5649664	10.67814
184	2679621480437000	1594026685101	0.20111294	3.3291376	10.676943
185	2679621490828000	1594026685111	0.06823475	3.1507695	10.536881
186	2679621500423000	1594026685122	0.044292733	3.086126	10.326192
187	2679621510402000	1594026685131	0.1388637	3.0585926	10.111911
188	2679621520433000	1594026685141	0.19393034	3.0190883	9.847352
189	2679621530692000	1594026685152	0.05626374	3.0777464	9.634268
190	2679621540526000	1594026685160	-0.16280572	3.228581	9.427169
191	2679621550560000	1594026685171	-0.32561144	3.2261868	8.9998045
192	2679621560411000	1594026685180	-0.5446809	3.0442274	8.582016
193	2679621570355000	1594026685190	-0.7350199	3.0190883	8.133103
194	2679621580375000	1594026685201	-0.7649474	3.3291376	7.66384
195	2679621590696000	1594026685218	-0.6979098	3.5338416	7.2867527
196	2679621600540000	1594026685221	-0.61650693	3.5805287	7.3729444
197	2679621610359000	1594026685235	-0.47405192	3.4931402	7.787141
198	2679621620368000	1594026685240	-0.320823	3.0969	8.423999
199	2679621630666000	1594026685251	-0.08499416	2.3762453	9.272743
200	2679621640615000	1594026685260	0.17238252	1.757344	10.280702
201	2679621650455000	1594026685279	0.29448682	1.3443443	11.760319
202	2679621660411000	1594026685282	0.47285482	1.2006922	13.074736
203	2679621670401000	1594026685291	0.34596214	1.1791444	13.739126
204	2679621680384000	1594026685305	-0.016759412	1.0582372	13.347674
205	2679621690342000	1594026685310	-0.5494693	0.92535895	12.067974
206	2679621700502000	1594026685321	-0.8295909	0.85473	10.87207
207	2679621710386000	1594026685330	-0.62368953	0.8858546	10.271125
208	2679621720354000	1594026685340	-0.08379706	1.0594343	10.411186
209	2679621731429000	1594026685354	0.60693014	1.3455414	10.947487
210	2679621740435000	1594026685360	1.1168951	1.5358804	11.245565
211	2679621750399000	1594026685371	1.2976574	1.5155296	11.257536
212	2679621760342000	1594026685380	1.2593501	1.3826514	11.007342
213	2679621770446000	1594026685393	1.0582372	1.3215994	10.66138
214	2679621780349000	1594026685400	0.748188	1.3563153	9.589975
215	2679621790340000	1594026685410	0.33159694	1.553837	8.9998045
216	2679621800338000	1594026685420	0.30166942	1.6927006	8.423999
217	2679621810338000	1594026685430	0.29807812	1.887828	7.9355817
218	2679621820322000	1594026685440	0.21308395	2.099715	7.349002
219	2679621830361000	1594026685450	0.110133275	2.255338	7.0664864
220	2679621840435000	1594026685460	0.049081136	2.268506	6.8282633
221	2679621850324000	1594026685470	0.008379706	2.2996306	6.602011
222	2679621860353000	1594026685480	-0.047884032	2.373851	6.47033
223	2679621870308000	1594026685492	-0.08738836	2.5019407	6.4140663
224	2679621880619000	1594026685500	-0.077811554	2.5941176	6.5361705
225	2679621890325000	1594026685510	0.029927522	2.7138276	6.7684083
226	2679621900299000	1594026685520	0.06943185	2.823961	7.055712
227	2679621910587000	1594026685530	0.094570965	2.834735	7.541735
228	2679621920411000	1594026685540	0.1448492	2.822764	8.012196
229	2679621930404000	1594026685550	0.049081136	2.790442	8.306683
230	2679621940279000	1594026685560	-0.12210429	2.7988217	8.508993
231	2679621950705000	1594026685570	-0.25857377	2.8275523	8.63828
232	2679621960489000	1594026685580	-0.32920274	2.837129	8.77834
233	2679621970473000	1594026685590	-0.30047232	2.871845	8.9519205
234	2679621980310000	1594026685600	-0.25857377	2.9364884	9.088389
235	2679621990341000	1594026685610	-0.18435353	3.0825348	9.238028
236	2679622000336000	1594026685621	-0.1400608	3.2501287	9.272743
237	2679622010331000	1594026685630	-0.11731588	3.3722332	9.096769
238	2679622020406000	1594026685640	-0.15203181	3.4464533	8.9124155
239	2679622031157000	1594026685652	0.47285482	3.9001546	6.227319
240	2679622040510000	1594026685661	0.39743748	4.331111	5.2444987
241	2679622050849000	1594026685671	-0.19632454	3.8127663	7.4962454
242	2679622060318000	1594026685681	-0.46567222	2.9735985	7.705738
243	2679622070546000	1594026685690	-0.51714754	2.7257986	9.307459
244	2679622080294000	1594026685700	-0.079008654	3.2441432	10.868479
245	2679622090296000	1594026685710	0.21547815	3.4356794	12.331336
246	2679622100734000	1594026685720	0.91338795	3.205836	13.035232
247	2679622110357000	1594026685730	1.0989386	3.1160536	13.482946
248	2679622120267000	1594026685739	-0.21547815	3.8893807	11.775881
249	2679622130395000	1594026685751	-0.18195933	3.7349546	10.557233
250	2679622140295000	1594026685759	0.025139118	3.4129345	10.28549
251	2679622150359000	1594026685770	0.11731588	3.5757403	10.159795
252	2679622160527000	1594026685780	0.37110126	4.0497923	10.029311
253	2679622170342000	1594026685789	0.6476316	4.31076	9.800665
254	2679622180456000	1594026685801	0.6476316	4.256891	9.43914
255	2679622190314000	1594026685810	0.5482722	4.1180267	8.978256
256	2679622200426000	1594026685821	0.48123455	4.0521865	8.835801
257	2679622210430000	1594026685830	0.61530983	4.0019083	9.119514
258	2679622220430000	1594026685840	0.7733272	3.9576154	9.4535055
259	2679622230403000	1594026685851	0.7445967	4.096479	9.566033
260	2679622240353000	1594026685859	0.48482585	4.498705	9.227253
261	2679622250745000	1594026685870	-0.10175357	4.405331	8.024167
262	2679622260370000	1594026685880	0.16400282	3.6966474	7.6853876
263	2679622270400000	1594026685889	0.93014735	3.1028855	8.1343
264	2679622281031000	1594026685901	2.0087352	3.2213984	9.279925
265	2679622290352000	1594026685909	3.0705638	3.478775	10.577583
266	2679622300444000	1594026685920	3.7325604	3.4153287	11.998542
267	2679622310813000	1594026685932	3.8762126	2.96881	13.260286
268	2679622320340000	1594026685940	3.465607	2.504335	13.64695
269	2679622330468000	1594026685951	2.6300306	2.2146366	13.06875
270	2679622340454000	1594026685960	1.8100165	2.112883	12.245145
271	2679622350271000	1594026685970	1.1827357	1.8914193	10.971429
272	2679622360749000	1594026685981	0.7338228	1.7669208	9.91798
273	2679622370259000	1594026685989	0.6691794	1.8698715	9.064447
274	2679622380394000	1594026686001	0.91817635	2.0841527	8.444349
275	2679622390305000	1594026686009	1.0342951	2.0853498	8.23366
276	2679622400388000	1594026686020	1.1216835	1.946486	8.355764
277	2679622410368000	1594026686030	1.2246342	1.8351556	8.553286
278	2679622420452000	1594026686040	1.2138603	1.7537527	8.7292595
279	2679622430454000	1594026686051	1.1013328	1.6639702	8.848969
280	2679622440411000	1594026686060	1.0163386	1.5275006	8.759187
281	2679622450421000	1594026686070	0.9564836	1.4425066	8.498219
282	2679622460314000	1594026686079	1.1755531	1.6795325	8.306683
283	2679622470459000	1594026686090	1.3706805	2.1296425	8.008605
284	2679622480802000	1594026686100	1.5071499	2.5881321	7.8446016
285	2679622490416000	1594026686110	1.6292542	2.8550856	7.7332716
286	2679622500685000	1594026686120	1.7142484	2.9221232	7.6171527
287	2679622510786000	1594026686130	1.7429788	2.9245174	7.335834
288	2679622520293000	1594026686140	1.6172832	2.9819782	6.727707
289	2679622530419000	1594026686150	1.2557588	3.0322564	6.0465565
290	2679622540335000	1594026686159	0.78050977	3.0430303	5.5282116
291	2679622550814000	1594026686170	0.3842694	2.980781	5.2768207
292	2679622560775000	1594026686180	0.1328782	2.954445	5.209783
293	2679622570375000	1594026686189	0.011971008	2.9221232	5.2540755
294	2679622580427000	1594026686200	0.073023155	2.9017725	5.4312468
295	2679622590462000	1594026686210	0.19871874	2.9053638	5.7245364
296	2679622600535000	1594026686220	0.33279404	3.0071173	5.9890957
297	2679622610888000	1594026686230	0.320823	3.107674	6.2584434
298	2679622620402000	1594026686240	0.37469256	3.0502129	6.96593
299	2679622630909000	1594026686250	0.7505822	2.9017725	7.7703815
300	2679622640464000	1594026686259	0.81642276	2.8814218	8.045714
301	2679622650524000	1594026686270	0.688333	2.920926	8.182184
302	2679622660604000	1594026686280	0.7074866	3.0765493	8.154651
303	2679622670312000	1594026686290	0.9600749	3.3494883	8.189367
304	2679622680814000	1594026686300	1.1575965	3.5733461	8.48146
305	2679622690555000	1594026686310	0.8319851	3.5685577	8.585608
306	2679622700540000	1594026686320	0.30406362	3.2632968	8.785523
307	2679622710326000	1594026686329	-0.09935937	2.9125464	9.033323
308	2679622720527000	1594026686340	-0.35434186	2.7042508	9.728839
309	2679622730470000	1594026686350	-0.36511576	2.8072014	10.3692875
310	2679622740498000	1594026686359	-0.23223756	2.9496565	10.970232
311	2679622750517000	1594026686370	-0.24061728	3.0550013	11.240777
312	2679622761074000	1594026686380	-0.23104046	3.1890767	11.145009
313	2679622770468000	1594026686390	-0.15322891	3.441665	10.965444
314	2679622780544000	1594026686400	-0.19991584	3.7217865	10.460267
315	2679622790542000	1594026686411	-0.37588966	3.9228995	9.964667
316	2679622800435000	1594026686420	-0.61171854	4.0282445	9.490616
317	2679622810510000	1594026686430	-0.8571242	4.140772	9.161413
318	2679622820530000	1594026686440	-0.93613285	4.1934443	9.044097
319	2679622830469000	1594026686450	-0.79248077	4.272453	9.193734
320	2679622840603000	1594026686460	-0.47405192	4.3873744	9.563639
321	2679622850472000	1594026686470	-0.023942016	4.43885	10.244789
322	2679622861075000	1594026686480	0.18674773	4.461595	10.878056
323	2679622870469000	1594026686489	0.23702596	4.406528	11.3964
324	2679622880515000	1594026686500	0.21667525	4.313154	11.756727
325	2679622890506000	1594026686510	-0.007182605	4.177882	11.811794
326	2679622900522000	1594026686520	-0.34955344	4.080917	11.789049
327	2679622910475000	1594026686530	-0.7062895	3.9468415	11.660959
328	2679622920525000	1594026686540	-0.9624691	3.7936125	11.556811
329	2679622930463000	1594026686550	-1.1013328	3.642778	11.6585655
330	2679622940601000	1594026686560	-0.9804256	3.5063083	12.044032
331	2679622950472000	1594026686570	-0.78888947	3.4596214	12.210428
332	2679622960834000	1594026686580	-1.079785	3.2321723	11.963826
333	2679622970504000	1594026686591	-1.328782	3.0609868	11.331757
334	2679622980537000	1594026686600	-1.5191209	3.083732	10.78947
335	2679622990441000	1594026686610	-1.6531962	3.335123	10.263943
336	2679623000506000	1594026686620	-1.7070658	3.5350387	9.38168
337	2679623010516000	1594026686630	-1.8052281	3.594894	8.676587
338	2679623020416000	1594026686639	-1.9165585	3.6152446	8.525752
339	2679623030309000	1594026686649	-1.9955671	3.66672	8.446744
340	2679623040444000	1594026686660	-2.0398598	3.618836	8.684967
341	2679623050473000	1594026686670	-1.9512744	3.3147724	9.346964
342	2679623060481000	1594026686680	-1.7525556	2.789245	10.113108
343	2679623070450000	1594026686690	-1.5382746	2.3199813	11.019313
344	2679623080497000	1594026686700	-1.365892	2.0470424	12.154165
345	2679623090379000	1594026686710	-1.2844892	1.8818425	12.838906
346	2679623100502000	1594026686720	-1.4173675	1.7393875	12.788629
347	2679623110331000	1594026686729	-1.5251064	1.6328455	12.136209
348	2679623120484000	1594026686740	-1.5765818	1.6783354	11.206061
349	2679623130465000	1594026686750	-1.4700398	1.8052281	10.374076
350	2679623140476000	1594026686760	-1.1432313	1.9800048	9.9550905
351	2679623150467000	1594026686770	-0.60094464	2.2637177	9.774328
352	2679623160959000	1594026686780	-0.039504327	2.542642	9.613917
353	2679623170317000	1594026686790	0.40102878	2.8203697	9.519346
354	2679623180505000	1594026686800	0.62967503	2.6803088	9.657013
355	2679623190439000	1594026686810	0.82240826	2.5151088	10.052056
356	2679623200478000	1594026686820	0.7733272	1.8411411	10.916363
357	2679623210398000	1594026686831	0.712275	1.5071499	10.97502
358	2679623220396000	1594026686840	0.8355764	1.3012487	10.795456
359	2679623230393000	1594026686849	1.0139444	1.2617443	10.2495775
360	2679623240311000	1594026686860	1.3826514	1.4951789	9.355343
361	2679623250632000	1594026686870	1.8088194	1.827973	8.335413
362	2679623260431000	1594026686881	1.9393034	1.9895816	7.53575
363	2679623270413000	1594026686890	1.8351556	2.067393	6.801927
364	2679623280420000	1594026686900	1.3910311	1.9871874	6.623559
365	2679623290475000	1594026686910	0.7757214	1.6831238	6.6989765
366	2679623300506000	1594026686920	0.2765303	1.2366052	6.537368
367	2679623310777000	1594026686930	0.17836803	1.0690111	6.3087215
368	2679623320466000	1594026686940	0.21906945	1.2162545	5.9268465
369	2679623330695000	1594026686950	0.24540567	1.400608	5.3498435
370	2679623340323000	1594026686959	0.36631286	1.5442601	4.7800236
371	2679623350778000	1594026686970	0.47405192	1.6843209	4.19105
372	2679623360897000	1594026686980	0.676362	1.9536686	3.7301662
373	2679623370404000	1594026686990	1.0139444	2.4540567	3.9145198
374	2679623380412000	1594026686999	1.4688427	2.8634653	4.1958385
375	2679623390670000	1594026687010	1.7178397	2.9245174	4.413711
376	2679623400534000	1594026687020	1.6531962	2.8119898	4.5262384
377	2679623410516000	1594026687030	1.4329298	2.741361	4.7644615
378	2679623420458000	1594026687040	1.1911154	2.7521348	5.046977
379	2679623430850000	1594026687050	1.0714053	2.8095956	5.5102553
380	2679623440781000	1594026687060	1.1133038	2.908955	5.8598084
381	2679623450542000	1594026687070	1.2090719	3.040636	6.314707
382	2679623461013000	1594026687080	1.3503298	3.1052797	6.906075
383	2679623470350000	1594026687090	1.780089	3.3842041	7.145495
384	2679623480440000	1594026687100	2.2601264	3.9073372	7.189788
385	2679623490736000	1594026687110	2.4528596	4.0162735	6.9743094
386	2679623500529000	1594026687119	2.4540567	3.8738184	6.9228344
387	2679623510909000	1594026687131	2.396596	3.726575	7.1155677
388	2679623520431000	1594026687140	2.280477	3.5422213	7.381324
389	2679623530912000	1594026687151	2.1068976	3.3602622	7.8410106
390	2679623541014000	1594026687161	2.1392193	3.1986535	8.499416
391	2679623550540000	1594026687171	2.3546975	3.1028855	9.022549
392	2679623561411000	1594026687182	2.7461493	3.204639	9.488221
393	2679623570572000	1594026687191	3.0969	3.3446999	9.856929
394	2679623581195000	1594026687202	3.1232362	3.2752678	10.079589
395	2679623590802000	1594026687212	2.6898856	2.9173348	10.746374
396	2679623601024000	1594026687222	1.8411411	2.60968	11.808203
397	2679623611145000	1594026687231	1.1336545	2.7569232	11.805809
398	2679623620569000	1594026687241	0.830788	2.9855695	11.279084
399	2679623630587000	1594026687251	1.2521675	2.9580362	10.704475
400	2679623640723000	1594026687261	2.36188	3.0322564	10.359711
401	2679623650384000	1594026687270	3.5470097	3.3063924	10.597934
402	2679623660513000	1594026687280	4.4196963	3.2477345	13.1717005
403	2679623670427000	1594026687290	4.4675803	2.1152773	14.785393
404	2679623680397000	1594026687300	4.667496	1.7705121	16.280571
405	2679623690531000	1594026687310	4.2401314	1.6603789	16.88032
406	2679623700622000	1594026687320	3.6619315	1.7968484	15.9022875
407	2679623710449000	1594026687330	3.2609026	1.9788077	14.465767
408	2679623720749000	1594026687340	2.4193408	2.0099323	13.172897
409	2679623730280000	1594026687350	1.448492	1.6484078	12.403162
410	2679623740760000	1594026687360	0.3890578	1.0127473	12.175713
411	2679623750459000	1594026687370	-0.16160862	0.5781997	11.469423
412	2679623761284000	1594026687381	0.7194576	1.1971009	10.820595
413	2679623770511000	1594026687390	1.5215151	1.6436194	10.289082
414	2679623781027000	1594026687401	1.4927847	1.4460979	10.029311
415	2679623791155000	1594026687411	1.3215994	1.2785037	10.121488
416	2679623800509000	1594026687420	1.42455	1.2186487	10.080787
417	2679623810447000	1594026687430	1.6220716	1.3120226	9.85214
418	2679623820590000	1594026687440	1.8938135	1.4808137	9.339781
419	2679623831111000	1594026687450	1.8986019	1.5310919	8.761581
420	2679623840823000	1594026687460	1.3790601	1.4437037	8.26239
421	2679623850727000	1594026687470	1.1827357	1.2868834	7.9930425
422	2679623860682000	1594026687480	0.8355764	1.1492168	7.5046253
423	2679623870605000	1594026687490	0.51834464	1.2030864	7.479486
424	2679623881289000	1594026687500	0.5566519	1.3503298	7.5525093
425	2679623890836000	1594026687510	0.82480246	1.5586253	7.7584105
426	2679623900683000	1594026687520	0.89184016	1.70946	7.8625584
427	2679623911577000	1594026687531	0.78888947	1.7633295	7.9427643
428	2679623920666000	1594026687540	0.8631097	1.4293385	8.48146
429	2679623930816000	1594026687551	0.094570965	1.6041151	8.759187
430	2679623940815000	1594026687561	0.09935937	1.8231846	8.384495
431	2679623950560000	1594026687570	0.5291186	1.9656396	8.937555
432	2679623960678000	1594026687580	0.91937345	1.9955671	9.419987
433	2679623970557000	1594026687590	1.1671734	1.9788077	9.836577
434	2679623980479000	1594026687600	1.553837	2.1045034	10.25676
435	2679623990946000	1594026687610	1.7956513	2.3223755	10.611102
436	2679624000683000	1594026687620	1.8590976	2.4408886	10.844537
437	2679624011545000	1594026687631	1.7764976	2.4157495	10.901998
438	2679624020697000	1594026687640	1.6962919	2.3139958	10.979809
439	2679624030555000	1594026687650	1.4939818	2.1176715	11.161768
440	2679624041284000	1594026687661	1.2054806	1.8555063	11.423933
441	2679624050863000	1594026687670	1.0079589	1.6819267	11.468226
442	2679624060396000	1594026687680	0.866701	1.6376339	11.258734
443	2679624070523000	1594026687690	0.8810662	1.6819267	10.848128
444	2679624080374000	1594026687699	1.0402806	1.7657237	10.075998
445	2679624090380000	1594026687709	1.3359646	2.0458453	9.174581
446	2679624100360000	1594026687719	1.4089876	2.445677	8.358158
447	2679624110407000	1594026687729	1.2401965	2.9472623	7.8972745
448	2679624120367000	1594026687739	1.234211	3.3806129	7.9607205
449	2679624130395000	1594026687750	1.4460979	3.5745432	8.110358
450	2679624140341000	1594026687759	1.5143325	3.764882	8.183381
451	2679624150357000	1594026687769	1.3670892	3.8606503	8.026561
452	2679624160492000	1594026687779	1.2761095	3.9384618	7.8517847
453	2679624170328000	1594026687789	1.1887212	4.0162735	7.633912
454	2679624180734000	1594026687800	1.0283096	4.1383777	7.4363904
455	2679624190387000	1594026687809	0.91219085	4.26527	7.4962454
456	2679624200657000	1594026687820	0.90021986	4.277241	7.9152308
457	2679624211242000	1594026687830	0.9504981	4.2197804	8.60117
458	2679624220412000	1594026687840	0.79726917	4.1814733	9.296685
459	2679624230375000	1594026687849	0.60453594	4.0641575	9.652225
460	2679624240369000	1594026687859	0.60453594	3.9396589	9.865308
461	2679624250337000	1594026687869	0.4201824	3.7924154	10.019734
462	2679624260606000	1594026687881	0.022744916	3.7493198	9.794679
463	2679624270313000	1594026687889	-0.31603462	3.927688	9.416395
464	2679624280466000	1594026687900	-0.61291564	4.2580876	8.59279
465	2679624290343000	1594026687909	-0.93373865	4.5980644	7.7428484
466	2679624300492000	1594026687919	-1.1779473	5.067328	7.1263413
467	2679624310350000	1594026687930	-1.4389153	5.291186	6.8007298
468	2679624320432000	1594026687940	-1.8183962	5.103241	6.981492
469	2679624330527000	1594026687950	-1.2773066	5.627571	7.265205
470	2679624341594000	1594026687961	-0.6799533	5.553351	7.620744
471	2679624350458000	1594026687970	-0.41180268	5.133168	8.462306
472	2679624360358000	1594026687981	-0.08140286	4.6686935	9.536105
473	2679624370329000	1594026687990	0.3842694	4.459201	10.679337
474	2679624380360000	1594026688000	0.6679823	4.2317514	11.839328
475	2679624390407000	1594026688010	0.78290397	3.8857894	12.37084
476	2679624400502000	1594026688030	0.6631939	3.4859576	12.758701
477	2679624410368000	1594026688030	0.19991584	3.0059202	12.61026
478	2679624420312000	1594026688040	-0.20590134	2.9017725	11.605893
479	2679624430350000	1594026688050	-0.32202014	3.1316159	10.34774
480	2679624440422000	1594026688060	-0.21188685	3.594894	9.226056
481	2679624450388000	1594026688070	0.12210429	4.0857053	8.117541
482	2679624460607000	1594026688080	0.6991069	4.4927197	7.091625
483	2679624472754000	1594026688092	1.459266	4.675876	6.8929067
484	2679624486617000	1594026688183	1.8207904	4.3634324	7.751228
485	2679624500376000	1594026688183	2.0757728	3.9205053	8.74961
486	2679624511507000	1594026688183	2.0757728	3.2513258	9.7479925
487	2679624522600000	1594026688183	1.6699557	2.457648	10.147824
488	2679624535582000	1594026688183	1.7046716	2.3523033	9.099164
489	2679624550386000	1594026688183	1.6795325	2.3175871	7.7667904
490	2679624560976000	1594026688183	1.6711528	2.3690627	6.7731967
491	2679624571230000	1594026688191	2.6479871	2.12246	6.0561333
492	2679624580361000	1594026688200	2.6479871	2.12246	6.0561333
493	2679624590345000	1594026688210	1.8614918	1.8662802	5.695806
494	2679624600323000	1594026688220	0.51475334	1.3682863	5.3725886
495	2679624613674000	1594026688233	-1.2066777	-0.8858546	5.5018754
496	2679624630539000	1594026688250	1.2006922	0.80804306	4.697424
497	2679624640672000	1594026688260	1.8650831	2.0949266	2.6731262
498	2679624650526000	1594026688270	0.82240826	3.5673606	-0.08619126
499	2679624660373000	1594026688280	-3.6475663	5.141548	-0.7733272
500	2679624670416000	1594026688290	-4.525041	3.2908301	4.128801
501	2679624680349000	1594026688300	-2.1547816	1.340753	6.907272
502	2679624690365000	1594026688310	0.8511387	0.94690675	7.3310456
503	2679624700326000	1594026688320	3.0933087	2.1799207	6.1004257
504	2679624711253000	1594026688331	4.5645456	5.0014873	6.7959414
505	2679624720367000	1594026688340	4.832696	7.2424603	6.7348895
506	2679624730365000	1594026688375	3.1387985	6.3685765	6.825869
507	2679624740439000	1594026688375	1.6627731	4.0402155	6.157887
508	2679624750460000	1594026688375	1.3096284	2.36188	5.4432178
509	2679624760601000	1594026688381	1.4508862	2.0123265	4.7860093
510	2679624770332000	1594026688389	1.5251064	2.2649148	3.821146
511	2679624780368000	1594026688400	1.5729905	2.5438392	2.3822308
512	2679624790558000	1594026688410	1.8100165	2.846706	1.5370775
513	2679624802697000	1594026688422	2.3546975	2.718616	1.7274165
514	2679624810717000	1594026688430	3.2190042	2.0374656	2.4396915
515	2679624820348000	1594026688440	3.7576995	1.0390835	3.2321723
516	2679624829617500	1594026688458	3.942053	0.076614454	3.5649664
517	2679624840348000	1594026688460	3.8055837	-0.90141696	3.277662
518	2679624850315000	1594026688470	3.8857894	-1.4903905	3.7553053
519	2679624860412000	1594026688480	4.262876	-1.7776948	4.2940006
520	2679624870365000	1594026688490	4.6495395	-2.348712	4.072537
521	2679624882083000	1594026688502	5.187038	-2.895787	3.7708676
522	2679624890361000	1594026688510	6.23091	-3.0334535	3.3494883
523	2679624900323000	1594026688519	7.6255326	-2.6013002	2.731784
524	2679624910326000	1594026688529	8.75799	-2.2960393	1.7082629
525	2679624920319000	1594026688540	9.276335	-2.7724855	1.1360487
526	2679624930308000	1594026688550	9.586384	-3.9468415	0.5518635
527	2679624940306000	1594026688560	10.286688	-5.3402667	-0.39743748
528	2679624950329000	1594026688569	11.196485	-6.896498	-1.1504139
529	2679624960317000	1594026688580	12.132617	-8.100781	-1.602918
530	2679624970400000	1594026688589	12.641385	-9.409213	-1.7322049
531	2679624980353000	1594026688600	12.510901	-10.532093	-1.1875241
532	2679624990338000	1594026688610	11.84651	-11.461043	-0.33638534
533	2679625000322000	1594026688620	11.044453	-12.270284	0.7721301
534	2679625010337000	1594026688630	10.5680065	-12.941857	2.4025815
535	2679625020495000	1594026688640	10.609905	-13.800179	4.0521865
536	2679625030338000	1594026688655	10.858902	-14.629769	5.41329
537	2679625040382000	1594026688660	10.903194	-15.204378	6.4140663
538	2679625050413000	1594026688670	10.748769	-15.658079	7.025785
539	2679625060375000	1594026688680	10.660183	-16.059109	7.290344
540	2679625070327000	1594026688689	10.742783	-16.685192	7.1610575
541	2679625080328000	1594026688700	10.990582	-17.132908	7.013814
542	2679625090307000	1594026688709	11.579556	-18.34198	5.6982
543	2679625100316000	1594026688719	12.115858	-18.409018	4.939238
544	2679625110316000	1594026688729	12.972981	-17.830816	4.110844
545	2679625120320000	1594026688739	13.970167	-16.678009	3.5350387
546	2679625130302000	1594026688749	15.0343895	-15.215152	2.9041667
547	2679625140327000	1594026688759	16.061502	-13.433866	2.5330653
548	2679625150387000	1594026688769	16.810886	-11.468226	2.5354595
549	2679625160408000	1594026688780	17.135302	-9.5013895	2.861071
550	2679625170742000	1594026688790	16.980875	-7.8733325	3.3482912
551	2679625180317000	1594026688800	16.357185	-6.731298	3.916914
552	2679625190522000	1594026688810	15.468937	-6.196194	4.285621
553	2679625200321000	1594026688820	14.562732	-5.8454432	4.343082
554	2679625210367000	1594026688830	13.464991	-5.5485625	3.821146
555	2679625220339000	1594026688840	12.158954	-5.3318872	3.107674
556	2679625230344000	1594026688850	10.960655	-5.1487308	2.5941176
557	2679625240284000	1594026688859	10.012551	-5.115212	2.360683
558	2679625250370000	1594026688870	9.260772	-5.400122	2.4672248
559	2679625260564000	1594026688880	8.603564	-5.913678	2.7808652
560	2679625270329000	1594026688890	8.086416	-6.241684	3.1471782
561	2679625280322000	1594026688900	7.6231384	-6.199785	3.4476504
562	2679625290876000	1594026688910	7.2664022	-6.0106435	3.4644098
563	2679625300324000	1594026688919	7.0593038	-5.827487	3.1890767
564	2679625310367000	1594026688930	6.989872	-5.604826	2.7353754
565	2679625320407000	1594026688940	7.0126166	-5.4085016	2.3523033
566	2679625330848000	1594026688950	7.1466923	-5.390545	2.1045034
567	2679625340331000	1594026688959	7.445967	-5.5581393	1.7980455
568	2679625350510000	1594026688969	7.785944	-5.777209	1.423353
569	2679625360309000	1594026688980	8.101978	-5.9783216	1.1216835
570	2679625370416000	1594026688990	8.446744	-6.099229	0.89902276
571	2679625380604000	1594026689000	8.732851	-6.325481	0.7338228
572	2679625390341000	1594026689009	8.953117	-6.655881	0.79248077
573	2679625400327000	1594026689020	9.138668	-7.01142	0.9935937
574	2679625410556000	1594026689030	9.222465	-7.478289	1.4030021
575	2679625420314000	1594026689039	9.3733	-7.8469963	1.8818425
576	2679625430378000	1594026689049	9.537302	-7.8865004	2.3223755
577	2679625440328000	1594026689060	9.625888	-7.4854717	2.8742392
578	2679625450314000	1594026689069	9.745598	-6.7983356	3.465607
579	2679625460438000	1594026689080	10.262746	-6.293159	3.8067808
580	2679625470323000	1594026689089	11.398794	-6.71813	4.039018
581	2679625480352000	1594026689100	12.33373	-7.7727757	4.6579194
582	2679625490741000	1594026689110	12.865243	-8.491036	5.068525
583	2679625500322000	1594026689120	13.107058	-8.949526	5.151125
584	2679625510297000	1594026689129	12.984953	-9.190144	5.17387
585	2679625520304000	1594026689139	12.696451	-8.931569	5.1140146
586	2679625530417000	1594026689149	12.281057	-8.27077	4.97156
587	2679625540656000	1594026689160	11.865664	-7.315483	5.3725886
588	2679625550638000	1594026689170	11.529279	-6.279991	5.5605335
589	2679625560293000	1594026689179	11.44189	-5.0661306	5.5222263
590	2679625570729000	1594026689190	11.343728	-5.044583	5.2049947
591	2679625580653000	1594026689200	11.1893015	-5.449203	4.757279
592	2679625590291000	1594026689209	11.019313	-6.1938	4.074931
593	2679625600654000	1594026689220	10.911574	-7.132327	3.3530796
594	2679625610642000	1594026689230	10.85531	-8.27077	2.7724855
595	2679625620267000	1594026689239	10.758346	-9.583989	2.315193
596	2679625630632000	1594026689250	10.582372	-10.827777	2.0027497
597	2679625640301000	1594026689259	10.160992	-11.743559	1.9692309
598	2679625650305000	1594026689269	9.564836	-12.235568	2.0290859
599	2679625660299000	1594026689279	9.246407	-12.580333	2.0386627
600	2679625670287000	1594026689289	8.925584	-12.7575035	2.2493525
601	2679625680618000	1594026689300	8.702923	-12.588713	2.5103204
602	2679625690680000	1594026689310	8.599973	-12.405556	2.60968
603	2679625700403000	1594026689320	8.641871	-12.198458	2.7844565
604	2679625710425000	1594026689330	8.841787	-11.83813	2.9113493
605	2679625721244000	1594026689341	9.210494	-11.45865	2.8191724
606	2679625731147000	1594026689351	9.562442	-11.143812	2.6360161
607	2679625740429000	1594026689360	9.911995	-10.875661	2.5210943
608	2679625750453000	1594026689370	10.152613	-10.654198	2.3678656
609	2679625760462000	1594026689382	10.235212	-10.490194	2.123657
610	2679625770435000	1594026689390	10.222044	-10.376471	1.899799
611	2679625780405000	1594026689399	10.21965	-10.208876	1.7046716
612	2679625790318000	1594026689409	10.1382475	-9.892841	1.472434
613	2679625800416000	1594026689420	9.94312	-9.633071	1.2138603
614	2679625810540000	1594026689430	9.750386	-9.587581	0.94211835
615	2679625821101000	1594026689440	9.665392	-9.586384	0.78290397
616	2679625830300000	1594026689449	9.551667	-9.552865	0.7098808
617	2679625840447000	1594026689460	9.339781	-9.512163	0.7290344
618	2679625850449000	1594026689470	9.132683	-9.465476	0.8714894
619	2679625860712000	1594026689480	8.809465	-9.579201	1.1049241
620	2679625870334000	1594026689490	8.562862	-9.56723	1.3563153
621	2679625880322000	1594026689499	8.224083	-9.375694	1.5753847
622	2679625890531000	1594026689510	7.675811	-9.242816	1.6651673
623	2679625900302000	1594026689519	7.0844426	-9.209297	1.6903064
624	2679625910641000	1594026689530	6.4751186	-9.156625	1.6555905
625	2679625920656000	1594026689540	5.7808	-8.9998045	1.5263035
626	2679625930291000	1594026689549	5.057751	-8.803479	1.3455414
627	2679625941140000	1594026689561	4.405331	-8.550891	1.1456255
628	2679625951175000	1594026689571	3.9109285	-8.342596	0.9792285
629	2679625960899000	1594026689581	3.5110967	-8.095993	0.7697359
630	2679625970628000	1594026689591	3.2357635	-7.7081323	0.6655881
631	2679625981151000	1594026689601	2.9951463	-7.32506	0.6727707
632	2679625990607000	1594026689610	2.7832594	-7.03177	0.581791
633	2679626001502000	1594026689622	2.622848	-6.7708025	0.47644615
634	2679626010872000	1594026689631	2.5151088	-6.645107	0.2633622
635	2679626020374000	1594026689642	2.5151088	-6.68102	0.2633622
636	2679626030697000	1594026689650	2.6384103	-7.9990277	-0.0023942017
637	2679626040398000	1594026689660	2.2505496	-8.676587	-0.4357447
638	2679626050577000	1594026689670	1.6555905	-8.9124155	-1.1432313
639	2679626060900000	1594026689681	0.8882488	-8.967483	-1.899799
640	2679626070438000	1594026689690	0.34596214	-8.791509	-2.4289176
641	2679626081015000	1594026689701	0.260968	-8.505402	-2.3199813
642	2679626090507000	1594026689710	0.5315128	-8.372523	-1.7633295
643	2679626101030000	1594026689721	1.1168951	-8.3150625	-1.0187328
644	2679626110855000	1594026689731	2.005144	-8.200141	-0.30166942
645	2679626121289000	1594026689741	3.1543608	-8.100781	0.1436521
646	2679626131169000	1594026689751	4.4568067	-7.9583263	0.45489833
647	2679626141198000	1594026689761	5.741296	-7.854179	0.6356605
648	2679626151188000	1594026689771	6.918046	-7.6602483	0.7338228
649	2679626161177000	1594026689781	7.789535	-7.505822	0.78649527
650	2679626171215000	1594026689791	8.412027	-7.5704656	0.7793127
651	2679626180570000	1594026689800	8.7292595	-7.843405	0.7158663
652	2679626190661000	1594026689811	8.847773	-8.264784	0.5674258
653	2679626201436000	1594026689821	8.902839	-8.829816	0.2837129
654	2679626211221000	1594026689832	9.064447	-9.496601	-0.02633622
655	2679626220730000	1594026689842	9.32781	-10.17416	-0.24660277
656	2679626230358000	1594026689850	9.633071	-10.913968	-0.4309563
657	2679626240328000	1594026689860	9.956287	-11.676521	-0.4297592
658	2679626250302000	1594026689869	10.348937	-12.200851	-0.22146365
659	2679626260366000	1594026689880	10.755951	-12.448651	0.03232172
660	2679626270795000	1594026689890	11.131841	-12.434286	0.29807812
661	2679626280757000	1594026689900	11.58674	-12.187684	0.62368953
662	2679626290516000	1594026689910	12.036849	-11.917139	0.9959879
663	2679626300970000	1594026689920	12.411542	-11.631032	1.353921
664	2679626310916000	1594026689930	12.727576	-11.273099	1.7776948
665	2679626320534000	1594026689940	13.012486	-10.662578	2.1978772
666	2679626330897000	1594026689950	13.187263	-9.950302	2.457648
667	2679626340898000	1594026689960	13.244724	-9.315839	2.7150247
668	2679626350645000	1594026689970	13.256695	-8.775947	2.991555
669	2679626361210000	1594026689981	13.236344	-8.171411	3.311181
670	2679626370672000	1594026689990	13.067553	-7.61835	3.606865
671	2679626381196000	1594026690001	12.753913	-7.2747817	3.894169
672	2679626391133000	1594026690011	12.430696	-7.0784574	4.223372
673	2679626401317000	1594026690021	12.0727625	-6.9383965	4.4663835
674	2679626411190000	1594026690031	11.69807	-6.634333	4.6124296
675	2679626421396000	1594026690042	11.453861	-6.26802	4.4903255
676	2679626431183000	1594026690051	11.241974	-5.884948	4.176685
677	2679626440577000	1594026690061	10.972627	-5.5880666	3.7541082
678	2679626451189000	1594026690071	10.751163	-5.2648497	3.4596214
679	2679626461326000	1594026690081	10.685322	-4.832696	2.942474
680	2679626470649000	1594026690091	10.763134	-4.3263226	2.942474
681	2679626481197000	1594026690101	10.778696	-3.8594532	2.0901382
682	2679626491195000	1594026690111	10.630256	-3.8391025	1.5155296
683	2679626501316000	1594026690121	10.510546	-4.0222588	1.0067618
684	2679626511202000	1594026690131	10.426748	-4.176685	0.62009823
685	2679626521303000	1594026690141	10.383653	-4.5034933	0.35913026
686	2679626531061000	1594026690151	10.43034	-4.7536874	0.092176765
687	2679626541165000	1594026690161	10.472239	-4.6351743	-0.2621651
688	2679626551194000	1594026690171	10.400413	-4.3873744	-0.5638345
689	2679626561220000	1594026690181	10.4171715	-4.1706996	-0.82360536
690	2679626571209000	1594026690191	10.972627	-4.203021	-1.2856863
691	2679626581200000	1594026690201	11.848905	-4.9548006	-1.2916719
692	2679626591200000	1594026690211	12.543222	-6.0465565	-0.6500258
693	2679626601193000	1594026690221	13.378799	-7.0425444	-0.11492168
694	2679626611193000	1594026690231	14.824897	-8.189367	-0.046686932
695	2679626621399000	1594026690241	16.528372	-9.664195	0.05746084
696	2679626630814000	1594026690251	17.70153	-10.940305	0.59735334
697	2679626641201000	1594026690261	17.816452	-11.335348	1.5167267
698	2679626651290000	1594026690272	17.172411	-10.341754	2.6408045
699	2679626661214000	1594026690281	16.521189	-8.77834	3.822343
700	2679626671165000	1594026690291	16.601395	-7.4842744	5.1547165
701	2679626681335000	1594026690301	17.286137	-6.75524	6.4882865
702	2679626691194000	1594026690311	18.236635	-6.361394	7.443573
703	2679626700669000	1594026690321	19.318813	-6.1650696	7.787141
704	2679626711095000	1594026690331	20.082563	-6.459556	7.0485296
705	2679626721396000	1594026690341	19.9856	-7.799112	5.1104236
706	2679626731193000	1594026690351	18.981232	-9.745598	2.9771898
707	2679626741345000	1594026690361	17.654844	-11.498154	1.3970166
708	2679626751046000	1594026690373	16.197971	-12.921507	0.30526072
709	2679626761417000	1594026690381	14.828488	-13.830106	-0.16639702
710	2679626771209000	1594026690392	13.715184	-14.210784	-0.15801731
711	2679626780482000	1594026690401	12.860455	-14.228741	0.09935937
712	2679626791012000	1594026690411	12.364855	-13.901932	0.25019407
713	2679626800405000	1594026690420	12.172121	-13.710396	0.40342298
714	2679626811023000	1594026690431	11.92911	-13.723564	0.78410107
715	2679626820572000	1594026690440	11.463438	-13.493721	1.2509704
716	2679626830347000	1594026690450	10.848128	-13.176489	1.5873557
717	2679626841046000	1594026690461	10.248381	-12.731168	1.8351556
718	2679626850527000	1594026690470	9.69532	-12.421119	2.1320367
719	2679626860333000	1594026690480	9.227253	-12.261904	2.4791958
720	2679626870392000	1594026690489	8.760384	-12.3038025	2.7090392
721	2679626880368000	1594026690500	8.313866	-12.263102	2.8790276
722	2679626890363000	1594026690510	7.9068513	-12.036849	2.9592333
723	2679626900354000	1594026690520	7.5944076	-11.71004	2.742558
724	2679626910332000	1594026690530	7.3286514	-11.253945	2.3427265
725	2679626920331000	1594026690540	6.9587474	-10.785878	1.721431
726	2679626930318000	1594026690549	6.5696893	-10.260351	1.1001357
727	2679626940311000	1594026690559	6.326678	-9.976639	0.62728083
728	2679626950400000	1594026690569	6.145916	-9.870096	0.35194764
729	2679626960323000	1594026690580	6.0106435	-9.540894	0.1400608
730	2679626970392000	1594026690589	5.412093	-8.676587	-0.4165911
731	2679626980386000	1594026690600	5.032612	-8.331821	-0.7015011
732	2679626990403000	1594026690609	4.578911	-8.036138	-0.90381116
733	2679627000389000	1594026690620	4.1479545	-7.8062944	-0.9588778
734	2679627010744000	1594026690631	3.726575	-7.6291237	-0.9911995
735	2679627020330000	1594026690639	3.2920272	-7.5572977	-1.0007763
736	2679627030712000	1594026690650	2.7880478	-7.4854717	-1.0857705
737	2679627040693000	1594026690660	2.4863784	-7.3071036	-1.1587936
738	2679627050476000	1594026690670	2.4432828	-7.1861963	-1.2425907
739	2679627060534000	1594026690680	2.3211784	-7.3430166	-1.5275006
740	2679627070433000	1594026690690	2.2170308	-7.6590514	-1.7609353
741	2679627080423000	1594026690700	2.231396	-7.9032598	-1.9093759
742	2679627090434000	1594026690710	2.336741	-7.880515	-2.0398598
743	2679627100488000	1594026690720	2.349909	-7.777564	-2.2864625
744	2679627110395000	1594026690730	2.3666685	-7.60997	-2.4361002
745	2679627120704000	1594026690740	2.6264393	-7.404069	-2.255338
746	2679627130727000	1594026690750	3.4117374	-7.667431	-1.9536686
747	2679627140736000	1594026690760	4.485537	-8.558074	-1.5406688
748	2679627150714000	1594026690770	5.2804117	-9.388862	-1.1504139
749	2679627160731000	1594026690780	5.8143187	-9.753978	-0.8631097
750	2679627170695000	1594026690791	6.1159883	-9.844957	-0.7170634
751	2679627180585000	1594026690800	6.1746464	-10.019734	-0.4225766
752	2679627191235000	1594026690811	6.0764837	-10.022128	0.30047232
753	2679627200687000	1594026690821	5.9005103	-9.755175	1.1312603
754	2679627210764000	1594026690831	5.7496753	-9.49301	1.9919758
755	2679627220612000	1594026690843	5.851429	-9.465476	2.919729
756	2679627230401000	1594026690850	6.4643445	-9.728839	3.918111
757	2679627240704000	1594026690860	7.467515	-10.065224	4.7644615
758	2679627250520000	1594026690870	8.655039	-10.33936	5.2648497
759	2679627260382000	1594026690881	9.788693	-10.618284	5.433641
760	2679627270772000	1594026690890	10.730812	-10.888829	5.291186
761	2679627280674000	1594026690900	11.581951	-10.947487	4.9081135
762	2679627290534000	1594026690910	12.28824	-10.833763	4.3047748
763	2679627301146000	1594026690921	12.828133	-10.435128	3.6248214
764	2679627310772000	1594026690930	13.295002	-9.749189	2.9879637
765	2679627320639000	1594026690940	13.721169	-8.804677	2.540248
766	2679627330648000	1594026690950	13.940239	-7.777564	2.2014685
767	2679627341098000	1594026690961	13.693637	-7.001843	1.9752164
768	2679627351104000	1594026690971	13.091495	-6.4368114	1.9812019
769	2679627360675000	1594026690981	12.516887	-5.979519	2.2290018
770	2679627371684000	1594026690992	12.032061	-5.7963624	2.5833437
771	2679627381055000	1594026691001	11.51611	-5.852626	3.1148565
772	2679627391246000	1594026691012	10.928333	-6.172252	3.6834793
773	2679627401280000	1594026691021	10.307038	-6.7025676	4.119224
774	2679627410699000	1594026691031	9.759963	-7.2424603	4.3418846
775	2679627420706000	1594026691041	9.488221	-7.6291237	4.237737
776	2679627430618000	1594026691050	9.609129	-7.728483	2.9831753
777	2679627440688000	1594026691061	9.909601	-7.1993647	2.1619642
778	2679627450693000	1594026691071	9.868899	-6.862979	1.5658079
779	2679627461288000	1594026691081	9.688137	-6.6103907	1.1552023
780	2679627470698000	1594026691091	9.482236	-6.26802	0.8678981
781	2679627481282000	1594026691101	9.44752	-5.8466406	0.8595184
782	2679627491311000	1594026691111	9.733627	-5.4623713	1.1408371
783	2679627500694000	1594026691121	10.226832	-5.1702785	1.4305356
784	2679627510689000	1594026691131	10.54167	-4.891354	1.6663644
785	2679627520438000	1594026691145	10.632649	-4.5082817	1.7956513
786	2679627530621000	1594026691151	10.679337	-4.1000705	1.8806454
787	2679627541423000	1594026691161	10.643424	-3.8474822	1.851915
788	2679627551243000	1594026691172	10.601525	-3.6727054	1.8614918
789	2679627560687000	1594026691181	10.58716	-3.5314474	1.9069817
790	2679627571333000	1594026691191	10.614694	-3.3865983	1.9488802
791	2679627581283000	1594026691201	10.614694	-3.3267434	2.030283
792	2679627590703000	1594026691211	10.557233	-3.3782187	2.124854
793	2679627600678000	1594026691221	10.631453	-3.502717	2.1535845
794	2679627610697000	1594026691231	10.783484	-3.7098155	2.0733786
795	2679627620697000	1594026691241	10.905589	-4.155137	2.078167
796	2679627630736000	1594026691251	10.9103775	-4.8099513	2.1021092
797	2679627640569000	1594026691260	10.860099	-5.327099	2.0111294
798	2679627651162000	1594026691271	10.94629	-5.567716	1.816002
799	2679627661278000	1594026691281	11.097125	-5.7257333	1.7238252
800	2679627670692000	1594026691291	11.335348	-6.027403	1.435324
801	2679627680696000	1594026691301	11.496957	-6.375759	1.0295067
802	2679627691314000	1594026691311	11.622652	-6.691794	0.89064306
803	2679627700700000	1594026691321	11.75553	-6.8809357	0.7517793
804	2679627711306000	1594026691332	11.753136	-6.9503675	0.6356605
805	2679627721209000	1594026691341	11.57836	-6.9120603	0.60333884
806	2679627730866000	1594026691351	11.307815	-6.71813	0.5686229
807	2679627740697000	1594026691361	11.105505	-6.3769565	0.6368576
808	2679627750703000	1594026691371	11.089942	-6.0597243	0.7553706
809	2679627760698000	1594026691381	11.501745	-6.003461	0.6607997
810	2679627770681000	1594026691391	12.175713	-6.5864487	0.6392518
811	2679627780697000	1594026691401	12.367249	-7.5704656	1.0175357
812	2679627790693000	1594026691411	12.228385	-8.497022	1.3299791
813	2679627800685000	1594026691421	12.0967045	-9.43076	1.4449008
814	2679627810698000	1594026691431	11.88362	-10.479421	1.5227122
815	2679627820690000	1594026691441	11.43351	-11.263522	1.6352397
816	2679627830849000	1594026691451	10.700885	-11.439496	1.8782512
817	2679627840697000	1594026691461	9.752781	-10.907983	2.195483
818	2679627850693000	1594026691471	8.9124155	-9.680955	2.5103204
819	2679627861310000	1594026691481	8.421604	-8.086416	2.7736826
820	2679627870695000	1594026691491	8.263587	-6.6546836	2.8514943
821	2679627880703000	1594026691501	8.3868885	-5.6335564	3.0597897
822	2679627890692000	1594026691511	8.66701	-5.1523223	3.4237084
823	2679627901333000	1594026691521	9.0429	-5.6670756	4.19943
824	2679627911217000	1594026691531	9.123106	-6.2943563	4.237737
825	2679627920697000	1594026691541	8.968679	-7.0581064	3.7984009
826	2679627931071000	1594026691553	8.74961	-7.8984714	3.1914709
827	2679627941256000	1594026691561	8.561666	-8.862138	3.217807
828	2679627950696000	1594026691571	8.524555	-9.854534	3.5745432
829	2679627960700000	1594026691581	8.330625	-10.66976	4.068946
830	2679627970675000	1594026691591	8.137892	-11.33894	4.557363
831	2679627980697000	1594026691601	7.908048	-11.559206	5.2923827
832	2679627991226000	1594026691611	7.5046253	-11.432313	6.155493
833	2679628000683000	1594026691621	7.050924	-11.1893015	7.380127
834	2679628011214000	1594026691631	6.8665705	-10.873267	8.611943
835	2679628020702000	1594026691641	6.8246717	-10.457873	9.121908
836	2679628030857000	1594026691651	6.7253127	-9.994595	8.908825
837	2679628041305000	1594026691661	6.5445504	-9.39365	8.136695
838	2679628050701000	1594026691671	6.38773	-8.732851	7.0784574
839	2679628060768000	1594026691681	6.3470287	-8.147469	6.1207767
840	2679628070555000	1594026691691	6.3805475	-7.6746135	5.270835
841	2679628080771000	1594026691701	6.3087215	-7.2927384	4.450821
842	2679628090701000	1594026691711	6.194997	-6.955156	3.7840357
843	2679628100651000	1594026691720	6.136339	-6.6163764	3.1974564
844	2679628110696000	1594026691730	6.1626754	-6.3745623	2.6970682
845	2679628120358000	1594026691739	6.215348	-6.1566896	2.3642743
846	2679628130489000	1594026691750	6.135142	-5.896919	2.1068976
847	2679628140731000	1594026691760	5.8825536	-5.6886234	1.8854338
848	2679628150551000	1594026691770	5.6539073	-5.547365	1.6687586
849	2679628160401000	1594026691780	5.494693	-5.415684	1.3790601
850	2679628170507000	1594026691790	5.2959743	-5.425261	0.9864111
851	2679628180516000	1594026691800	5.085284	-5.5581393	0.6548142
852	2679628190415000	1594026691810	4.7776294	-5.7424927	0.427365
853	2679628200429000	1594026691845	4.4520183	-5.7987566	0.30286652
854	2679628210494000	1594026691845	4.223372	-5.7544637	0.061052144
855	2679628222965000	1594026691845	4.0821137	-5.7281275	-0.15203181
856	2679628240402000	1594026691860	4.1635165	-5.7879825	-0.33638534
857	2679628250338000	1594026691943	4.3957543	-6.029797	-0.39743748
858	2679628260353000	1594026691943	4.6662993	-6.435614	-0.37708676
859	2679628270729000	1594026691943	4.8973393	-6.9371996	-0.32920274
860	2679628280781000	1594026691943	4.9907136	-7.4723034	-0.29209262
861	2679628290428000	1594026691943	4.9823337	-8.002619	-0.20231004
862	2679628300337000	1594026691944	4.8997335	-8.497022	-0.05746084
863	2679628310355000	1594026691944	4.8027687	-8.767567	0.1388637
864	2679628320370000	1594026691944	4.6722846	-8.852561	0.47285482
865	2679628330348000	1594026691950	4.685453	-8.7951	0.8355764
866	2679628340430000	1594026691960	5.12838	-8.531737	1.0235212
867	2679628351122000	1594026691970	5.9723363	-8.249222	0.8631097
868	2679628361599000	1594026691981	7.8888946	-9.408015	0.62847793
869	2679628371140000	1594026691991	8.061277	-10.358514	0.35673606
870	2679628380473000	1594026692001	8.061277	-10.358514	0.07182605
871	2679628390719000	1594026692011	8.027759	-11.304223	-0.17357962
872	2679628400772000	1594026692021	7.9224133	-11.548432	-0.19632454
873	2679628414643000	1594026692036	7.6590514	-11.659762	-0.019153614
874	2679628430810000	1594026692052	7.277176	-11.314998	0.08379706
875	2679628440818000	1594026692062	7.4208283	-10.78947	0.19273324
876	2679628450841000	1594026692072	7.9547353	-10.327389	0.6787562
877	2679628460894000	1594026692082	8.6095495	-9.835381	1.4401124
878	2679628471857000	1594026692093	9.155427	-9.14226	2.3511062
879	2679628482467000	1594026692105	9.49301	-8.388085	3.1232362
880	2679628494580000	1594026692116	9.77792	-7.627927	3.655946
881	2679628508350500	1594026692136	10.313024	-6.4547677	3.7924154
882	2679628520659000	1594026692142	10.552444	-6.078878	3.4081461
883	2679628530753000	1594026692153	10.712855	-5.8454432	2.837129
884	2679628543369000	1594026692167	10.757148	-5.6922145	2.1152773
885	2679628560895000	1594026692181	10.651803	-5.3259015	0.5805939
886	2679628571383000	1594026692192	10.538078	-5.031415	-0.14844051
887	2679628580748000	1594026692202	10.364499	-4.808754	-0.80445176
888	2679628591827000	1594026692213	10.077195	-4.617218	-1.3323733
889	2679628601049000	1594026692222	9.719262	-4.501099	-1.7274165
890	2679628610783000	1594026692232	9.357738	-4.4723687	-1.9859903
891	2679628620630000	1594026692241	9.062054	-4.537012	-2.099715
892	2679628630618000	1594026692251	8.874108	-4.6818614	-2.0350714
893	2679628640664000	1594026692262	8.765172	-4.9775453	-1.7884687
894	2679628650844000	1594026692272	8.585608	-5.3259015	-1.2725182
895	2679628660566000	1594026692282	8.354567	-5.6203885	-0.58298814
896	2679628670835000	1594026692292	8.1319065	-5.7185507	0.06464344
897	2679628680555000	1594026692302	7.8290396	-5.768829	0.58897364
898	2679628693919000	1594026692315	7.5094137	-5.7963624	1.0151415
899	2679628710707000	1594026692332	7.07726	-5.6910176	1.6460136
900	2679628720539000	1594026692341	6.897695	-5.531803	1.8746599
901	2679628730709000	1594026692352	6.7468605	-5.303157	2.0530279
902	2679628740551000	1594026692361	6.7085533	-5.043386	2.1068976
903	2679628751088000	1594026692372	6.849811	-4.7620673	1.9752164
904	2679628760869000	1594026692382	7.017405	-4.4819455	1.6891093
905	2679628770869000	1594026692392	7.120356	-4.250905	1.3922282
906	2679628780777000	1594026692402	7.1131735	-4.021062	1.067814
907	2679628790818000	1594026692412	7.0844426	-3.83192	0.78649527
908	2679628800563000	1594026692422	7.1550717	-3.6954503	0.5781997
909	2679628810838000	1594026692432	7.2867527	-3.5362358	0.40462008
910	2679628820559000	1594026692443	7.439982	-3.4488475	0.15562311
911	2679628830773000	1594026692452	7.6291237	-3.5194764	-0.074220255
912	2679628840729000	1594026692461	7.9631147	-3.6894648	-0.2717419
913	2679628854610000	1594026692476	8.865729	-4.497508	-0.61291564
914	2679628867568000	1594026692497	9.275137	-5.6156	-1.1300632
915	2679628880800000	1594026692501	9.428367	-6.209362	-1.3192052
916	2679628893255000	1594026692516	9.683349	-6.8318543	-1.3359646
917	2679628906426000	1594026692533	10.260351	-7.773973	-0.81283146
918	2679628921271000	1594026692542	10.445902	-8.009802	-0.25977087
919	2679628931434000	1594026692552	10.575189	-8.026561	0.31364042
920	2679628940831000	1594026692562	10.5704	-7.8086886	0.8655039
921	2679628951603000	1594026692572	10.517728	-7.350199	1.3730747
922	2679628961034000	1594026692582	10.534488	-6.859388	1.7908629
923	2679628971647000	1594026692593	10.571598	-6.3829417	2.0961237
924	2679628981041000	1594026692602	10.67814	-5.8741736	2.3104045
925	2679628991592000	1594026692612	10.667366	-5.4085016	2.4480712
926	2679629000692000	1594026692622	10.648212	-5.055357	2.3750482
927	2679629011630000	1594026692633	11.130644	-5.121197	1.9416976
928	2679629020546000	1594026692643	11.951855	-6.2368956	1.5215151
929	2679629031954000	1594026692653	12.2224	-8.112753	1.4209588
930	2679629041406000	1594026692662	12.018892	-9.807847	1.3192052
931	2679629052135000	1594026692674	11.303026	-11.085154	1.532289
932	2679629060540000	1594026692681	10.29387	-11.504139	1.9800048
933	2679629071706000	1594026692693	9.248801	-10.836157	2.3810337
934	2679629081428000	1594026692702	8.579621	-9.406818	2.6420016
935	2679629091733000	1594026692713	8.580819	-7.821857	2.7329812
936	2679629100794000	1594026692722	9.041702	-6.4008985	2.870648
937	2679629110802000	1594026692732	9.738416	-5.4887075	3.21661
938	2679629120552000	1594026692743	10.469844	-5.093664	3.6332011
939	2679629130879000	1594026692752	11.112687	-5.023035	3.9372647
940	2679629140847000	1594026692762	11.628637	-5.1475334	4.07134
941	2679629151617000	1594026692772	11.917139	-5.591658	3.942053
942	2679629160526000	1594026692781	12.032061	-6.4020953	3.6475663
943	2679629170767000	1594026692792	11.948263	-7.547721	3.2213984
944	2679629180765000	1594026692802	11.71842	-8.700529	2.9029696
945	2679629194628000	1594026692820	11.445481	-9.653421	2.7246015
946	2679629210870000	1594026692832	10.7356	-10.773908	2.8670566
947	2679629223206000	1594026692845	10.217256	-10.629059	3.1256304
948	2679629231376000	1594026692854	9.864111	-10.243592	3.2321723
949	2679629240516000	1594026692861	9.858126	-9.842564	3.301604
950	2679629250368000	1594026692870	10.047267	-9.470264	3.3638535
951	2679629260393000	1594026692880	10.178948	-9.156625	3.2393548
952	2679629270523000	1594026692890	10.236409	-8.921992	3.0298622
953	2679629280465000	1594026692900	10.213664	-8.827422	2.815581
954	2679629292387000	1594026692912	9.830592	-8.626308	2.2864625
955	2679629302847000	1594026692922	9.655815	-8.384495	2.03148
956	2679629316894500	1594026692944	9.427169	-8.145074	1.7070658
957	2679629332880000	1594026692953	9.345766	-8.146272	1.6867151
958	2679629350594000	1594026692971	9.176975	-8.3629465	1.8100165
959	2679629360621000	1594026692981	8.998607	-8.542512	1.8686744
960	2679629371851000	1594026692992	8.750807	-8.659827	1.9249382
961	2679629380643000	1594026693000	8.380903	-8.737639	1.9656396
962	2679629390699000	1594026693010	7.9475527	-8.734048	1.9608512
963	2679629400514000	1594026693020	7.4842744	-8.637083	1.9452889
964	2679629410331000	1594026693030	7.061698	-8.558074	1.9656396
965	2679629420382000	1594026693040	6.661866	-8.477868	1.9740193
966	2679629430405000	1594026693050	6.2859764	-8.433576	1.970428
967	2679629440341000	1594026693060	5.9052987	-8.327033	1.9117701
968	2679629450414000	1594026693070	5.568913	-8.180987	1.8950106
969	2679629460324000	1594026693080	5.2504845	-8.070854	1.8950106
970	2679629470347000	1594026693090	4.9045224	-7.9667063	1.8327614
971	2679629480582000	1594026693100	4.593276	-7.854179	1.7178397
972	2679629490359000	1594026693110	4.2916064	-7.7907324	1.5682021
973	2679629500303000	1594026693120	3.9755719	-7.8876977	1.4185646
974	2679629510729000	1594026693130	3.6008794	-8.063671	1.2521675
975	2679629520744000	1594026693141	3.192668	-8.078036	1.0606314
976	2679629530709000	1594026693150	2.7820623	-7.9750857	0.81881696
977	2679629540713000	1594026693160	2.396596	-7.8170686	0.52073884
978	2679629550502000	1594026693170	2.042254	-7.539341	0.2813187
979	2679629560367000	1594026693180	1.6484078	-7.2340803	0.062249243
980	2679629570426000	1594026693189	1.2270284	-7.0221934	-0.10175357
981	2679629580434000	1594026693199	0.94570965	-6.769605	-0.1364695
982	2679629590510000	1594026693210	0.8870517	-6.542156	-0.11971009
983	2679629600390000	1594026693220	1.1073183	-6.39611	-0.15203181
984	2679629613911000	1594026693235	1.827973	-6.50744	-0.30406362
985	2679629630790000	1594026693251	4.1479545	-7.872135	-1.2198458
986	2679629640810000	1594026693260	4.8015714	-8.451532	-1.9512744
987	2679629650543000	1594026693270	5.1822495	-8.9363575	-2.7724855
988	2679629660548000	1594026693280	5.3606176	-9.3421755	-3.6104562
989	2679629670392000	1594026693290	5.33069	-9.519346	-4.155137
990	2679629680844000	1594026693300	5.246893	-9.454702	-4.213795
991	2679629690773000	1594026693310	5.5401826	-9.224859	-3.657143
992	2679629700520000	1594026693320	6.3901243	-8.908825	-2.480393
993	2679629710841000	1594026693330	7.651869	-8.714894	-1.0055647
994	2679629720803000	1594026693340	9.090784	-8.704121	0.4237737
995	2679629730762000	1594026693350	10.534488	-8.88608	1.6256629
996	2679629740828000	1594026693360	11.853693	-9.19134	2.6515784
997	2679629750797000	1594026693370	12.786234	-9.457097	3.3518825
998	2679629760846000	1594026693380	13.261483	-9.65821	3.6224272
999	2679629772181000	1594026693392	13.385982	-9.8198185	3.229778
1000	2679629780511000	1594026693400	13.385982	-10.013748	3.229778
1001	2679629790370000	1594026693410	13.303382	-10.115502	2.5677812
1002	2679629800400000	1594026693420	13.148955	-10.070012	1.3934253
1003	2679629810388000	1594026693430	13.162124	-9.220071	0.9540894
1004	2679629820387000	1594026693441	13.27106	-8.503007	0.6967127
1005	2679629830466000	1594026693450	13.28782	-7.7572136	0.6799533
1006	2679629840602000	1594026693460	13.277045	-7.053318	0.8595184
1007	2679629850570000	1594026693470	13.266272	-6.4978633	1.2138603
1008	2679629860411000	1594026693480	13.193249	-6.089652	1.7034745
1009	2679629870708000	1594026693490	13.032837	-5.8262897	2.1930888
1010	2679629880695000	1594026693501	12.744335	-5.7724204	2.5953147
1011	2679629890542000	1594026693510	12.419921	-5.9029045	3.016694
1012	2679629903374000	1594026693523	12.045229	-6.0645127	3.3075895
1013	2679629911413000	1594026693531	11.522096	-6.223727	3.5362358
1014	2679629920712000	1594026693541	11.060015	-6.283582	3.7912183
1015	2679629931555000	1594026693552	10.815806	-6.303933	3.9133227
1016	2679629940716000	1594026693561	10.790668	-6.157887	3.7181952
1017	2679629950746000	1594026693571	10.878056	-5.710171	3.3267434
1018	2679629963649000	1594026693587	10.948685	-5.201403	2.8550856
1019	2679629972400000	1594026693593	10.90918	-4.8506527	2.5198972
1020	2679629980756000	1594026693602	10.787076	-4.644751	2.3894134
1021	2679629990520000	1594026693611	10.697293	-4.474763	2.4361002
1022	2679630001691000	1594026693622	10.612299	-4.2784386	2.4768016
1023	2679630010616000	1594026693631	10.441113	-4.036624	2.4887726
1024	2679630021202000	1594026693643	10.196905	-3.750517	2.4049757
1025	2679630030509000	1594026693651	9.97185	-3.3267434	2.2110453
1026	2679630041684000	1594026693662	9.80665	-2.9161377	1.946486
1027	2679630050622000	1594026693671	9.763555	-2.6515784	1.7262194
1028	2679630061239000	1594026693682	9.82341	-2.586935	1.5071499
1029	2679630070504000	1594026693691	9.910798	-2.718616	1.2856863
1030	2679630081679000	1594026693703	10.028113	-2.967613	1.1061212
1031	2679630090697000	1594026693712	10.3214035	-3.3674448	0.90979666
1032	2679630100568000	1594026693721	10.654198	-3.7960067	0.5494693
1033	2679630110818000	1594026693732	10.8864355	-4.2078094	0.04070143
1034	2679630122226000	1594026693746	10.979809	-4.605247	-0.5686229
1035	2679630130908000	1594026693752	11.0061455	-4.9320555	-1.0773908
1036	2679630140714000	1594026693762	11.061212	-5.161899	-1.4413095
1037	2679630150553000	1594026693772	11.282676	-5.3701944	-1.5777789
1038	2679630160822000	1594026693782	11.767501	-5.60722	-1.3754689
1039	2679630170594000	1594026693792	12.45344	-5.807136	-0.94570965
1040	2679630180554000	1594026693801	13.054385	-5.9448028	-0.35434186
1041	2679630190809000	1594026693811	13.364434	-6.126762	0.22385786
1042	2679630200745000	1594026693821	13.372813	-6.337452	0.6775591
1043	2679630210388000	1594026693830	12.97777	-6.5349736	0.92775315
1044	2679630220406000	1594026693840	12.368446	-6.5864487	1.2018893
1045	2679630230414000	1594026693856	11.95784	-6.5684924	1.6603789
1046	2679630240434000	1594026693860	11.8261595	-6.4404025	1.9728222
1047	2679630250367000	1594026693870	11.912351	-6.009446	2.3870192
1048	2679630262140000	1594026693882	12.458228	-5.697003	2.4289176
1049	2679630270409000	1594026693890	12.458228	-5.697003	1.685518
1050	2679630280447000	1594026693900	11.659762	-7.7799582	1.1348516
1051	2679630292273000	1594026693912	10.599131	-8.234857	0.5482722
1052	2679630302736000	1594026693922	9.7084875	-8.684967	0.08499416
1053	2679630312864000	1594026693933	9.305065	-8.981848	0.15442601
1054	2679630330510000	1594026693950	9.338584	-8.095993	0.89423436
1055	2679630342458000	1594026693962	9.504981	-7.4866686	1.5023615
1056	2679630350567000	1594026693970	9.829395	-6.951565	2.1751323
1057	2679630361218000	1594026693981	10.004171	-6.6163764	2.7724855
1058	2679630373282000	1594026693993	10.070012	-6.467936	3.3411086
1059	2679630390497000	1594026694010	10.708067	-6.703765	4.2916064
1060	2679630402265000	1594026694022	11.201273	-7.201759	4.4077253
1061	2679630410546000	1594026694030	11.704055	-7.8876977	4.3167458
1062	2679630420698000	1594026694041	12.174516	-8.604761	4.0258503
1063	2679630430718000	1594026694051	12.4151325	-9.372103	3.5877113
1064	2679630443758000	1594026694066	12.543222	-10.213664	3.2620997
1065	2679630453265000	1594026694078	12.586318	-10.969035	3.004723
1066	2679630467482500	1594026694095	13.057976	-12.332533	2.633622
1067	2679630483898000	1594026694105	12.962208	-12.659342	2.7461493
1068	2679630501226000	1594026694122	11.963826	-12.352883	3.2501287
1069	2679630510804000	1594026694132	11.677719	-11.841722	3.2513258
1070	2679630521195000	1594026694142	11.8896055	-11.031284	3.321955
1071	2679630530538000	1594026694152	12.040441	-10.5919485	3.66672
1072	2679630540864000	1594026694162	12.040441	-10.498574	4.1132383
1073	2679630550704000	1594026694172	12.010512	-10.654198	4.2437224
1074	2679630561025000	1594026694182	12.211626	-10.636241	5.1678843
1075	2679630570710000	1594026694192	12.215217	-10.760739	6.3350577
1076	2679630581173000	1594026694202	11.804611	-11.179725	7.0688806
1077	2679630590629000	1594026694211	11.220427	-11.476605	7.5680714
1078	2679630602842000	1594026694225	10.854114	-11.572374	7.8829093
1079	2679630616393500	1594026694244	12.106281	-11.316195	6.5122285
1080	2679630630662000	1594026694252	13.585897	-10.487801	6.3338604
1081	2679630640670000	1594026694261	15.435418	-9.8916445	6.1159883
1082	2679630650633000	1594026694272	16.218323	-10.036493	6.4631476
1083	2679630660538000	1594026694281	15.326482	-11.022904	7.4004774
1084	2679630670795000	1594026694292	13.26268	-12.816162	7.8948803
1085	2679630680691000	1594026694302	12.551602	-13.215993	7.9702973
1086	2679630690557000	1594026694312	12.904747	-12.163742	7.785944
1087	2679630700682000	1594026694322	12.802994	-11.560403	7.2747817
1088	2679630710559000	1594026694332	11.030087	-12.65575	6.622362
1089	2679630720708000	1594026694342	8.246828	-13.980941	5.436035
1090	2679630730583000	1594026694351	5.638345	-13.905523	3.9360676
1091	2679630740629000	1594026694361	4.4005427	-11.523293	-1.8100165
1092	2679630750695000	1594026694372	4.915296	-9.332599	-4.4184995
1093	2679630760452000	1594026694381	4.5441947	-7.9128366	-6.029797
1094	2679630770702000	1594026694391	3.3794158	-7.5644803	-6.9491706
1095	2679630781285000	1594026694401	2.184709	-7.1490865	-6.8785415
1096	2679630790693000	1594026694411	0.93254155	-6.9611416	-6.2632318
1097	2679630803723000	1594026694426	-1.4867992	-7.4746976	-6.2584434
1098	2679630813537000	1594026694435	-4.7381253	-8.252813	-6.793547
1099	2679630830603000	1594026694452	-8.910022	-8.455123	-7.952341
1100	2679630844006000	1594026694465	-8.941146	-7.878121	-8.323442
1101	2679630854455000	1594026694477	-7.433996	-7.123947	-8.079233
1102	2679630870999000	1594026694492	-2.5151088	-5.318719	-7.5106106
1103	2679630881106000	1594026694502	-0.6967127	-4.7321396	-7.884106
1104	2679630891661000	1594026694512	-0.19033903	-4.9667716	-9.018958
1105	2679630904498000	1594026694526	-0.4237737	-5.3438582	-10.474632
1106	2679630916778500	1594026694546	-0.5554548	-6.7612257	-11.307815
1107	2679630930758000	1594026694551	-0.9995792	-8.024167	-10.466252
1108	2679630940769000	1594026694561	-0.8355764	-9.622296	-9.48463
1109	2679630950735000	1594026694575	1.3491327	-10.660183	-7.961918
1110	2679630960874000	1594026694582	5.3606176	-10.486604	-6.5218053
1111	2679630970617000	1594026694591	9.436746	-9.585187	-5.603629
1112	2679630984311000	1594026694605	11.604695	-9.721656	-5.2887917
1113	2679630997390000	1594026694625	10.773908	-13.351266	-5.1319714
1114	2679631013205000	1594026694637	11.21444	-15.802928	-4.250905
1115	2679631030631000	1594026694652	15.452178	-18.953697	-0.29209262
1116	2679631040650000	1594026694661	17.59858	-20.245369	1.6675615
1117	2679631050783000	1594026694672	19.01475	-21.03785	3.3051953
1118	2679631060575000	1594026694681	19.85751	-21.593306	3.9743748
1119	2679631070825000	1594026694692	21.193474	-21.836317	4.256891
1120	2679631080708000	1594026694702	22.30558	-21.899763	4.614824
1121	2679631090837000	1594026694712	22.832304	-22.155943	5.321113
1122	2679631101094000	1594026694722	23.616405	-21.871033	6.38773
1123	2679631110550000	1594026694731	25.157074	-20.578163	7.454347
1124	2679631120568000	1594026694741	25.907656	-19.027918	8.443152
1125	2679631130791000	1594026694752	24.699781	-18.386272	8.725668
1126	2679631140842000	1594026694762	22.139183	-18.707094	8.3868885
1127	2679631150526000	1594026694772	18.995596	-20.022709	8.067263
1128	2679631160685000	1594026694782	15.350424	-21.604078	7.955932
1129	2679631170553000	1594026694792	11.040861	-22.539015	7.821857
1130	2679631180653000	1594026694802	7.255628	-22.881386	8.036138
1131	2679631190560000	1594026694812	4.617218	-22.527044	8.486248
1132	2679631201661000	1594026694823	4.923676	-19.947292	11.35091
1133	2679631210683000	1594026694835	6.087258	-19.458874	14.449007
1134	2679631220746000	1594026694842	5.0134583	-19.58457	16.48408
1135	2679631230923000	1594026694853	2.8107927	-19.323603	17.070658
1136	2679631241812000	1594026694862	0.3878607	-18.751389	16.894684
1137	2679631250637000	1594026694870	-1.4065934	-18.85793	16.36317
1138	2679631260353000	1594026694880	-2.9029696	-19.537884	15.185225
1139	2679631270370000	1594026694890	-4.1144357	-20.28248	13.497313
1140	2679631280379000	1594026694900	-4.497508	-20.760122	12.050017
1141	2679631290487000	1594026694910	-4.471172	-21.048624	10.964247
1142	2679631301290000	1594026694921	-4.167108	-21.628021	10.283096
1143	2679631311850000	1594026694938	-3.7098155	-21.88061	10.26514
1144	2679631320996000	1594026694943	-3.2429461	-21.582531	10.563218
1145	2679631330725000	1594026694951	-2.634819	-21.320366	10.9822035
1146	2679631340382000	1594026694960	-1.5622166	-20.840328	11.648989
1147	2679631350446000	1594026694970	0.16879122	-20.66675	12.175713
1148	2679631360358000	1594026694980	2.5845408	-21.25213	12.668919
1149	2679631371165000	1594026694991	5.231331	-21.812374	13.816938
1150	2679631380871000	1594026695001	7.3178773	-22.475569	14.775816
1151	2679631391331000	1594026695011	8.7292595	-23.888147	14.671668
1152	2679631401200000	1594026695021	9.662998	-25.52219	13.757083
1153	2679631412297000	1594026695032	10.840945	-27.079618	12.567164
1154	2679631421955000	1594026695042	12.835316	-28.921957	13.226768
1155	2679631431239000	1594026695051	16.452953	-29.959843	14.269443
1156	2679631443369000	1594026695064	20.061016	-31.048008	14.476541
1157	2679631451643000	1594026695071	22.820333	-32.35165	13.226768
1158	2679631463327000	1594026695083	23.624784	-33.700783	10.577583
1159	2679631473004000	1594026695093	23.305159	-34.703953	6.9371996
1160	2679631482922000	1594026695103	24.387339	-34.501644	3.8953662
1161	2679631493009000	1594026695113	25.087643	-33.466152	2.2361844
1162	2679631501224000	1594026695121	23.902514	-32.114624	0.8559271
1163	2679631512053000	1594026695132	22.081722	-31.353268	0.31004912
1164	2679631522919000	1594026695143	20.310013	-31.38559	0.25019407
1165	2679631540559000	1594026695160	17.299305	-30.856472	0.5422867
1166	2679631550591000	1594026695170	16.827646	-29.433119	-0.9636662
1167	2679631562229000	1594026695182	15.846024	-27.717672	-2.8215668
1168	2679631570588000	1594026695190	14.924256	-25.858576	-4.1156325
1169	2679631580776000	1594026695201	14.326903	-23.793577	-5.2540755
1170	2679631590751000	1594026695211	13.6014595	-21.588516	-6.1447186
1171	2679631604307000	1594026695225	12.553997	-19.79526	-7.180211
1172	2679631617003500	1594026695246	12.917915	-16.152481	-7.9595237
1173	2679631630817000	1594026695251	12.917915	-14.568717	-7.9595237
1174	2679631643295000	1594026695267	11.504139	-13.10586	-9.611523
1175	2679631660592000	1594026695281	10.048465	-10.600328	-9.751583
1176	2679631670822000	1594026695292	8.525752	-10.253169	-9.637859
1177	2679631680686000	1594026695302	7.0832458	-9.764751	-8.250419
1178	2679631690804000	1594026695317	5.020641	-10.020931	-8.972271
1179	2679631703708000	1594026695324	2.8119898	-10.243592	-10.205285
1180	2679631720825000	1594026695342	-0.44771573	-9.807847	-12.23437
1181	2679631730824000	1594026695352	-0.557849	-9.2547865	-12.704831
1182	2679631740687000	1594026695363	-0.16280572	-8.789114	-12.756307
1183	2679631750421000	1594026695370	0.25498247	-8.7053175	-12.704831
1184	2679631760760000	1594026695382	0.80086046	-8.656237	-12.843695
1185	2679631770994000	1594026695391	0.90500826	-9.100361	-13.802573
1186	2679631780453000	1594026695400	1.0570401	-9.44752	-14.936227
1187	2679631790728000	1594026695410	1.2186487	-9.739613	-16.500837
1188	2679631800341000	1594026695420	2.5019407	-9.793482	-17.055096
1189	2679631810412000	1594026695430	5.234922	-9.623494	-16.197971
1190	2679631820465000	1594026695440	7.3885064	-9.66659	-15.266627
1191	2679631830453000	1594026695450	8.429984	-10.582372	-14.332889
1192	2679631840730000	1594026695460	8.821436	-12.059594	-13.55597
1193	2679631850371000	1594026695470	9.138668	-13.581109	-12.501324
1194	2679631860478000	1594026695480	9.630676	-14.945804	-11.390414
1195	2679631870336000	1594026695490	9.621099	-17.46211	-10.477027
1196	2679631880372000	1594026695500	10.279505	-21.775265	-9.441534
1197	2679631890617000	1594026695510	13.514071	-26.406847	-7.489063
1198	2679631900379000	1594026695520	18.7873	-31.025263	-5.104438
1199	2679631910460000	1594026695530	23.452402	-35.980064	-1.0618285
1200	2679631920403000	1594026695540	25.549723	-39.200264	8.578424
1201	2679631930430000	1594026695550	24.571692	-39.07816	23.272837
1202	2679631940381000	1594026695560	20.33635	-35.746628	33.475727
1203	2679631950477000	1594026695570	16.069881	-27.089195	38.62326
1204	2679631960467000	1594026695580	13.379996	-19.48521	37.502777
1205	2679631970544000	1594026695590	11.371261	-16.715118	33.473335
1206	2679631981070000	1594026695601	10.011354	-15.34803	31.809364
1207	2679631990718000	1594026695610	7.693767	-16.027983	30.137014
1208	2679632000542000	1594026695620	5.031415	-17.483658	26.78633
1209	2679632011741000	1594026695632	2.420538	-18.207905	22.444445
1210	2679632023265000	1594026695643	0.521936	-18.254591	18.679562
1211	2679632033331000	1594026695653	-0.079008654	-17.872715	16.296133
1212	2679632043028000	1594026695663	0.521936	-17.344793	14.964958
1213	2679632053027000	1594026695673	1.7932571	-16.656462	14.368801
1214	2679632063034000	1594026695686	2.8431146	-16.350004	13.909115
1215	2679632071533000	1594026695692	3.7373488	-16.275784	14.638149
1216	2679632083760000	1594026695706	4.396951	-15.729905	18.501194
1217	2679632093734000	1594026695714	4.26527	-14.830882	19.073408
1218	2679632110538000	1594026695731	4.807557	-15.102624	18.432959
1219	2679632120763000	1594026695741	5.6156	-16.206352	17.23107
1220	2679632130731000	1594026695752	5.4647655	-17.415422	16.401478
1221	2679632140811000	1594026695762	4.7656584	-18.413805	16.260221
1222	2679632150523000	1594026695771	4.4328647	-19.03151	16.499641
1223	2679632161231000	1594026695782	5.482722	-18.970457	17.690756
1224	2679632170632000	1594026695791	7.1251445	-19.563023	18.67597
1225	2679632181693000	1594026695802	10.839748	-20.310013	19.408596
1226	2679632190688000	1594026695812	16.056713	-20.366278	18.259378
1227	2679632201042000	1594026695822	21.45923	-20.41895	15.899894
1228	2679632210543000	1594026695831	25.29115	-20.09214	12.887988
1229	2679632220696000	1594026695842	26.321854	-19.506758	8.585608
1230	2679632231035000	1594026695852	25.310303	-18.476055	5.424064
1231	2679632240734000	1594026695862	24.145525	-17.11974	2.2337902
1232	2679632250617000	1594026695875	22.375011	-15.792154	0.25737667
1233	2679632261838000	1594026695882	20.786459	-16.17762	0.89303726
1234	2679632271924000	1594026695893	19.649214	-17.509995	4.510676
1235	2679632281155000	1594026695902	16.439787	-20.578163	5.3366756
1236	2679632291171000	1594026695912	12.216414	-24.104822	2.6731262
1237	2679632300863000	1594026695922	9.180567	-24.472332	-1.1779473
1238	2679632310725000	1594026695932	5.9364233	-23.643938	-5.777209
1239	2679632322211000	1594026695943	5.831078	-20.019117	-12.58991
1240	2679632331011000	1594026695951	5.9424086	-15.314511	-20.386627
1241	2679632340399000	1594026695960	4.876989	-9.898827	-28.355728
1242	2679632350346000	1594026695970	3.9683893	-3.5242648	-34.183216
1243	2679632360386000	1594026695980	7.5165963	1.447295	-32.959778
1244	2679632373278000	1594026695993	14.471752	4.6579194	-26.918009
1245	2679632386645500	1594026696013	17.27177	0.8619126	-20.787657
1246	2679632400593000	1594026696020	9.745598	-5.4527946	-21.59929
1247	2679632410578000	1594026696030	1.4640543	-10.301053	-20.851103
1248	2679632423704000	1594026696045	-3.6224272	-11.259931	-16.601395
1249	2679632440558000	1594026696060	-4.892551	-10.653001	-2.9017725
1250	2679632452960000	1594026696073	-4.237737	-9.15423	1.3239936
1251	2679632466451000	1594026696092	-5.614403	-8.676587	0.6967127
1252	2679632480580000	1594026696100	-7.777564	-8.937555	-1.7621324
1253	2679632490600000	1594026696110	-8.838196	-8.607155	-4.578911
1254	2679632500585000	1594026696120	-9.057265	-8.400057	-7.7703815
1255	2679632510589000	1594026696130	-9.627085	-8.993818	-10.70687
1256	2679632522262000	1594026696142	-9.689334	-9.879673	-12.067974
1257	2679632530800000	1594026696150	-8.645462	-9.9550905	-12.1840925
1258	2679632540534000	1594026696162	-7.1407065	-9.546879	-10.778696
1259	2679632551050000	1594026696170	-5.839458	-9.421184	-9.6845455
1260	2679632560960000	1594026696180	-4.1144357	-8.98903	-9.184157
1261	2679632570823000	1594026696190	-2.147599	-8.346188	-8.622718
1262	2679632580474000	1594026696200	-0.92416185	-8.165425	-8.823831
1263	2679632590874000	1594026696210	0.1376666	-8.212111	-9.392453
1264	2679632603606000	1594026696224	3.41892	-7.880515	-6.658275
1265	2679632613098000	1594026696233	3.204639	-8.990228	-5.291186
1266	2679632621806000	1594026696241	2.9987376	-10.3932295	-5.5246205
1267	2679632633565000	1594026696253	5.4204726	-11.253945	-7.339425
1268	2679632644265000	1594026696265	9.338584	-12.971785	-7.809886
1269	2679632652359000	1594026696273	13.318944	-16.910246	-7.57286
1270	2679632661797000	1594026696283	17.901445	-21.97518	-5.9172697
1271	2679632670650000	1594026696292	20.23699	-28.580782	-2.2972364
1272	2679632681557000	1594026696302	19.288885	-35.54791	2.791639
1273	2679632690716000	1594026696312	16.294937	-39.175125	6.481104
1274	2679632701027000	1594026696322	13.791799	-39.213432	10.101137
1275	2679632710560000	1594026696331	13.360843	-39.213432	16.64449
1276	2679632721121000	1594026696342	14.816517	-39.213432	26.177004
1277	2679632730695000	1594026696352	17.33402	-38.799236	37.77332
1278	2679632740702000	1594026696362	18.801666	-31.282639	39.195477
1279	2679632751301000	1594026696372	19.907787	-23.841461	39.195477
1280	2679632760716000	1594026696382	20.700268	-21.028273	39.195477
1281	2679632770849000	1594026696392	21.53704	-21.115662	39.100906
1282	2679632780758000	1594026696402	18.48204	-23.405716	31.681274
1283	2679632790686000	1594026696412	12.125435	-25.100811	20.987572
1284	2679632801124000	1594026696422	5.663484	-23.93244	13.6254015
1285	2679632810689000	1594026696431	2.552219	-22.127213	10.362105
1286	2679632820880000	1594026696442	3.1160536	-21.40177	9.982624
1287	2679632830560000	1594026696452	5.17387	-21.886595	10.344149
1288	2679632840720000	1594026696462	8.755595	-21.873426	10.854114
1289	2679632850543000	1594026696472	16.523582	-18.990808	9.3421755
1290	2679632860696000	1594026696482	26.33143	-13.438654	5.7065797
1291	2679632870548000	1594026696492	31.899147	-6.4152637	0.49799395
1292	2679632880707000	1594026696502	32.51685	-0.78529817	-3.0178912
1293	2679632890521000	1594026696512	29.288269	3.0466216	-4.763264
1294	2679632900695000	1594026696522	23.555353	2.9819782	-5.2540755
1295	2679632910540000	1594026696532	17.153257	-0.5770026	-1.8471266
1296	2679632920706000	1594026696542	12.176909	-4.4903255	1.5358804
1297	2679632930550000	1594026696552	10.147824	-5.8705826	-0.19273324
1298	2679632941871000	1594026696563	10.611102	-4.2413282	-2.5450363
1299	2679632950835000	1594026696572	12.819753	-2.4672248	-2.4420857
1300	2679632961482000	1594026696582	13.709199	-3.0561984	0.60094464
1301	2679632970854000	1594026696595	11.513716	-5.729325	-0.8738836
1302	2679632980886000	1594026696602	8.78672	-6.694188	-3.4979286
1303	2679632990549000	1594026696611	6.555324	-6.4882865	-7.989451
1304	2679633001344000	1594026696622	4.548983	-5.449203	-12.61026
1305	2679633010600000	1594026696631	2.586935	-3.8618474	-17.19396
1306	2679633021308000	1594026696642	1.067814	-1.6699557	-21.879412
1307	2679633030619000	1594026696651	0.5398925	-0.45848963	-25.899277
1308	2679633041330000	1594026696662	1.8722657	-0.46208093	-27.790697
1309	2679633050534000	1594026696672	5.081693	-0.65242	-24.862587
1310	2679633060557000	1594026696681	10.919954	-0.5734113	-17.373524
1311	2679633070888000	1594026696692	15.3528185	-1.0546459	-10.948685
1312	2679633080729000	1594026696702	15.5838585	-2.9724014	-6.539762
1313	2679633090665000	1594026696712	12.179304	-5.866991	-5.804742
1314	2679633100708000	1594026696722	2.753332	-10.87207	-9.169792
1315	2679633110542000	1594026696732	0.32441434	-12.035652	-9.452309
1316	2679633120561000	1594026696741	1.0821792	-12.089521	-8.955511
1317	2679633130845000	1594026696752	2.4420857	-12.616246	-7.225701
1318	2679633140850000	1594026696762	2.9592333	-13.729549	-4.559757
1319	2679633150559000	1594026696772	2.835932	-14.477737	-2.6240451
1320	2679633160817000	1594026696782	2.148796	-15.288175	-1.863886
1321	2679633170545000	1594026696791	1.7753005	-15.934609	-0.82480246
1322	2679633181388000	1594026696802	0.9983821	-16.758215	0.20470424
1323	2679633190669000	1594026696812	-0.21906945	-18.089392	1.3084313
1324	2679633201476000	1594026696822	-1.2234371	-19.74139	2.2385786
1325	2679633210612000	1594026696831	-1.4544775	-21.109676	3.0346506
1326	2679633221151000	1594026696843	-0.41180268	-22.258894	4.164714
1327	2679633230421000	1594026696851	1.6412252	-23.740904	7.076063
1328	2679633241206000	1594026696862	4.1120415	-23.900118	11.610682
1329	2679633251236000	1594026696872	5.872977	-23.009476	16.725893
1330	2679633260882000	1594026696881	6.853402	-21.655554	22.914904
1331	2679633270985000	1594026696891	7.338228	-19.135656	28.429949
1332	2679633280795000	1594026696900	6.611588	-16.51999	33.420662
1333	2679633290977000	1594026696910	6.7624226	-15.887922	38.19829
1334	2679633300995000	1594026696921	9.211691	-15.836447	39.195477
1335	2679633310977000	1594026696930	13.1717005	-16.632519	39.195477
1336	2679633320829000	1594026696942	17.051504	-17.736246	36.49003
1337	2679633330551000	1594026696952	20.180727	-19.546263	29.284678
1338	2679633340734000	1594026696962	21.051018	-21.83871	21.634007
1339	2679633350550000	1594026696970	20.00954	-23.578098	15.847221
1340	2679633360467000	1594026696980	18.584991	-26.093206	11.833342
1341	2679633370763000	1594026696990	17.60217	-29.210459	9.41041
1342	2679633380538000	1594026697000	21.602882	-31.923088	8.085219
1343	2679633390922000	1594026697010	31.028854	-25.331852	1.1587936
1344	2679633400573000	1594026697020	33.956963	-9.443929	-10.3226
1345	2679633410731000	1594026697031	32.02245	3.5182793	-17.721882
1346	2679633421220000	1594026697042	31.306581	9.494206	-19.790472
1347	2679633430749000	1594026697051	30.985758	9.417592	-11.5951185
1348	2679633440709000	1594026697061	24.867376	6.160281	-3.5853171
1349	2679633450686000	1594026697071	19.754559	2.731784	-0.2621651
1350	2679633461323000	1594026697082	16.72709	0.6679823	2.0901382
1351	2679633470589000	1594026697091	15.866375	0.58897364	2.5725696
1352	2679633481334000	1594026697102	17.705122	2.2864625	4.0378213
1353	2679633490593000	1594026697111	15.418659	1.0630256	-4.4568067
1354	2679633501316000	1594026697122	12.795811	1.8686744	-12.743138
1355	2679633511303000	1594026697133	11.719617	4.295198	-18.464083
1356	2679633520816000	1594026697142	10.035296	5.4683566	-22.397757
1357	2679633530754000	1594026697152	9.074024	5.9627595	-21.16953
1358	2679633540700000	1594026697162	9.921572	6.969521	-17.427395
1359	2679633550860000	1594026697172	11.052833	6.232107	-13.997701
1360	2679633561278000	1594026697182	12.35887	0.48123455	-11.573571
1361	2679633571209000	1594026697192	9.616311	-5.0984526	-10.372879
1362	2679633581033000	1594026697202	6.694188	-8.576031	-7.15986
1363	2679633591370000	1594026697213	4.617218	-9.64145	-3.8774097
1364	2679633601326000	1594026697222	4.578911	-7.9870567	-2.3187842
1365	2679633610888000	1594026697232	6.279991	-5.7400985	-1.4089876
1366	2679633620876000	1594026697242	7.619547	-5.159505	-1.7477672
1367	2679633630660000	1594026697252	7.7691846	-6.0345855	-2.1523874
1368	2679633640559000	1594026697261	7.086837	-8.1558485	-1.5741876
1369	2679633650794000	1594026697272	5.843049	-10.29387	-0.8439561
1370	2679633660803000	1594026697282	3.0107086	-12.218808	1.1839328
1371	2679633670543000	1594026697292	0.0023942017	-13.759478	1.5753847
1372	2679633681127000	1594026697302	-2.9508536	-14.454992	1.2270284
1373	2679633690647000	1594026697312	-4.626795	-13.420697	1.8734628
1374	2679633701342000	1594026697322	-4.425682	-12.859258	3.0789435
1375	2679633710509000	1594026697331	-4.059369	-13.163321	5.1104236
1376	2679633720785000	1594026697341	-2.7269957	-12.616246	7.704541
1377	2679633730496000	1594026697351	-1.0522517	-11.972205	10.716447
1378	2679633741321000	1594026697362	0.93373865	-11.2132435	14.098257
1379	2679633750660000	1594026697371	2.4504654	-9.765948	17.68956
1380	2679633761416000	1594026697382	3.0346506	-8.244433	20.50514
1381	2679633770507000	1594026697391	5.1080294	-6.655881	22.469584
1382	2679633781212000	1594026697402	6.7887588	-5.7269306	24.156298
1383	2679633790656000	1594026697415	8.428787	-6.3350577	24.958355
1384	2679633800833000	1594026697422	10.9103775	-7.4866686	25.321077
1385	2679633810443000	1594026697430	13.029245	-9.533711	23.584084
1386	2679633820546000	1594026697441	15.229517	-11.195287	19.329588
1387	2679633830843000	1594026697450	18.000805	-11.777079	13.980941
1388	2679633840854000	1594026697461	19.57619	-11.523293	9.354146
1389	2679633850561000	1594026697470	17.906235	-11.967417	6.751649
1390	2679633860990000	1594026697481	14.973337	-13.891158	6.3326635
1391	2679633870780000	1594026697490	13.690045	-16.711529	5.209783
1392	2679633881609000	1594026697502	15.7586355	-18.587385	2.5079262
1393	2679633890701000	1594026697512	21.997925	-16.154877	-1.2665327
1394	2679633900553000	1594026697522	25.827452	-10.014946	-6.3087215
1395	2679633911303000	1594026697532	26.439169	-3.90614	-9.2308445
1396	2679633920822000	1594026697541	25.479094	0.4357447	-10.024523
1397	2679633930691000	1594026697552	24.175451	1.5634137	-8.925584
1398	2679633940783000	1594026697561	22.589293	0.107739076	-5.7760115
1399	2679633951010000	1594026697572	20.646399	-2.3894134	-2.944868
1400	2679633960853000	1594026697582	19.648016	-3.2728736	-0.32441434
1401	2679633970733000	1594026697592	21.17432	-1.8243817	1.5610195
1402	2679633981152000	1594026697602	23.568521	0.35194764	2.7844565
1403	2679633990547000	1594026697611	24.479515	1.2449849	3.3159695
1404	2679634001325000	1594026697622	23.546974	1.163582	3.2357635
1405	2679634010695000	1594026697632	21.62443	0.11252748	1.6017209
1406	2679634020855000	1594026697642	19.998766	0.19393034	-0.18674773
1407	2679634030643000	1594026697652	18.751389	1.0366893	-3.846285
1408	2679634040693000	1594026697662	18.672379	5.839458	-10.923545
1409	2679634050552000	1594026697672	19.967642	8.422802	-9.922769
1410	2679634060576000	1594026697681	20.624851	10.296265	-8.641871
1411	2679634070542000	1594026697691	19.871874	10.971429	-7.639898
1412	2679634084334000	1594026697706	19.733011	10.867282	-6.4008985
1413	2679634093991000	1594026697715	20.160376	9.770737	-5.0421886
1414	2679634102035000	1594026697723	19.67555	6.7827735	-3.9073372
1415	2679634110585000	1594026697731	17.626112	2.5127146	-3.5769374
1416	2679634121120000	1594026697741	14.451402	-1.6448165	-3.1364043
1417	2679634130609000	1594026697751	11.480197	-5.4899044	-2.208651
1418	2679634141684000	1594026697762	9.428367	-6.931214	-0.44891283
1419	2679634150615000	1594026697773	7.965509	-6.453571	-0.25498247
1420	2679634160846000	1594026697781	7.1610575	-5.6778493	-2.6048915
1421	2679634170786000	1594026697792	6.862979	-5.592855	-5.4767365
1422	2679634180798000	1594026697802	6.0585275	-7.323863	-7.9990277
1423	2679634190904000	1594026697811	4.56694	-9.953894	-9.526528
1424	2679634200802000	1594026697822	3.4919431	-13.611036	-8.807071
1425	2679634210642000	1594026697831	1.30484	-17.023972	-6.2979474
1426	2679634221783000	1594026697843	-1.1480197	-18.009186	-2.6647465
1427	2679634230663000	1594026697852	-2.542642	-17.203537	0.61650693
1428	2679634242148000	1594026697864	-2.4001873	-16.321274	3.052607
1429	2679634252437000	1594026697874	-2.15957	-15.60421	4.1814733
1430	2679634264333000	1594026697887	-1.8315643	-14.504074	5.0601454
1431	2679634280897000	1594026697902	1.0426749	-13.364434	8.090008
1432	2679634290702000	1594026697912	2.2697031	-13.445837	9.015367
1433	2679634301788000	1594026697923	3.7433343	-12.98615	10.734404
1434	2679634310565000	1594026697931	5.41329	-11.668142	12.726379
1435	2679634322269000	1594026697945	6.745663	-9.704897	14.396335
1436	2679634331982000	1594026697953	8.957906	-6.867768	15.510836
1437	2679634340834000	1594026697966	10.155006	-5.1439424	17.45373
1438	2679634350583000	1594026697971	10.336966	-4.4603977	19.553446
1439	2679634360882000	1594026697981	10.542868	-4.879383	21.141998
1440	2679634370376000	1594026697990	10.620679	-6.5960255	21.272482
1441	2679634380342000	1594026698000	10.109517	-8.403648	19.693506
1442	2679634390891000	1594026698011	9.470264	-9.415198	16.646885
1443	2679634400445000	1594026698021	9.178172	-10.101137	13.144167
1444	2679634410353000	1594026698031	9.17099	-11.255142	10.8624935
1445	2679634420661000	1594026698041	9.618706	-12.193669	9.19972
1446	2679634430864000	1594026698052	9.981427	-12.441469	7.869741
1447	2679634440537000	1594026698061	10.779893	-11.530476	7.100005
1448	2679634450525000	1594026698072	12.9167185	-9.702502	6.659472
1449	2679634460870000	1594026698082	15.643714	-7.681796	5.81791
1450	2679634470576000	1594026698092	17.007212	-6.9731126	5.085284
1451	2679634480423000	1594026698102	17.001226	-7.0964136	4.8482585
1452	2679634490503000	1594026698111	17.294516	-6.673837	4.9907136
1453	2679634503241000	1594026698124	21.327549	-1.5298948	5.21936
1454	2679634514150000	1594026698136	21.377827	1.0115502	4.6160207
1455	2679634527911000	1594026698156	17.91222	1.3934253	2.6623523
1456	2679634541225000	1594026698162	16.751032	0.9744401	2.7952304
1457	2679634551039000	1594026698173	17.095797	1.1803415	3.1771057
1458	2679634564500000	1594026698187	17.409437	2.3080103	2.858677
1459	2679634582121000	1594026698204	15.713146	3.6415808	1.3467385
1460	2679634591354000	1594026698213	15.576676	4.185065	1.0067618
1461	2679634601853000	1594026698222	15.296555	4.498705	0.7793127
1462	2679634611713000	1594026698232	14.378378	4.146757	0.5781997
1463	2679634621668000	1594026698242	13.581109	3.7553053	0.33518824
1464	2679634631484000	1594026698252	13.022063	3.83192	-0.3866636
1465	2679634641639000	1594026698262	12.636597	4.039018	-1.7070658
1466	2679634651495000	1594026698272	12.137405	4.086902	-3.120842
1467	2679634661620000	1594026698282	11.727997	3.7804444	-4.0821137
1468	2679634671478000	1594026698292	11.158177	3.1950622	-4.581305
1469	2679634680878000	1594026698301	10.05445	2.3882163	-4.7141833
1470	2679634691489000	1594026698312	8.859743	1.4329298	-4.4436383
1471	2679634700894000	1594026698321	7.53575	0.049081136	-3.4584243
1472	2679634711480000	1594026698332	6.1519012	-1.4065934	-2.5115175
1473	2679634721675000	1594026698342	4.5046906	-2.7880478	-2.1511903
1474	2679634731582000	1594026698352	2.244564	-4.2796354	-2.919729
1475	2679634740499000	1594026698361	-0.5614403	-6.135142	-3.904943
1476	2679634750636000	1594026698371	-2.4408886	-7.207744	-3.8031895
1477	2679634761580000	1594026698382	-2.7246015	-7.422025	-2.4636335
1478	2679634771588000	1594026698395	-2.2230163	-7.315483	-0.700304
1479	2679634780781000	1594026698401	-1.7369933	-7.2843585	0.6368576
1480	2679634791132000	1594026698412	-1.2761095	-7.061698	1.5107412
1481	2679634801025000	1594026698421	-0.61052144	-6.637924	1.8495208
1482	2679634810877000	1594026698431	0.18315643	-6.549339	1.1623849
1483	2679634821061000	1594026698440	1.1899183	-6.715736	0.06464344
1484	2679634830647000	1594026698450	2.0326772	-7.097611	-0.90381116
1485	2679634840545000	1594026698460	2.942474	-7.3633676	-1.7633295
1486	2679634850522000	1594026698470	4.5082817	-7.5165963	-2.72939
1487	2679634860773000	1594026698481	6.481104	-7.4208283	-3.3925838
1488	2679634870501000	1594026698490	8.221688	-7.463924	-3.681085
1489	2679634880891000	1594026698500	9.02614	-7.9571295	-3.643975
1490	2679634892863000	1594026698513	8.98903	-9.028535	-4.2820296
1491	2679634910491000	1594026698531	10.378864	-10.298658	-3.9624038
1492	2679634921180000	1594026698542	11.6585655	-10.28549	-3.4117374
1493	2679634930435000	1594026698551	12.865243	-9.956287	-2.6192567
1494	2679634941214000	1594026698561	13.826515	-9.660604	-2.4396915
1495	2679634951351000	1594026698573	14.818912	-9.372103	-3.2357635
1496	2679634960513000	1594026698581	15.974113	-9.076419	-3.965995
1497	2679634970635000	1594026698593	16.803705	-9.169792	-4.1000705
1498	2679634980668000	1594026698600	17.113754	-10.105926	-2.815581
1499	2679634990785000	1594026698610	18.060661	-10.848128	-3.3446999
1500	2679635000571000	1594026698620	19.03151	-10.188525	-4.5142674
1501	2679635010848000	1594026698630	20.371065	-10.1226845	-5.3857565
1502	2679635020787000	1594026698641	22.011093	-10.431537	-5.6778493
1503	2679635031317000	1594026698652	23.963564	-10.327389	-6.135142
1504	2679635040612000	1594026698661	25.95554	-9.594764	-6.8653736
1505	2679635051432000	1594026698672	27.68535	-8.731653	-7.231686
1506	2679635060649000	1594026698685	28.954279	-8.119935	-6.943185
1507	2679635070812000	1594026698692	28.56522	-8.049306	-5.9843073
1508	2679635080766000	1594026698702	27.119123	-8.687361	-5.7005944
1509	2679635091428000	1594026698712	25.232492	-9.7563715	-5.934029
1510	2679635100639000	1594026698721	22.23136	-11.129447	-5.1942205
1511	2679635111417000	1594026698732	18.947712	-12.61026	-2.8658595
1512	2679635120515000	1594026698741	16.15727	-13.734338	0.2633622
1513	2679635131545000	1594026698753	13.936648	-14.135366	3.3399115
1514	2679635140695000	1594026698762	12.609063	-13.742718	5.0158525
1515	2679635151572000	1594026698773	12.411542	-12.451046	5.1846437
1516	2679635160703000	1594026698782	12.941857	-10.305841	5.5282116
1517	2679635171561000	1594026698793	13.472173	-8.710106	5.8238955
1518	2679635180693000	1594026698802	13.300987	-8.796297	6.4583592
1519	2679635190890000	1594026698812	12.076353	-9.169792	6.789956
1520	2679635200513000	1594026698821	10.891224	-8.659827	6.393716
1521	2679635210736000	1594026698831	10.00896	-8.082825	5.8143187
1522	2679635221599000	1594026698842	9.307459	-7.728483	6.147113
1523	2679635230537000	1594026698852	8.567651	-7.5692687	6.005855
1524	2679635240457000	1594026698861	8.418014	-7.1131735	5.7903767
1525	2679635250825000	1594026698874	9.387665	-6.137536	6.0357823
1526	2679635260995000	1594026698881	11.121067	-5.2564697	6.633136
1527	2679635270768000	1594026698890	12.137405	-4.4520183	7.8829093
1528	2679635280447000	1594026698900	12.075156	-3.027468	8.833407
1529	2679635290782000	1594026698911	12.253524	-1.1085154	8.64666
1530	2679635301319000	1594026698921	12.600683	0.16639702	8.222886
1531	2679635310672000	1594026698930	12.538434	0.5722142	7.8853035
1532	2679635321978000	1594026698943	11.874043	0.30885202	7.9595237
1533	2679635330522000	1594026698950	11.038467	-0.2633622	8.268375
1534	2679635340423000	1594026698960	10.480618	-0.78649527	8.692149
1535	2679635350486000	1594026698970	10.17416	-1.2761095	9.40203
1536	2679635360369000	1594026698980	10.469844	-1.721431	10.128671
1537	2679635373067000	1594026698993	11.978191	-2.0817583	10.380061
1538	2679635382910000	1594026699004	16.247053	-2.4504654	9.813833
1539	2679635400891000	1594026699020	17.736246	-4.132392	8.813056
1540	2679635410525000	1594026699030	18.684351	-5.925649	7.067683
1541	2679635423669000	1594026699045	18.97285	-10.150218	3.2465374
1542	2679635433395000	1594026699053	18.486828	-12.479776	2.1655555
1543	2679635446439500	1594026699072	19.214666	-15.938201	1.5801731
1544	2679635463340000	1594026699083	20.6452	-17.44535	1.3383588
1545	2679635473345000	1594026699093	22.407333	-19.02313	0.7589619
1546	2679635486466500	1594026699112	25.396494	-21.796812	-1.6196774
1547	2679635500593000	1594026699120	26.212917	-22.564154	-2.8682537
1548	2679635512348000	1594026699132	26.13391	-23.054966	-3.9468415
1549	2679635522284000	1594026699143	25.210943	-23.41649	-4.3538556
1550	2679635530593000	1594026699150	24.010252	-23.82111	-4.1659107
1551	2679635542250000	1594026699162	22.928072	-23.938425	-3.7684734
1552	2679635551653000	1594026699172	22.196644	-23.4536	-3.347094
1553	2679635564163000	1594026699185	21.267694	-22.488737	-3.1543608
1554	2679635577648500	1594026699205	18.902222	-20.16277	-2.3343468
1555	2679635590791000	1594026699211	17.824831	-18.896236	-2.2457612
1556	2679635600781000	1594026699222	17.123331	-17.885883	-2.055422
1557	2679635610697000	1594026699232	16.903065	-16.8875	-1.8351556
1558	2679635620839000	1594026699243	16.656462	-15.850812	-2.0003555
1559	2679635630546000	1594026699252	16.345215	-15.006856	-2.27928
1560	2679635640687000	1594026699262	16.440983	-13.892355	-2.3020248
1561	2679635650542000	1594026699272	16.255432	-12.674904	-2.1990743
1562	2679635660681000	1594026699282	15.684415	-11.841722	-2.171541
1563	2679635670553000	1594026699292	15.008054	-11.439496	-1.7082629
1564	2679635680695000	1594026699302	14.209587	-11.08276	-1.1504139
1565	2679635690561000	1594026699313	13.260286	-10.546458	-0.6619968
1566	2679635700600000	1594026699322	12.193669	-9.982624	-0.32202014
1567	2679635710811000	1594026699332	11.139024	-9.564836	0.033518825
1568	2679635720514000	1594026699341	10.110714	-9.215282	0.32800564
1569	2679635730868000	1594026699352	9.387665	-8.698134	0.80684596
1570	2679635740802000	1594026699362	8.759187	-8.35337	1.258153
1571	2679635750538000	1594026699372	8.2169	-8.243237	1.6436194
1572	2679635760713000	1594026699382	7.97748	-8.002619	1.9572599
1573	2679635770542000	1594026699392	7.7332716	-7.6506715	2.0817583
1574	2679635781045000	1594026699402	7.2568254	-7.392098	1.9093759
1575	2679635790556000	1594026699412	6.634333	-7.1191587	1.7034745
1576	2679635800874000	1594026699421	6.053739	-6.7109475	1.3275849
1577	2679635810829000	1594026699432	5.613206	-6.194997	0.7433996
1578	2679635820518000	1594026699441	4.9069166	-6.06571	-0.16160862
1579	2679635830547000	1594026699452	4.2820296	-5.9483943	-1.0019734
1580	2679635840702000	1594026699462	3.8055837	-5.637148	-1.6101006
1581	2679635850683000	1594026699472	3.6260185	-5.130774	-2.2409728
1582	2679635860703000	1594026699482	3.4081461	-4.5418005	-2.56419
1583	2679635870548000	1594026699492	2.871845	-4.096479	-2.9113493
1584	2679635880692000	1594026699502	2.2182279	-3.9588125	-3.321955
1585	2679635890559000	1594026699512	1.3623008	-3.7708676	-3.6391866
1586	2679635900832000	1594026699522	0.22744916	-3.6607344	-4.0904937
1587	2679635910600000	1594026699531	-1.1204864	-3.8486793	-4.5645456
1588	2679635920993000	1594026699542	-2.5222914	-4.128801	-4.2796354
1589	2679635931227000	1594026699552	-1.8543092	-4.685453	-3.8522706
1590	2679635941420000	1594026699562	-1.0773908	-4.8362875	-3.8043866
1591	2679635951132000	1594026699571	-0.10175357	-4.620809	-4.631583
1592	2679635960842000	1594026699581	1.7561469	-4.0701427	-5.753267
1593	2679635970661000	1594026699590	4.2197804	-3.229778	-7.0593038
1594	2679635982970000	1594026699603	6.3350577	-2.2517467	-8.762778
1595	2679635996763000	1594026699623	8.175002	-2.134431	-11.650186
1596	2679636010625000	1594026699631	9.030929	-3.6643257	-11.220427
1597	2679636021304000	1594026699642	10.772711	-5.734113	-9.718064
1598	2679636030737000	1594026699651	12.847286	-8.171411	-7.4603324
1599	2679636040783000	1594026699661	14.689625	-10.648212	-4.9069166
1600	2679636054162000	1594026699679	16.480488	-13.213599	-2.493561
1601	2679636070780000	1594026699691	19.460072	-17.695545	2.6515784
1602	2679636080736000	1594026699701	20.518309	-19.12608	5.08289
1603	2679636090753000	1594026699711	21.93328	-19.220652	7.0784574
1604	2679636104489000	1594026699726	23.679852	-17.770962	8.532935
1605	2679636120476000	1594026699741	24.244883	-14.8237	9.572019
1606	2679636130532000	1594026699752	22.716187	-14.720749	8.724471
1607	2679636141070000	1594026699762	21.109676	-14.939818	7.639898
1608	2679636150686000	1594026699772	19.709068	-15.332468	6.6750345
1609	2679636160699000	1594026699782	18.497602	-16.168043	5.907693
1610	2679636170534000	1594026699792	17.525557	-17.06587	5.1930237
1611	2679636180680000	1594026699802	16.968904	-17.699137	4.6818614
1612	2679636190546000	1594026699812	16.798916	-18.34198	4.337096
1613	2679636200733000	1594026699822	17.069462	-19.065027	3.8522706
1614	2679636210666000	1594026699833	17.419014	-19.5726	3.441665
1615	2679636220779000	1594026699842	17.787722	-19.721039	3.1423898
1616	2679636230707000	1594026699852	17.930176	-19.895817	3.0322564
1617	2679636240631000	1594026699861	17.559074	-20.008343	3.3806129
1618	2679636250771000	1594026699872	16.6816	-19.99757	4.286818
1619	2679636264270000	1594026699885	16.236279	-19.705477	5.3606176
1620	2679636277597000	1594026699906	15.525201	-18.416199	6.728904
1621	2679636290858000	1594026699911	13.988124	-18.019958	7.2723875
1622	2679636304299000	1594026699926	12.000936	-17.489643	9.783905
1623	2679636317088000	1594026699947	7.892486	-13.79539	13.154942
1624	2679636332605000	1594026699953	7.892486	-13.79539	13.154942
1625	2679636341297000	1594026699962	8.554482	-12.258312	14.032416
1626	2679636350719000	1594026699971	9.391256	-10.949882	14.0803
1627	2679636360574000	1594026699981	9.637859	-10.078392	13.624205
1628	2679636370936000	1594026699991	9.360131	-9.569624	12.774263
1629	2679636380808000	1594026700001	9.096769	-9.391256	11.722012
1630	2679636391726000	1594026700013	9.235633	-8.930372	9.495404
1631	2679636401617000	1594026700021	9.425972	-8.801085	8.508993
1632	2679636412341000	1594026700032	9.582792	-8.7951	7.565677
1633	2679636420593000	1594026700040	9.442732	-8.944737	6.715736
1634	2679636430943000	1594026700051	8.983045	-9.099164	6.066907
1635	2679636444159000	1594026700067	8.282741	-9.176975	5.5748987
1636	2679636460786000	1594026700081	6.51582	-9.36492	5.366603
1637	2679636470735000	1594026700091	5.521029	-9.23683	5.507861
1638	2679636484481000	1594026700105	4.629189	-8.856153	5.717354
1639	2679636501096000	1594026700122	3.7098155	-8.491036	6.716933
1640	2679636510827000	1594026700132	4.131195	-9.173384	7.21373
1641	2679636520704000	1594026700142	4.973954	-10.231621	7.85777
1642	2679636530499000	1594026700152	5.8238955	-11.184513	8.571242
1643	2679636540681000	1594026700162	6.527791	-11.88362	9.258378
1644	2679636550560000	1594026700172	6.980295	-12.032061	9.88925
1645	2679636561819000	1594026700183	6.918046	-11.3640785	10.43872
1646	2679636570682000	1594026700192	6.5146227	-10.213664	10.8229885
1647	2679636580682000	1594026700202	6.2368956	-9.235633	11.235989
1648	2679636590558000	1594026700212	6.5696893	-8.676587	11.611878
1649	2679636601829000	1594026700223	7.7344685	-8.192958	11.852495
1650	2679636610869000	1594026700232	9.504981	-7.8158712	11.903971
1651	2679636620828000	1594026700241	11.235989	-7.94037	11.61547
1652	2679636630967000	1594026700252	12.658144	-8.529344	10.977415
1653	2679636640551000	1594026700262	13.584701	-9.305065	9.991004
1654	2679636650699000	1594026700272	13.958196	-10.572795	8.59279
1655	2679636660822000	1594026700282	14.225149	-12.253524	7.023391
1656	2679636670726000	1594026700295	14.579492	-14.178462	5.5389857
1657	2679636680859000	1594026700302	15.132552	-16.00883	4.283227
1658	2679636690529000	1594026700311	15.600618	-17.890673	3.1280246
1659	2679636703951000	1594026700325	15.795746	-19.264944	2.457648
1660	2679636713288000	1594026700336	15.868769	-19.949686	2.4768016
1661	2679636721746000	1594026700342	16.209942	-20.262129	2.7521348
1662	2679636730505000	1594026700351	16.85159	-20.37705	3.0238767
1663	2679636740615000	1594026700361	17.464504	-20.442892	3.4620156
1664	2679636750769000	1594026700372	17.946936	-20.436905	3.964798
1665	2679636763935000	1594026700385	18.352753	-20.484789	4.4304705
1666	2679636773335000	1594026700396	18.565838	-20.711042	4.4017396
1667	2679636787538000	1594026700418	17.793707	-20.845118	2.2744915
1668	2679636801079000	1594026700422	16.354792	-20.594923	2.2744915
1669	2679636810703000	1594026700432	14.905103	-20.456059	1.6196774
1670	2679636820686000	1594026700442	13.623008	-20.22023	0.90500826
1671	2679636830565000	1594026700452	12.346898	-19.534292	0.108936176
1672	2679636840704000	1594026700462	11.11149	-18.401834	-0.46926352
1673	2679636850702000	1594026700472	10.158598	-16.96651	-0.9504981
1674	2679636860667000	1594026700482	9.367314	-15.369577	-1.1911154
1675	2679636870554000	1594026700492	8.722076	-13.761871	-1.3682863
1676	2679636880711000	1594026700502	7.949947	-11.071986	-1.7525556
1677	2679636890559000	1594026700512	7.7679873	-10.047267	-1.7166426
1678	2679636900688000	1594026700522	7.469909	-9.25359	-1.5897499
1679	2679636910573000	1594026700532	7.265205	-8.554482	-1.4496891
1680	2679636920711000	1594026700542	7.0006456	-7.9667063	-1.3347675
1681	2679636930582000	1594026700551	6.6187706	-7.463924	-1.2449849
1682	2679636940697000	1594026700562	6.1770406	-7.029376	-1.1492168
1683	2679636950539000	1594026700572	5.7508726	-6.7923503	-1.0654198
1684	2679636960689000	1594026700582	5.2528787	-6.7767878	-0.91458505
1685	2679636970558000	1594026700592	4.583699	-6.815095	-0.79966336
1686	2679636980674000	1594026700602	3.8522706	-6.8162923	-0.79008657
1687	2679636990549000	1594026700612	3.2632968	-6.787562	-0.89064306
1688	2679637000692000	1594026700622	2.7964275	-6.7624226	-0.9900024
1689	2679637010552000	1594026700632	2.432509	-6.745663	-1.0726024
1690	2679637020678000	1594026700642	2.1918917	-6.6247563	-1.3455414
1691	2679637030549000	1594026700652	2.019509	-6.531382	-1.6699557
1692	2679637041832000	1594026700663	1.7681179	-6.4140663	-1.970428
1693	2679637050706000	1594026700672	1.3084313	-6.341043	-2.3199813
1694	2679637064209000	1594026700686	0.7326257	-6.362591	-2.7246015
1695	2679637080829000	1594026700702	0.06703765	-6.343437	-3.2022448
1696	2679637090704000	1594026700712	-0.035913024	-6.3601966	-3.2249897
1697	2679637100539000	1594026700721	0.23702596	-6.420052	-3.169923
1698	2679637110697000	1594026700732	0.8607155	-6.740875	-3.1866825
1699	2679637120830000	1594026700741	1.6831238	-7.3657618	-3.300407
1700	2679637130784000	1594026700752	2.2505496	-8.06008	-3.4476504
1701	2679637141425000	1594026700762	2.5330653	-8.799889	-3.7565024
1702	2679637150670000	1594026700771	2.9759927	-9.451111	-3.9971197
1703	2679637161480000	1594026700782	3.6954503	-10.175357	-4.0653543
1704	2679637170676000	1594026700791	4.5896845	-11.009736	-3.6176388
1705	2679637181622000	1594026700803	5.7544637	-11.60709	-2.8048072
1706	2679637190654000	1594026700812	6.9491706	-12.229582	-1.8854338
1707	2679637200839000	1594026700822	8.2169	-12.966996	-0.7433996
1708	2679637210702000	1594026700832	9.817424	-13.765463	0.6440403
1709	2679637220708000	1594026700842	11.663354	-14.511256	2.2589293
1710	2679637230554000	1594026700852	13.660118	-15.0583315	3.858256
1711	2679637240837000	1594026700862	15.342045	-15.377957	4.923676
1712	2679637250698000	1594026700872	16.403873	-15.543158	5.5006785
1713	2679637260713000	1594026700882	17.01559	-15.750256	5.637148
1714	2679637270563000	1594026700892	17.435774	-15.950171	5.841852
1715	2679637280589000	1594026700901	17.909826	-16.050728	6.196194
1716	2679637290822000	1594026700912	18.1684	-15.999253	6.3925185
1717	2679637300705000	1594026700922	17.94933	-15.6233635	6.505046
1718	2679637310562000	1594026700932	17.512388	-15.06312	6.6726403
1719	2679637320558000	1594026700941	17.101782	-14.591462	6.5840545
1720	2679637330690000	1594026700952	16.777369	-14.184448	6.2524576
1721	2679637342131000	1594026700965	16.11657	-13.117831	5.5701103
1722	2679637350597000	1594026700973	16.11657	-13.117831	5.4204726
1723	2679637360683000	1594026700982	15.306131	-12.203246	5.4623713
1724	2679637370767000	1594026700992	14.869189	-11.991359	5.7185507
1725	2679637380474000	1594026701000	14.610616	-11.81778	6.295553
1726	2679637390423000	1594026701010	14.4370365	-11.573571	7.0006456
1727	2679637400475000	1594026701020	14.384364	-11.122264	7.2951326
1728	2679637410343000	1594026701030	14.457387	-10.425551	7.1550717
1729	2679637420542000	1594026701040	14.443022	-9.503783	6.787562
1730	2679637430468000	1594026701050	14.28261	-8.528147	6.223727
1731	2679637440515000	1594026701060	13.959393	-7.6829934	5.8023477
1732	2679637450547000	1594026701070	13.385982	-7.103596	5.731719
1733	2679637460613000	1594026701080	12.671312	-6.669049	5.9124813
1734	2679637472287000	1594026701092	12.028469	-6.411672	6.045359
1735	2679637480457000	1594026701100	11.546038	-6.0764837	6.1782374
1736	2679637490467000	1594026701110	11.026496	-5.6323595	6.169858
1737	2679637500359000	1594026701120	10.481815	-5.1259856	5.910087
1738	2679637510400000	1594026701130	9.9550905	-4.643554	5.5868697
1739	2679637520399000	1594026701140	9.617508	-4.238934	5.2804117
1740	2679637530538000	1594026701150	9.54209	-3.8355112	4.8123455
1741	2679637540515000	1594026701160	9.660604	-3.5901055	4.261679
1742	2679637550588000	1594026701170	9.890448	-3.8163576	3.764882
1743	2679637560494000	1594026701180	10.048465	-4.307169	3.3051953
1744	2679637570469000	1594026701190	10.119094	-4.748899	2.9580362
1745	2679637580348000	1594026701200	10.374076	-4.945224	2.7377696
1746	2679637590535000	1594026701210	10.907983	-4.973954	2.3594859
1747	2679637600635000	1594026701220	11.422736	-4.9164934	1.7980455
1748	2679637610478000	1594026701230	11.700463	-4.758476	1.4041992
1749	2679637620875000	1594026701241	11.774684	-4.614824	1.2030864
1750	2679637630543000	1594026701250	11.611878	-4.6519337	1.4209588
1751	2679637640857000	1594026701261	11.428721	-4.84347	2.0231004
1752	2679637650822000	1594026701270	11.426328	-5.121197	2.8275523
1753	2679637660833000	1594026701280	11.632229	-5.3845596	3.8474822
1754	2679637670846000	1594026701291	11.829751	-5.521029	4.8386817
1755	2679637680839000	1594026701300	11.832145	-5.392939	5.6898203
1756	2679637690845000	1594026701310	11.43351	-5.141548	6.302736
1757	2679637700538000	1594026701320	10.724827	-5.0517654	6.83784
1758	2679637710908000	1594026701331	10.016143	-5.0637364	7.5572977
1759	2679637720555000	1594026701340	9.442732	-4.924873	8.340201
1760	2679637731331000	1594026701352	8.99741	-4.71538	8.973468
1761	2679637741335000	1594026701362	8.9363575	-4.4568067	9.368511
1762	2679637751337000	1594026701372	9.700109	-4.820725	9.370906
1763	2679637761464000	1594026701382	11.004948	-6.051345	8.755595
1764	2679637771206000	1594026701393	11.664551	-7.3753386	7.9236107
1765	2679637781463000	1594026701402	11.529279	-8.622718	7.0209966
1766	2679637790818000	1594026701412	11.326968	-9.229648	6.1770406
1767	2679637800793000	1594026701422	11.297041	-9.1590185	5.4168816
1768	2679637811064000	1594026701431	11.784261	-8.787917	5.5222263
1769	2679637820593000	1594026701440	11.784261	-8.64666	6.3769565
1770	2679637830949000	1594026701450	13.470976	-9.224859	7.01142
1771	2679637840818000	1594026701460	13.918692	-9.4774475	7.2939353
1772	2679637850540000	1594026701470	14.079103	-9.801862	7.3442135
1773	2679637860859000	1594026701481	14.2383175	-10.448297	7.0449386
1774	2679637870856000	1594026701490	14.420277	-11.33056	6.6762314
1775	2679637880750000	1594026701500	14.495694	-12.340913	6.531382
1776	2679637890494000	1594026701510	14.682442	-13.541605	6.181829
1777	2679637900498000	1594026701520	15.033193	-14.879964	5.7664347
1778	2679637910456000	1594026701530	15.454572	-16.221914	5.3354783
1779	2679637920448000	1594026701540	15.743073	-17.398664	5.011064
1780	2679637930567000	1594026701550	15.763424	-18.098969	4.80636
1781	2679637941274000	1594026701562	15.692795	-18.245014	4.7429137
1782	2679637951192000	1594026701571	15.546749	-18.0858	4.59567
1783	2679637961318000	1594026701581	15.253459	-17.696741	4.5884876
1784	2679637971261000	1594026701591	14.994885	-17.457321	4.6806645
1785	2679637981457000	1594026701602	14.824897	-17.477673	4.655525
1786	2679637990614000	1594026701611	14.581885	-17.61055	4.630386
1787	2679638001453000	1594026701622	14.186842	-17.84638	4.3382936
1788	2679638010680000	1594026701632	13.67568	-18.133684	3.9863458
1789	2679638020704000	1594026701641	13.3225355	-18.371906	3.70383
1790	2679638031004000	1594026701652	12.963405	-18.404228	3.3387144
1791	2679638040453000	1594026701661	12.641385	-17.922995	2.8670566
1792	2679638050425000	1594026701671	12.324153	-17.117346	2.3989902
1793	2679638061009000	1594026701681	11.850101	-16.15727	1.8662802
1794	2679638070708000	1594026701692	11.298238	-15.276204	1.4532804
1795	2679638080470000	1594026701701	10.875661	-14.464569	1.079785
1796	2679638090702000	1594026701711	10.617087	-13.579912	0.7757214
1797	2679638100537000	1594026701721	10.358514	-12.697649	0.61052144
1798	2679638110670000	1594026701731	9.94312	-11.903971	0.4441244
1799	2679638120463000	1594026701741	9.476251	-11.162966	0.29927522
1800	2679638130627000	1594026701751	9.112331	-10.451887	0.17238252
1801	2679638140608000	1594026701761	8.5473	-9.872491	0.12090719
1802	2679638150705000	1594026701771	7.9272017	-9.446322	0.079008654
1803	2679638160465000	1594026701781	7.4447703	-8.941146	-0.037110128
1804	2679638170498000	1594026701791	6.9168487	-8.432379	-0.016759412
1805	2679638180454000	1594026701801	6.2763996	-8.003817	0.09696517
1806	2679638190696000	1594026701811	5.523423	-7.711724	0.17956513
1807	2679638201212000	1594026701821	4.7620673	-7.4351935	0.24181437
1808	2679638211295000	1594026701832	4.119224	-7.0569096	0.2873042
1809	2679638220458000	1594026701841	3.4081461	-6.695385	0.30047232
1810	2679638230620000	1594026701852	2.645593	-6.4583592	0.35434186
1811	2679638240672000	1594026701861	1.8890251	-6.325481	0.4309563
1812	2679638250709000	1594026701871	1.1264719	-6.247669	0.4321534
1813	2679638260453000	1594026701880	0.37469256	-6.0525417	0.34117374
1814	2679638270711000	1594026701891	-0.30047232	-5.7664347	0.33758244
1815	2679638280455000	1594026701901	-0.92057055	-5.463568	0.1604115
1816	2679638290698000	1594026701911	-1.4628572	-5.151125	-0.36870706
1817	2679638301310000	1594026701922	-2.5605986	-4.8362875	-0.6500258
1818	2679638310609000	1594026701931	-2.9532478	-4.6902413	-0.8643068
1819	2679638321585000	1594026701944	-2.8802247	-4.4723687	-0.8882488
1820	2679638330431000	1594026701951	-2.043451	-4.5238442	-0.94092125
