# OpenSignals Text File Format
# {"internal sensors":{"sensor":["xAcc","yAcc","zAcc"],"device name":"internal sensors","column":["nSeq","xAcc","yAcc","zAcc"],"sync interval":2,"time":"11:33:21","comments":"","keywords":"","device connection":"UNKNOWNinternal sensors","channels":[0,1,2],"date":"2020-07-15","mode":0,"digital IO":[],"firmware version":0,"device":"android","position":0,"sampling rate":1000,"label":["xAcc","yAcc","zAcc"],"resolution":[1,1,1],"special":[{},{},{}],"sleeve color":["UNKNOWN","UNKNOWN","UNKNOWN"]}}
# EndOfHeader
3531786419500	-0.047884032	6.5218053	7.20535	
3531815217625	0.021547815	6.506243	7.3992805	
3531826745812	0.031124622	6.481104	7.4256167	
3531826745812	0.031124622	6.481104	7.4256167	
3531826745812	0.031124622	6.481104	7.4256167	
3531837454906	0.053869538	6.4511766	7.466318	
3531847964953	0.12569559	6.4392056	7.48188	
3531858813976	0.23463176	6.4404025	7.48188	
3531868463488	0.24660277	6.408081	7.4854717	
3531878293744	0.30166942	6.3589997	7.515399	
3531888190372	0.3196259	6.3182983	7.4711065	
3531898154186	0.25737667	6.303933	7.5165963	
3531908111593	0.21068975	6.3087215	7.523779	
3531918102796	0.20111294	6.317101	7.466318	
3531928538898	0.19393034	6.326678	7.4471645	
3531938650949	0.17717093	6.3326635	7.429208	
3531948394974	0.1604115	6.3446345	7.454347	
3531958265987	0.12210429	6.338649	7.48188	
3531968386493	0.12928689	6.362591	7.4327993	
3531988210373	0.08738836	6.420052	7.398083	
3531998151186	0.05267244	6.455965	7.381324	
3532018078546	0.08379706	6.477513	7.2831616	
3532028101773	0.04189853	6.457162	7.2819643	
3532048088443	0.06943185	6.4619503	7.1431007	
3532068086860	0.142455	6.4487824	7.098808	
3532088080215	0.05626374	6.399701	7.0808516	
3532108065553	0.22266077	6.339846	7.253234	
3532118073776	0.16639702	6.319495	7.327454	
3532138087194	0.12210429	6.3206925	7.487866	
3532148075097	0.21428105	6.339846	7.4735007	
3532168084774	0.23942018	6.3601966	7.4603324	
3532178479887	0.19153613	6.3589997	7.4351935	
3532198195221	0.10414778	6.3781533	7.4866686	
3532208136610	0.11851298	6.3913217	7.469909	
3532228075652	0.1592144	6.4272346	7.417237	
3532238069826	0.18315643	6.423643	7.405266	
3532248044413	0.15801731	6.4260373	7.3765354	
3532268034603	0.04070143	6.423643	7.3298483	
3532278048801	0.047884032	6.4224463	7.27957	
3532288059400	0.05865794	6.4164605	7.2245035	
3532288059400	0.05865794	6.4164605	7.2245035	
3532288059400	0.05865794	6.4164605	7.2245035	
3532288059400	0.05865794	6.4164605	7.2245035	
3532288059400	0.05865794	6.4164605	7.2245035	
3532288059400	0.05865794	6.4164605	7.2245035	
3532288059400	0.05865794	6.4164605	7.2245035	
3532288059400	0.05865794	6.4164605	7.2245035	
3532288059400	0.05865794	6.4164605	7.2245035	
3532288059400	0.05865794	6.4164605	7.2245035	
3532288059400	0.05865794	6.4164605	7.2245035	
3532288059400	0.05865794	6.4164605	7.2245035	
3532298064700	0.08499416	6.399701	7.1945763	
3532358092510	0.044292733	6.4188547	7.3178773	
3532358092510	0.044292733	6.4188547	7.3178773	
3532358092510	0.044292733	6.4188547	7.3178773	
3532358092510	0.044292733	6.4188547	7.3178773	
3532358092510	0.044292733	6.4188547	7.3178773	
3532358092510	0.044292733	6.4188547	7.3178773	
3532368062755	0.02633622	6.4858923	7.410054	
3532378102377	0.03232172	6.537368	7.4854717	
3532388111688	0.04189853	6.531382	7.553706	
3532398097344	0.05267244	6.50744	7.5704656	
3532408092172	0.094570965	6.455965	7.5333557	
3532418310586	0.19033903	6.381745	7.406463	
3532428207793	0.24899697	6.3601966	7.3418193	
3532438325396	0.20709845	6.361394	7.2723875	
3532448187198	0.15682021	6.35062	7.2089415	
3532458139099	0.11971009	6.317101	7.1431007	
3532468133049	0.15801731	6.3302693	7.052121	
3532478361524	0.19273324	6.326678	6.989872	
3532488398262	0.21547815	6.325481	6.9647326	
3532508424315	0.21188685	6.2859764	7.1131735	
3532508424315	0.21188685	6.2859764	7.1131735	
3532518528157	0.19033903	6.2740054	7.2448545	
3532528923078	0.16160862	6.329072	7.345411	
3532578703783	0.1592144	6.4284315	7.5525093	
3532608256972	0.038307227	6.455965	7.538144	
3532608256972	0.038307227	6.455965	7.538144	
3532608256972	0.038307227	6.455965	7.538144	
3532608256972	0.038307227	6.455965	7.538144	
3532608256972	0.038307227	6.455965	7.538144	
3532608256972	0.038307227	6.455965	7.538144	
3532608256972	0.038307227	6.455965	7.538144	
3532618458486	0.0035913025	6.4380083	7.517793	
3532628635243	-0.01436521	6.4368114	7.5225816	
3532638661121	-0.02633622	6.4152637	7.4244194	
3532648913560	0.074220255	6.3745623	7.3202715	
3532658538280	0.16160862	6.341043	7.3059063	
3532669236640	0.21428105	6.3242836	7.240066	
3532688420660	0.25498247	6.2524576	7.2029557	
3532688420660	0.25498247	6.2524576	7.2029557	
3532698345330	0.22026655	6.2464724	7.219715	
3532708221665	0.16160862	6.2392898	7.193379	
3532718205832	0.1352724	6.253655	7.2113357	
3532728169916	0.15203181	6.265626	7.2592196	
3532738137458	0.22385786	6.2943563	7.313089	
3532748126229	0.2885013	6.2991447	7.37055	
3532758102614	0.2693477	6.3003416	7.359776	
3532768108807	0.23223756	6.2752028	7.383718	
3532778279403	0.22505496	6.293159	7.49026	
3532788144701	0.25139117	6.2943563	7.4711065	
3532808436425	0.18195933	6.326678	7.5908165	
3532808436425	0.18195933	6.326678	7.5908165	
3532818324712	0.11133038	6.339846	7.630321	
3532828225856	0.076614454	6.363788	7.6626425	
3532838172928	0.04070143	6.3745623	7.645883	
3532848102464	0.044292733	6.3913217	7.575254	
3532858080732	0.095768064	6.3913217	7.5070195	
3532868085366	0.1448492	6.3925185	7.4256167	
3532878080683	0.14844051	6.3661823	7.3466077	
3532888073841	0.1316811	6.355408	7.327454	
3532898067420	0.1364695	6.337452	7.303512	
3532908044710	0.14844051	6.314707	7.2592196	
3532918060855	0.18794483	6.3063273	7.1993647	
3532928061427	0.21068975	6.301539	7.1730285	
3532938080213	0.21787235	6.303933	7.180211	
3532948055106	0.20949265	6.2871737	7.183802	
3532958066553	0.19033903	6.2871737	7.2005615	
3532968042776	0.19632454	6.290765	7.2963295	
3532978072388	0.20231004	6.2991447	7.309498	
3532988043694	0.21068975	6.307524	7.359776	
3532998058347	0.20949265	6.3350577	7.441179	
3533008037173	0.19871874	6.3470287	7.4687123	
3533018061086	0.17956513	6.3542113	7.4746976	
3533028064043	0.17238252	6.3601966	7.4603324	
3533038072521	0.14963761	6.353014	7.419631	
3533048059760	0.12808979	6.3470287	7.380127	
3533058075880	0.11851298	6.349423	7.393295	
3533068055440	0.12689269	6.339846	7.335834	
3533078083720	0.12449849	6.331466	7.299921	
3533088060360	0.10654198	6.3482256	7.3083005	
3533098084180	0.11372458	6.361394	7.2628107	
3533108064590	0.12928689	6.3793507	7.2448545	
3533118073795	0.15083471	6.397307	7.249643	
3533128079897	0.12210429	6.4008985	7.265205	
3533138078448	0.037110128	6.4020953	7.315483	
3533148062724	0.019153614	6.4020953	7.311892	
3533158066862	0.05626374	6.38773	7.349002	
3533168059931	0.12330139	6.3865333	7.356185	
3533178071965	0.19512744	6.3685765	7.357382	
3533188049482	0.22984336	6.351817	7.393295	
3533198254241	0.25498247	6.3242836	7.3645644	
3533208143120	0.2657564	6.2979474	7.4627266	
3533218102060	0.24420857	6.283582	7.4591355	
3533228090030	0.18315643	6.256049	7.428011	
3533238072515	0.11133038	6.283582	7.4495587	
3533248053257	0.11492168	6.2967505	7.4208283	
3533258110628	0.15562311	6.317101	7.430405	
3533268078814	0.21308395	6.3470287	7.4387846	
3533278100407	0.25378537	6.351817	7.3909006	
3533288076203	0.23702596	6.3566055	7.302315	
3533298102101	0.21906945	6.341043	7.2580223	
3533308084050	0.16639702	6.3422403	7.261614	
3533318086525	0.12449849	6.3230867	7.2568254	
3533328079762	0.12330139	6.353014	7.2544312	
3533338077381	0.1448492	6.362591	7.302315	
3533348092190	0.18195933	6.375759	7.3346367	
3533358085595	0.12689269	6.3661823	7.371747	
3533368096297	0.142455	6.3721676	7.359776	
3533378096148	0.16280572	6.351817	7.392098	
3533388105074	0.17118542	6.3458314	7.4028716	
3533398102537	0.1352724	6.319495	7.395689	
3533408066268	0.1604115	6.326678	7.4028716	
3533418064134	0.21068975	6.3182983	7.431602	
3533428052067	0.25258827	6.3338604	7.4375877	
3533438063533	0.23702596	6.339846	7.406463	
3533448056266	0.21787235	6.351817	7.3992805	
3533458251633	0.19033903	6.3566055	7.428011	
3533468176816	0.1364695	6.3446345	7.4232225	
3533478460908	0.142455	6.3458314	7.345411	
3533488275954	0.18076223	6.3350577	7.323863	
3533498204977	0.24301147	6.3482256	7.3310456	
3533508162488	0.23702596	6.349423	7.273585	
3533518445744	0.10654198	6.3338604	7.1885905	
3533528266372	0.1412579	6.343437	7.2089415	
3533538181186	0.1340753	6.355408	7.2268977	
3533548109593	0.11372458	6.3661823	7.2711906	
3533558108296	0.1340753	6.3793507	7.3047094	
3533568099648	0.1352724	6.3578024	7.321469	
3533578095324	0.15682021	6.337452	7.3968863	
3533588072662	0.17357962	6.3350577	7.41604	
3533598081831	0.18794483	6.314707	7.422025	
3533608116415	0.22026655	6.302736	7.514202	
3533619574207	0.22026655	6.2943563	7.5321584	
3533628902103	0.20829555	6.290765	7.551312	
3533638543051	0.21667525	6.3123126	7.5405383	
3533648325525	0.21068975	6.3182983	7.5309615	
3533658201262	0.20949265	6.339846	7.479486	
3533668107631	0.19153613	6.3302693	7.395689	
3533678082315	0.20111294	6.353014	7.418434	
3533688061157	0.20350714	6.3470287	7.4136457	
3533698076578	0.18674773	6.337452	7.398083	
3533708058789	0.16400282	6.3230867	7.358579	
3533718059394	0.17597382	6.3123126	7.303512	
3533728052197	0.19752164	6.301539	7.2508397	
3533738062098	0.20709845	6.3111157	7.2604165	
3533748046549	0.20829555	6.3111157	7.2484455	
3533758070774	0.19153613	6.319495	7.301118	
3533768052387	0.14844051	6.331466	7.3549876	
3533778103193	0.1436521	6.3542113	7.351396	
3533788091096	0.15203181	6.361394	7.315483	
3533798097048	0.16759412	6.3721676	7.321469	
3533808083524	0.17238252	6.3589997	7.368156	
3533818080262	0.17956513	6.341043	7.3849154	
3533828081131	0.16280572	6.3242836	7.380127	
3533838078565	0.16998832	6.319495	7.3729444	
3533848058282	0.18315643	6.3123126	7.404069	
3533858082141	0.25857377	6.317101	7.3442135	
3533868094570	0.29209262	6.2991447	7.3992805	
3533878147785	0.260968	6.295553	7.4088573	
3533888143892	0.22266077	6.291962	7.3633676	
3533898102446	0.23343466	6.3111157	7.314286	
3533908068223	0.20709845	6.2991447	7.32506	
3533918074111	0.19393034	6.3087215	7.393295	
3533928073555	0.20111294	6.301539	7.4016747	
3533938099277	0.21428105	6.3111157	7.374141	
3533948075138	0.22625206	6.31351	7.4208283	
3533958089569	0.22026655	6.3230867	7.4148426	
3533968068284	0.17717093	6.314707	7.433996	
3533978096142	0.12928689	6.339846	7.41604	
3533988065571	0.1352724	6.3338604	7.3226657	
3533998078285	0.1352724	6.35062	7.314286	
3534008070142	0.11971009	6.349423	7.323863	
3534018081571	0.11252748	6.361394	7.3418193	
3534028067285	0.15801731	6.3709707	7.321469	
3534038075142	0.22266077	6.3805475	7.3310456	
3534048058571	0.23104046	6.373365	7.321469	
3534058096785	0.19871874	6.373365	7.339425	
3534068081892	0.1376666	6.3458314	7.3226657	
3534078093946	0.09696517	6.329072	7.347805	
3534088069473	0.1352724	6.3242836	7.358579	
3534098092236	0.18435353	6.3218894	7.382521	
3534108076118	0.23463176	6.301539	7.3849154	
3534118083059	0.23343466	6.2740054	7.345411	
3534128063029	0.20949265	6.271611	7.393295	
3534138084014	0.18794483	6.256049	7.392098	
3534148100507	0.15562311	6.266823	7.4136457	
3534158131253	0.18195933	6.290765	7.4124484	
3534168092126	0.20470424	6.290765	7.4088573	
3534178112063	0.22505496	6.3087215	7.404069	
3534188081531	0.21308395	6.303933	7.394492	
3534198126765	0.20590134	6.2967505	7.395689	
3534208090882	0.20470424	6.3218894	7.406463	
3534218081941	0.20111294	6.3123126	7.418434	
3534228084970	0.17118542	6.3350577	7.4112515	
3534238075485	0.15442601	6.3470287	7.4507556	
3534248142242	0.15203181	6.3542113	7.4256167	
3534258131121	0.12330139	6.3482256	7.4842744	
3534268085560	0.12330139	6.355408	7.4735007	
3534278083780	0.1448492	6.349423	7.4327993	
3534288086890	0.14604631	6.3470287	7.395689	
3534298089945	0.15682021	6.326678	7.3777328	
3534308074972	0.16998832	6.3111157	7.339425	
3534318079486	0.17357962	6.31351	7.2987237	
3534328069243	0.17836803	6.315904	7.291541	
3534338081121	0.16519992	6.319495	7.302315	
3534348067560	0.1436521	6.329072	7.3466077	
3534358080780	0.1352724	6.329072	7.369353	
3534368070890	0.1604115	6.314707	7.359776	
3534378116445	0.19153613	6.3087215	7.358579	
3534388104722	0.20231004	6.302736	7.3418193	
3534398097361	0.21667525	6.2943563	7.36217	
3534408081180	0.21547815	6.2859764	7.442376	
3534418079590	0.19273324	6.2871737	7.465121	
3534428069295	0.17836803	6.291962	7.4351935	
3534438076147	0.18195933	6.314707	7.433996	
3534448063573	0.21188685	6.325481	7.380127	
3534458073286	0.20231004	6.326678	7.3525934	
3534468068143	0.17238252	6.31351	7.2939353	
3534478107571	0.1592144	6.3230867	7.3166804	
3534488091285	0.19153613	6.3230867	7.2149267	
3534498086642	0.19991584	6.3099184	7.289147	
3534508106321	0.19153613	6.3242836	7.3083005	
3534518086160	0.15801731	6.289568	7.314286	
3534528087580	0.110133275	6.302736	7.3190746	
3534538086290	0.1436521	6.2859764	7.303512	
3534548059645	0.19153613	6.2763996	7.327454	
3534558070822	0.23822308	6.3099184	7.371747	
3534568063411	0.24301147	6.30513	7.410054	
3534578103205	0.21068975	6.3063273	7.4004774	
3534588070602	0.17238252	6.314707	7.4327993	
3534598080801	0.19991584	6.3111157	7.406463	
3534608115900	0.23104046	6.3003416	7.445967	
3534618861950	0.24899697	6.3111157	7.398083	
3534628676475	0.21667525	6.2979474	7.383718	
3534638383737	0.19033903	6.2943563	7.4028716	
3534648224368	0.15562311	6.25964	7.4028716	
3534658155184	0.14724341	6.2584434	7.4124484	
3534668103592	0.21068975	6.2704144	7.4016747	
3534678093796	0.272939	6.254852	7.3789296	
3534688083898	0.2657564	6.2620344	7.368156	
3534698112449	0.22385786	6.254852	7.3765354	
3534708082224	0.20350714	6.2464724	7.356185	
3534718079112	0.18794483	6.25964	7.419631	
3534728097056	0.20111294	6.2620344	7.4363904	
3534738085528	0.21068975	6.2584434	7.45315	
3534748077264	0.17477672	6.269217	7.4603324	
3534758099132	0.19991584	6.2823853	7.417237	
3534768082566	0.21428105	6.2584434	7.4615297	
3534778067283	0.22026655	6.2632318	7.4950485	
3534788068141	0.20709845	6.2608376	7.477092	
3534798072070	0.19033903	6.266823	7.4723034	
3534808094535	0.1604115	6.266823	7.487866	
3534818075767	0.18315643	6.289568	7.503428	
3534828058383	0.19273324	6.2823853	7.4723034	
3534838078191	0.18674773	6.2823853	7.4124484	
3534848064095	0.17717093	6.2763996	7.398083	
3534858138547	0.19752164	6.25964	7.380127	
3534868105273	0.21188685	6.229713	7.311892	
3534879047636	0.22385786	6.2261214	7.289147	
3534888874318	0.22984336	6.215348	7.289147	
3534898476159	0.21667525	6.211756	7.326257	
3534908509079	0.23942018	6.229713	7.443573	
3534918339039	0.23942018	6.223727	7.443573	
3534928393519	0.24420857	6.245275	7.4866686	
3534938421259	0.20709845	6.23091	7.469909	
3534948251129	0.19033903	6.209362	7.443573	
3534959402064	0.21188685	6.203377	7.410054	
3534968768532	0.22385786	6.2141504	7.4124484	
3534978483766	0.20350714	6.229713	7.4950485	
3534988423383	0.20590134	6.244078	7.491457	
3534998635191	0.23942018	6.2584434	7.5309615	
3535008384095	0.25019407	6.2584434	7.526173	
3535018264547	0.23582886	6.241684	7.45315	
3535028193773	0.22984336	6.232107	7.417237	
3535038163886	0.22026655	6.223727	7.4711065	
3535048131943	0.19752164	6.23091	7.502231	
3535058116971	0.1436521	6.2345014	7.487866	
3535068124485	0.14963761	6.2704144	7.4471645	
3535078137742	0.18435353	6.2740054	7.431602	
3535088109871	0.20111294	6.2608376	7.406463	
3535098390935	0.20829555	6.235698	7.3873096	
3535108259967	0.21068975	6.2045736	7.339425	
3535118205983	0.19871874	6.1926026	7.3406224	
3535128163491	0.23104046	6.18542	7.3609734	
3535138118745	0.272939	6.1938	7.3310456	
3535148098372	0.23942018	6.2045736	7.381324	
3535158102686	0.24181437	6.2404866	7.404069	
3535168072843	0.30765492	6.23091	7.3765354	
3535178082421	0.2896984	6.241684	7.3537903	
3535188072710	0.25378537	6.221333	7.3442135	
3535198080355	0.20231004	6.208165	7.4004774	
3535208072177	0.17477672	6.194997	7.417237	
3535218079088	0.16400282	6.205771	7.469909	
3535228070544	0.19752164	6.2009826	7.5082164	
3535238113772	0.19991584	6.2045736	7.501034	
3535248074386	0.22505496	6.218939	7.4615297	
3535258084693	0.2633622	6.2105594	7.467515	
3535268065346	0.2717419	6.223727	7.4950485	
3535278163173	0.19871874	6.208165	7.442376	
3535288110586	0.1400608	6.206968	7.4256167	
3535298093793	0.1376666	6.196194	7.4016747	
3535308064396	0.18195933	6.205771	7.419631	
3535318081198	0.25498247	6.2021794	7.406463	
3535328061599	0.30526072	6.1926026	7.419631	
3535338061299	0.33997664	6.191406	7.451953	
3535348047649	0.30885202	6.1662664	7.479486	
3535358073824	0.25019407	6.136339	7.4723034	
3535368054412	0.25378537	6.1159883	7.455544	
3535378066706	0.32561144	6.0944405	7.489063	
3535388078353	0.37229836	6.0884547	7.502231	
3535398088176	0.35075054	6.105214	7.5465236	
3535408100588	0.25737667	6.1423244	7.633912	
3535418082294	0.22744916	6.167464	7.675811	
3535428068147	0.25019407	6.187814	7.6291237	
3535438261573	0.21906945	6.206968	7.575254	
3535448148786	0.17836803	6.211756	7.529764	
3535458141893	0.16280572	6.233304	7.538144	
3535468093446	0.16639702	6.2129536	7.4986396	
3535478108223	0.15562311	6.194997	7.4962454	
3535488089111	0.18794483	6.187814	7.445967	
3535498079555	0.23702596	6.179435	7.4723034	
3535508090277	0.22026655	6.1638722	7.457938	
3535518092638	0.21068975	6.149507	7.433996	
3535528061819	0.2669535	6.1530986	7.457938	
3535538120409	0.2753332	6.1542954	7.431602	
3535548105204	0.2765303	6.1447186	7.445967	
3535558126102	0.2633622	6.1387334	7.529764	
3535568078551	0.25857377	6.143522	7.513005	
3535578091775	0.24660277	6.1411276	7.547721	
3535588065387	0.2753332	6.149507	7.5788455	
3535598076193	0.29209262	6.143522	7.583634	
3535608060596	0.29209262	6.149507	7.577648	
3535618094798	0.2657564	6.155493	7.6003933	
3535628636399	0.24420857	6.149507	7.586028	
3535638363199	0.21428105	6.143522	7.523779	
3535648206599	0.23343466	6.1566896	7.4854717	
3535658251299	0.2717419	6.160281	7.4148426	
3535668149649	0.2645593	6.1626754	7.4124484	
3535678104324	0.23223756	6.18542	7.4268136	
3535688084662	0.20350714	6.1746464	7.4567413	
3535698087831	0.20470424	6.1770406	7.422025	
3535708108415	0.23582886	6.181829	7.430405	
3535718098207	0.24540567	6.184223	7.398083	
3535728071603	0.22625206	6.196194	7.4363904	
3535738070801	0.20829555	6.1985884	7.4495587	
3535748051400	0.21068975	6.1770406	7.4986396	
3535758075700	0.24181437	6.183026	7.4746976	
3535768064350	0.2885013	6.1782374	7.4507556	
3535778057175	0.2873042	6.1782374	7.5046253	
3535788073587	0.25977087	6.1746464	7.511808	
3535798076793	0.23104046	6.1566896	7.4866686	
3535808074396	0.17717093	6.169858	7.5189905	
3535818100698	0.17238252	6.167464	7.475895	
3535828073849	0.21308395	6.173449	7.48188	
3535838092424	0.2885013	6.194997	7.469909	
3535848073712	0.29927522	6.1782374	7.4495587	
3535858279856	0.23702596	6.206968	7.4375877	
3535868161928	0.23702596	6.206968	7.4375877	
3535878127964	0.2813187	6.197391	7.441179	
3535888091482	0.2885013	6.1938	7.4351935	
3535898080741	0.2789245	6.2021794	7.4375877	
3535908060370	0.22146365	6.181829	7.442376	
3535918086185	0.17118542	6.1758432	7.441179	
3535928075592	0.19033903	6.1758432	7.467515	
3535938095796	0.25258827	6.1770406	7.441179	
3535948079398	0.2837129	6.1866174	7.465121	
3535958077199	0.30526072	6.181829	7.4615297	
3535968063599	0.2705448	6.173449	7.4507556	
3535978089799	0.30645782	6.1938	7.4746976	
3535988071399	0.2825158	6.1746464	7.4603324	
3535998084699	0.24061728	6.179435	7.469909	
3536008069349	0.20949265	6.1806316	7.418434	
3536018079674	0.23942018	6.1926026	7.419631	
3536028089337	0.24301147	6.2009826	7.395689	
3536038265168	0.2753332	6.215348	7.386112	
3536048147084	0.2741361	6.2261214	7.418434	
3536058295042	0.25378537	6.235698	7.3777328	
3536068159021	0.19632454	6.217742	7.4112515	
3536078119510	0.16998832	6.2261214	7.4842744	
3536088080255	0.18315643	6.206968	7.4854717	
3536098124127	0.21188685	6.206968	7.5321584	
3536108095563	0.22864626	6.191406	7.5094137	
3536118083281	0.24660277	6.187814	7.5082164	
3536128055640	0.23702596	6.173449	7.5094137	
3536138090320	0.21428105	6.18542	7.526173	
3536148061160	0.22146365	6.1985884	7.5094137	
3536158087580	0.22505496	6.220136	7.513005	
3536168066290	0.22266077	6.2488666	7.511808	
3536178082145	0.22385786	6.2392898	7.4974427	
3536188051572	0.21547815	6.2345014	7.4627266	
3536198064786	0.21308395	6.2141504	7.4088573	
3536208038893	0.21787235	6.2105594	7.3609734	
3536218060446	0.25617957	6.187814	7.347805	
3536228038723	0.29568392	6.18542	7.349002	
3536238065361	0.34715924	6.1638722	7.357382	
3536248050180	0.32920274	6.147113	7.3657618	
3536258067090	0.33039984	6.126762	7.4028716	
3536268047545	0.33399114	6.129156	7.4112515	
3536278073772	0.36152446	6.1219735	7.356185	
3536288064886	0.33159694	6.1195793	7.4028716	
3536298085443	0.32800564	6.1399302	7.4723034	
3536308081721	0.31483752	6.1423244	7.455544	
3536318085360	0.2669535	6.160281	7.4603324	
3536328061680	0.25977087	6.1758432	7.4136457	
3536338116840	0.23702596	6.194997	7.454347	
3536348085920	0.20470424	6.2165446	7.478289	
3536358085460	0.19273324	6.229713	7.466318	
3536368071230	0.20590134	6.2021794	7.502231	
3536378077615	0.23942018	6.169858	7.553706	
3536388095807	0.30765492	6.1566896	7.574057	
3536398887403	0.24660277	6.0944405	7.727286	
3536408456701	-0.020350715	5.9483943	8.033744	
3536418272850	0.05746084	6.2859764	7.702147	
3536428148925	-0.1388637	6.26802	7.511808	
3536438126462	-0.075417355	6.3542113	7.3968863	
3536448084731	-0.046686932	6.5206084	7.607576	
3536458094365	0.7266402	7.606379	7.7189064	
3536468069182	-0.17238252	6.326678	7.6590514	
3536478078091	-0.9636662	5.7377043	8.161834	
3536488073045	-0.5793968	6.5864487	7.2472486	
3536498079522	-0.9911995	6.353014	7.1071877	
3536508060761	-1.471237	6.1686606	7.225701	
3536518063880	-1.0067618	6.3566055	7.2747817	
3536528044440	-0.007182605	6.661866	7.429208	
3536538085720	0.21188685	6.555324	7.801506	
3536548053860	-0.439336	5.8502316	8.406042	
3536558078430	-0.008379706	6.645107	8.628703	
3536568055715	-0.2693477	6.129156	8.980651	
3536578080357	-0.8295909	5.327099	8.383297	
3536588054178	-1.34195	4.9176903	7.69257	
3536598079589	-1.2665327	5.257667	6.999449	
3536608052294	-1.7286136	5.66109	7.2448545	
3536618897147	-2.1643584	5.935226	7.2340803	
3536629119573	-2.8874073	5.7867856	6.2464724	
3536638602786	-3.8379054	5.819107	6.269217	
3536648315393	-4.4113164	5.6898203	6.38773	
3536658360696	-4.152743	5.619191	6.745663	
3536668196848	-3.715801	5.647922	6.697779	
3536678145424	-3.4524388	5.8226986	6.932411	
3536688101212	-3.2716765	5.911284	7.393295	
3536698302106	-3.1986535	5.8358665	7.654263	
3536708172053	-3.3842041	5.719748	7.326257	
3536718119526	-3.6164417	5.907693	6.588843	
3536728074263	-3.9875429	6.0609217	5.755661	
3536738100131	-4.021062	5.872977	4.9164934	
3536748078565	-3.728969	5.943606	5.2528787	
3536758095782	-3.4572272	5.959168	6.51582	
3536768139891	-3.083732	6.027403	6.25964	
3536778138445	-2.5558102	6.0716953	5.753267	
3536788375722	-1.9237411	6.2608376	6.3350577	
3536798285361	-1.2629414	6.540959	6.6307416	
3536808376180	-1.7310078	5.628768	8.455123	
3536818295590	-1.4149733	5.6910176	9.174581	
3536828190795	-1.1408371	5.4659624	7.9331875	
3536838210397	-1.3467385	5.145139	7.747637	
3536848146198	-1.8171991	5.189432	8.11395	
3536858140599	-1.8088194	5.005079	7.231686	
3536868182299	-1.6771383	4.8027687	5.511452	
3536878185149	-0.5662287	5.791574	5.7484784	
3536888174074	0.31124622	6.4523735	7.763199	
3536898137037	1.3299791	6.56131	8.819042	
3536908182018	1.5777789	5.923255	8.289924	
3536918154509	1.7525556	5.8382607	8.198944	
3536928188254	1.5693992	5.946	7.9906483	
3536938237127	1.3323733	6.005855	7.3909006	
3536948180063	1.1671734	6.089652	7.27957	
3536958166531	1.0582372	6.0944405	7.156269	
3536968764765	1.1085154	6.0764837	7.475895	
3536978760382	0.9516952	5.9424086	8.01459	
3536988633191	0.4441244	5.801151	8.831013	
3536998538095	-0.03232172	5.744887	9.109938	
3537008452047	0.074220255	5.843049	9.15423	
3537018349023	0.36511576	5.765238	9.1350765	
3537028247011	0.9552865	5.8334723	9.3026705	
3537038363005	1.5095441	5.895722	9.361329	
3537048868502	1.9009962	6.1004257	8.9998045	
3537058574251	2.018312	6.349423	7.621941	
3537088349406	0.019153614	6.1926026	6.375759	
3537088349406	0.019153614	6.1926026	6.375759	
3537088349406	0.019153614	6.1926026	6.375759	
3537098434703	-0.17717093	6.105214	6.339846	
3537108254851	-0.33638534	5.8143187	6.241684	
3537118181925	-0.533907	5.603629	6.2967505	
3537128291962	-0.8834604	5.5605335	6.5481415	
3537138429481	-1.0079589	5.6586957	6.8043213	
3537148251740	-1.0175357	5.6407394	6.980295	
3537158180370	-1.3479356	5.544971	7.3442135	
3537168564685	-1.9009962	5.4384294	7.776367	
3537178418842	-2.4851813	5.353435	7.7344685	
3537188348921	-2.9460652	5.398925	7.3657618	
3537198287960	-3.2740707	5.439626	7.3346367	
3537208530480	-3.1232362	5.7161565	7.9212165	
3537218601240	-2.8682537	5.723339	8.418014	
3537228650620	-2.669535	5.3642087	8.598776	
3537238852310	-2.6551697	5.161899	8.760384	
3537248552155	-2.3942018	5.2636523	8.415619	
3537258444077	-2.0374656	5.380968	7.5944076	
3537268800538	-1.6783354	5.485116	6.459556	
3537278547769	-1.6783354	5.485116	6.459556	
3537288513884	-0.8607155	5.910087	8.346188	
3537298578442	-0.973243	5.4312468	9.012972	
3537308430221	-0.78170687	5.2002063	8.342596	
3537318375110	-0.79726917	5.2516813	8.451532	
3537328366555	-1.1204864	5.270835	9.0716305	
3537339454777	-1.1145009	5.4049106	9.5732155	
3537348822888	-0.7445967	5.565322	9.624691	
3537358510944	-0.2789245	5.6946087	9.228451	
3537368315972	-0.059855044	5.697003	8.698134	
3537378222986	0.04189853	5.722142	7.747637	
3537388268993	0.22864626	5.9723363	6.775591	
3537398399496	0.5518635	6.215348	5.981913	
3537408375248	0.90620536	6.271611	5.6670756	
3537418253624	1.1384429	6.3350577	5.9759274	
3537428354812	1.1540052	6.3829417	6.5565214	
3537438265406	1.0390835	6.3458314	7.177817	
3537448205203	0.89662856	6.2752028	7.599196	
3537458205101	0.7613561	6.2524576	7.908048	
3537478287525	0.60214174	6.233304	8.124723	
3537478287525	0.60214174	6.233304	8.124723	
3537488224262	0.6548142	6.181829	7.7224975	
3537498348631	0.79008657	6.2141504	7.8158712	
3537508416315	1.1384429	6.39611	8.194156	
3537518304657	1.5394717	6.283582	8.0445175	
3537528357828	1.6699557	6.245275	7.1155677	
3537538285914	1.4496891	6.2859764	6.503849	
3537548226957	0.9684546	6.2392898	6.551733	
3537558387478	0.641646	6.233304	6.963536	
3537568281739	0.29807812	6.183026	7.4028716	
3537578530869	0.11492168	6.172252	8.042124	
3537588417934	0.17357962	6.0477533	8.160637	
3537598297467	0.49559975	5.8226986	7.916428	
3537608303233	0.46806642	5.5485625	7.7679873	
3537618245616	0.1364695	5.731719	7.5285673	
3537628189308	-0.58777654	5.731719	7.2568254	
3537638830654	-1.2401965	5.595249	6.9862804	
3537648683327	-1.6089035	5.7281275	7.005434	
3537658540663	-1.7621324	6.1650696	6.775591	
3537668317831	-1.7980455	6.327875	6.730101	
3537678214915	-1.9512744	6.089652	7.0569096	
3537688145457	-2.207454	6.033388	7.5908165	
3537698177728	-2.3810337	6.1123967	8.259995	
3537708154864	-2.1583729	6.1447186	8.791509	
3537718133432	-1.9716251	5.8945246	8.583213	
3537728106216	-1.7657237	5.7628436	7.6865845	
3537738123608	-1.6472107	5.8801594	6.873753	
3537748274304	-1.8662802	6.1890116	6.619968	
3537758235152	-1.8662802	6.1890116	6.408081	
3537768184076	-2.5222914	6.220136	6.384139	
3537778136038	-2.44448	6.4152637	6.5828576	
3537788152019	-2.2122424	6.420052	6.9958572	
3537798115009	-1.9129672	6.4032927	7.240066	
3537808106004	-1.780089	6.3123126	7.0066314	
3537818486502	-1.8004397	6.1890116	6.7480574	
3537828288251	-1.8459295	6.1447186	7.0186024	
3537838481125	-1.8064252	6.1040173	7.1023993	
3537848312562	-1.8986019	5.981913	7.297527	
3537858290281	-1.6639702	6.0166287	6.9623384	
3537868305140	-1.4030021	6.1938	6.777985	
3537878317070	-1.3084313	6.233304	6.89171	
3537888511035	-1.2234371	6.2500634	7.0952168	
3537898298517	-0.7781156	6.3829417	7.404069	
3537908253258	-0.35913026	6.3063273	7.6889787	
3537918205129	-0.4189853	5.9448028	7.8637557	
3537928172564	-0.51355624	5.8837504	7.7069354	
3537938150782	-0.49440265	6.338649	7.667431	
3537948118891	-0.08738836	6.679823	7.405266	
3537958347945	0.110133275	6.6367273	6.870162	
3537968233972	0.21787235	6.542156	6.8785415	
3537978170486	0.59855044	6.575675	7.1263413	
3537988102243	0.8631097	6.6163764	7.1466923	
3537998125621	1.0654198	6.4966664	6.525397	
3538008149810	0.7218518	6.2763996	6.625953	
3538018399405	0.47644615	6.232107	6.4619503	
3538028300202	0.45729253	6.2620344	6.6103907	
3538038457101	0.30166942	6.1806316	6.89171	
3538048311550	0.31124622	6.1758432	7.5465236	
3538058738775	0.41060558	6.066907	8.063671	
3538068533887	0.5626374	5.78918	8.321048	
3538078763943	1.0139444	5.5964465	8.347384	
3538088533471	1.412579	5.533	8.298303	
3538098453735	1.7226281	5.5844755	8.15106	
3538108418367	1.7621324	5.5126495	8.391677	
3538118370183	1.8447324	5.415684	8.789114	
3538128459091	1.9393034	5.3318872	9.174581	
3538138511045	1.5813702	5.1583076	9.491813	
3538148399022	1.0139444	4.973954	9.801862	
3538158668511	0.9528923	4.606444	9.674969	
3538168440255	0.521936	4.594473	8.950723	
3538178416627	0.7098808	5.088876	8.397662	
3538188705813	0.89543146	5.555745	8.220491	
3538198678906	0.9528923	5.507861	7.7464395	
3538208397953	0.6967127	5.189432	7.7081323	
3538218266976	0.6596026	5.104438	7.967903	
3538228154988	0.5363012	5.057751	8.152257	
3538238382994	0.30526072	5.231331	8.1881695	
3538248250497	0.088585466	5.379771	7.836222	
3538258214248	-0.021547815	5.5150437	7.9116397	
3538268395124	0.1340753	5.6658783	7.9451585	
3538278277062	0.22146365	5.6586957	7.855376	
3538288218531	0.1592144	5.57849	7.6961613	
3538298146265	-0.20350714	5.4551888	7.5070195	
3538308117632	-0.08619126	5.5868697	6.977901	
3538318359816	0.12090719	5.887342	6.823475	
3538328223908	0.11971009	5.9603653	7.299921	
3538338524454	0.23223756	5.8921304	7.587225	
3538348307227	0.18674773	5.899313	7.6961613	
3538358466113	-0.090979666	5.8322754	8.224083	
3538368336056	-0.21188685	5.568913	8.2037325	
3538378308028	-0.48243165	5.6203885	8.422802	
3538388215514	-0.4141969	5.753267	7.4495587	
3538398342757	0.0047884034	5.9519854	7.3298483	
3538408348878	0.23104046	5.827487	7.6770077	
3538418755939	0.20709845	5.5581393	7.6889787	
3538428486469	-0.12808979	5.354632	7.654263	
3538438373234	-0.58777654	5.2480903	7.916428	
3538448282117	-0.7505822	5.42167	8.212111	
3538458491058	-0.25498247	5.7664347	8.01459	
3538468523029	0.61411273	6.3721676	5.7999535	
3538478317514	0.04189853	4.927267	8.196549	
3538488370257	0.6799533	5.2385135	7.988254	
3538498243628	0.973243	5.899313	9.7324295	
3538508175314	0.81402856	5.517438	9.138668	
3538518490157	0.6775591	5.270835	8.463503	
3538528286578	0.32321724	5.105635	8.019379	
3538538236789	-0.037110128	4.856638	7.872135	
3538548160894	-0.03232172	4.590882	7.896077	
3538558633447	-0.095768064	4.189853	7.1251445	
3538568395723	-0.5422867	3.8007953	5.932832	
3538578314861	-1.0043676	3.3662477	3.930082	
3538588196930	0.56982	4.1695023	5.209783	
3538598319965	3.6607344	5.589264	6.751649	
3538608216482	3.8893807	5.7365074	5.8933277	
3538618450741	3.8738184	5.6886234	6.030994	
3538628312870	3.714604	5.41329	6.2285156	
3538638772435	3.311181	5.4180784	6.1423244	
3538648491217	3.3207579	5.6084175	5.979519	
3538658523608	3.0190883	5.1702785	7.467515	
3538668305304	-0.7469909	3.0071173	6.0238113	
3538678204652	-1.2593501	1.5191209	2.5019407	
3538688403326	2.2888567	1.1049241	-0.47405192	
3538698379163	2.2888567	1.1049241	-0.47405192	
3538708272581	7.277176	1.4149733	6.123171	
3538718418790	9.167398	3.0095115	14.038402	
3538728297395	20.058622	8.371326	26.53015	
3538738537197	8.431181	2.0853498	8.073248	
3538748761598	8.277952	2.0530279	6.26802	
3538758930799	8.4826565	2.7712884	6.9719152	
3538768821399	9.326612	3.2118216	8.628703	
3538778809699	9.121908	2.9113493	9.680955	
3538788446849	7.5333557	2.658761	9.234436	
3538798443424	5.1247888	2.3918076	7.937976	
3538808499212	3.3494883	2.1523874	6.3985043	
3538818312606	3.2609026	1.7298107	6.0142345	
3538828200803	4.226963	1.2557588	7.019799	
3538838549401	5.6527104	1.2593501	8.341399	
3538848337200	6.3805475	1.0127473	8.418014	
3538858232100	6.7971387	0.18555063	7.8039002	
3538868168550	7.2687964	0.1352724	7.9475527	
3538878234775	7.1790137	0.5410896	7.599196	
3538888285387	6.421249	0.8499416	7.0688806	
3538898401193	5.3845596	0.9528923	6.4906807	
3538908355096	4.286818	0.770933	5.637148	
3538918618048	3.4129345	0.14604631	5.3115363	
3538928412524	3.4715924	-0.1436521	6.3362546	
3538938325262	4.83509	-0.059855044	7.965509	
3538948860131	6.518214	-0.15322891	10.226832	
3538958534565	7.5764513	-0.29568392	10.199299	
3538969587282	8.236053	-0.06464344	8.586804	
3538979067641	8.39886	0.29688102	7.538144	
3538988616320	7.867347	0.45609543	7.3071036	
3538998420160	6.835446	0.39743748	7.5429325	
3539008250080	6.081272	0.40940848	7.428011	
3539018991040	5.8107276	0.6835446	7.0593038	
3539028562020	5.801151	1.0259154	6.682217	
3539038398510	6.0142345	1.1815386	6.4547677	
3539048259255	6.173449	1.2330139	7.171831	
3539058227127	6.171055	1.0295067	8.058883	
3539068370563	6.3745623	0.7541735	8.26239	
3539078277281	6.540959	0.37948096	8.421604	
3539088402140	6.4068837	-0.092176765	8.441956	
3539098307570	6.518214	-0.320823	7.831434	
3539108193785	6.549339	-0.46806642	7.177817	
3539118182892	6.540959	-0.61291564	6.9838862	
3539128178446	6.4499793	-0.712275	7.3645644	
3539138173223	6.384139	-0.641646	7.3885064	
3539148129111	6.3470287	-0.31244332	7.2927384	
3539158333555	6.2225304	-0.076614454	7.395689	
3539168251277	6.169858	-0.25139117	7.645883	
3539178203638	6.283582	-0.5650316	7.7093296	
3539188135819	6.8557963	-1.364695	7.2209125	
3539198542409	6.623559	-1.4209588	7.4208283	
3539208312204	6.76362	-1.1947067	7.4016747	
3539218458102	6.703765	-0.78050977	7.3992805	
3539228436551	6.6786256	-0.51714754	7.6051817	
3539238743275	6.8198833	-0.47764325	7.9726915	
3539248439137	6.7588315	-0.6871359	8.100781	
3539258445068	6.707356	-0.9564836	8.115147	
3539268530034	6.6846113	-1.1324574	7.9667063	
3539278369517	6.578069	-1.1611878	7.338228	
3539288625758	6.161478	-1.1145009	7.538144	
3539298951379	6.0465565	-0.93852705	7.3849154	
3539308544189	6.019023	-0.6835446	7.165846	
3539318535094	5.9843073	-0.61770403	7.2268977	
3539328638047	6.077681	-0.5590461	7.302315	
3539338384523	6.125565	-0.6368576	7.597999	
3539348248261	6.0357823	-0.7422025	8.027759	
3539358342130	5.911284	-0.91937345	8.106767	
3539368443565	5.755661	-1.1935096	7.937976	
3539378288782	5.7065797	-1.4077905	8.112753	
3539388187391	5.731719	-1.5131354	8.356961	
3539398160695	5.8622026	-1.5622166	8.1642275	
3539408134347	6.030994	-1.5239093	7.8745294	
3539418129673	6.0920463	-1.5634137	7.763199	
3539428115336	6.063316	-1.685518	8.056489	
3539438118668	6.0022635	-1.7669208	8.130709	
3539448120834	5.841852	-1.7908629	8.025364	
3539458324917	5.6658783	-1.685518	7.8613615	
3539468454458	5.57849	-1.4879963	7.606379	
3539478284729	5.4432178	-1.3491327	7.3166804	
3539488245864	5.4659624	-1.1408371	7.433996	
3539498201932	5.4384294	-1.1300632	7.693767	
3539508159966	5.427655	-1.3239936	7.789535	
3539518363983	5.723339	-1.2246342	7.77517	
3539528251991	5.6203885	-1.2761095	7.7823524	
3539538216495	5.4767365	-1.2366052	8.157045	
3539548221247	5.580884	-1.0139444	7.9128366	
3539558171123	5.614403	-1.1911154	7.2460513	
3539568367561	5.5246205	-1.5849615	6.8893156	
3539578232280	5.494693	-2.2469583	6.7959414	
3539588171640	5.8382607	-2.60968	7.1466923	
3539598626820	6.0956373	-2.717419	7.9607205	
3539608356410	5.947197	-3.0346506	7.7691846	
3539618289205	5.731719	-3.1316159	7.3789296	
3539628200602	5.5581393	-2.8299465	7.7105265	
3539638294801	5.580884	-2.4025815	7.845799	
3539648279400	5.6227827	-2.1080947	7.53575	
3539658373700	5.756858	-1.8076223	7.5944076	
3539668230350	5.8346696	-1.7345991	7.7931266	
3539678176175	5.8442464	-1.7082629	7.7093296	
3539688396087	5.8562174	-1.5777789	7.7368627	
3539698299043	5.889736	-1.3850456	7.6949644	
3539708226521	5.9364233	-1.2246342	7.589619	
3539718218760	5.911284	-1.13964	7.503428	
3539728156880	5.8346696	-1.2521675	7.5549035	
3539738443440	5.8107276	-1.4053963	7.7440453	
3539748293720	5.913678	-1.4377182	7.7572136	
3539758219860	5.9041014	-1.5215151	7.5525093	
3539768385430	5.8119245	-1.6065093	7.587225	
3539778236715	5.813122	-1.6795325	7.855376	
3539788349857	5.756858	-1.7345991	7.8996687	
3539798500428	5.791574	-1.7657237	7.357382	
3539808298214	5.792771	-1.8650831	7.479486	
3539818231607	5.731719	-1.9237411	7.8757267	
3539828372803	5.645528	-1.9452889	7.8062944	
3539838272401	5.6084175	-1.9009962	7.714118	
3539848285700	5.6084175	-1.8411411	7.551312	
3539858184350	5.647922	-1.7501614	7.526173	
3539868209675	5.559336	-1.7286136	7.6710224	
3539878177337	5.4180784	-1.8291701	7.9008656	
3539888251668	5.568913	-1.8830396	7.6602483	
3539898587334	5.505467	-2.007538	7.4495587	
3539908340667	5.4911017	-2.112883	7.338228	
3539918390833	5.494693	-2.0278888	7.5165963	
3539928247916	5.5737014	-1.9081788	7.5884223	
3539938171458	5.60722	-1.7908629	7.4363904	
3539948214229	5.7879825	-1.6065093	7.5441294	
3539958170114	5.8262897	-1.6651673	7.181408	
3539968220557	5.9723363	-1.5574282	7.1143703	
3539978171278	6.1662664	-1.3299791	7.3609734	
3539988152139	6.209362	-1.2114661	7.680599	
3539998138569	6.2728086	-1.0869676	7.7691846	
3540008113784	6.1411276	-1.0235212	7.878121	
3540018298392	6.1890116	-0.94331545	7.4830775	
3540028213696	6.196194	-0.8583213	7.5094137	
3540038520848	6.135142	-0.8415619	7.728483	
3540048383924	6.0836663	-0.9947908	7.8266454	
3540058400462	6.021417	-1.2605472	7.8290396	
3540068257231	5.9747305	-1.4437037	7.833828	
3540078191615	5.9244523	-1.5801731	7.727286	
3540088347307	5.8909335	-1.6328455	7.5932107	
3540098237653	5.8454432	-1.6112977	7.3849154	
3540108183326	5.8083334	-1.5370775	7.2723875	
3540118137663	5.81791	-1.4496891	7.45315	
3540128131331	5.878962	-1.2473791	7.7332716	
3540138123165	5.8622026	-1.1252748	7.666234	
3540148584582	5.9052987	-1.0929531	7.6650367	
3540158598291	5.90889	-1.210269	7.6710224	
3540168372645	5.9292407	-1.3299791	7.705738	
3540178243322	5.9304376	-1.3275849	7.6829934	
3540188173661	5.910087	-1.2330139	7.699753	
3540198165830	5.878962	-1.1599907	7.7129207	
3540208177415	5.8143187	-1.1420342	7.6734166	
3540218421707	5.8119245	-1.1767502	7.553706	
3540228925853	5.8681884	-1.2006922	7.503428	
3540238567926	5.8095303	-1.2677298	7.608773	
3540248334963	5.7975593	-1.292869	7.5429325	
3540258231981	5.9029045	-1.2880806	7.326257	
3540268331990	5.9005103	-1.2916719	7.3633676	
3540278705995	5.943606	-1.2904748	7.491457	
3540288450497	5.886145	-1.2988545	7.669825	
3540298299248	5.8622026	-1.2725182	7.5884223	
3540308264124	5.852626	-1.234211	7.514202	
3540318213062	5.8574142	-1.1791444	7.5465236	
3540328137531	5.889736	-1.1683705	7.632715	
3540338339765	5.8454432	-1.1492168	7.739257	
3540348258882	5.889736	-1.1372458	7.7440453	
3540358208941	5.896919	-1.246182	7.6973586	
3540368170970	5.9280434	-1.2988545	7.723695	
3540378165485	5.913678	-1.3012487	7.819463	
3540388128242	5.9148755	-1.2413936	7.7823524	
3540398459621	5.925649	-1.1767502	7.690176	
3540408307810	5.849035	-1.1695676	7.529764	
3540418405405	5.8598084	-1.1085154	7.548918	
3540428261702	5.865794	-1.0606314	7.6375036	
3540438198851	5.896919	-1.0606314	7.6291237	
3540448235925	5.9747305	-1.0510546	7.503428	
3540458225462	5.9567738	-1.0450691	7.7129207	
3540468164731	5.9567738	-1.0690111	7.608773	
3540478165865	5.910087	-1.1013328	7.511808	
3540488127432	5.8945246	-1.1228806	7.467515	
3540498173216	5.90889	-1.103727	7.5094137	
3540508152608	5.899313	-1.0354922	7.727286	
3540518171804	5.9244523	-0.997185	7.8912888	
3540528363402	5.967548	-0.9720459	7.7691846	
3540538234201	5.8119245	-1.0426749	7.615956	
3540548204600	5.85502	-1.0666169	7.539341	
3540558166300	5.8837504	-1.1204864	7.57286	
3540568210150	5.878962	-1.163582	7.656657	
3540578331075	5.9878983	-1.115698	7.583634	
3540588253037	5.849035	-1.1228806	7.615956	
3540598185018	5.843049	-1.0043676	7.599196	
3540608187009	5.875371	-0.8822633	7.5764513	
3540618150504	5.8586116	-0.89184016	7.5920134	
3540628405752	5.8622026	-0.89303726	7.615956	
3540638307376	5.8478374	-0.90740246	7.608773	
3540648533188	5.825093	-1.0019734	7.5165963	
3540658545094	5.813122	-1.0187328	7.529764	
3540668332047	5.7987566	-0.9504981	7.6051817	
3540678225523	5.840655	-0.9768343	7.726089	
3540688309761	5.843049	-1.0175357	7.699753	
3540698509380	5.8825536	-1.0031705	7.693767	
3540708332690	5.955577	-0.9648633	7.7320743	
3540718216845	5.907693	-0.9935937	7.7129207	
3540728188922	5.896919	-0.91458505	7.5680714	
3540738150961	5.8681884	-0.90859956	7.607576	
3540748283980	5.8741736	-0.8846575	7.7823524	
3540758467490	5.899313	-0.842759	7.8517847	
3540768298245	5.8634	-0.82001406	7.823054	
3540778504622	5.8837504	-0.8463503	7.750031	
3540788351311	5.8502316	-0.93613285	7.7799582	
3540798541655	5.8358665	-0.9588778	7.705738	
3540808296827	5.8358665	-0.93134445	7.699753	
3540818415913	5.8203044	-0.90381116	7.7009497	
3540828348956	5.816713	-0.89543146	7.6650367	
3540838698478	5.8358665	-0.8846575	7.6530657	
3540848385739	5.8334723	-0.8571242	7.7129207	
3540858356369	5.8238955	-0.8655039	7.750031	
3540868224684	5.8203044	-0.90620536	7.739257	
3540878245342	5.8502316	-0.92655605	7.6949644	
3540888157671	5.825093	-0.92416185	7.7009497	
3540898653835	5.732916	-0.9504981	7.65546	
3540908418417	5.719748	-1.0031705	7.597999	
3540918275208	5.7281275	-0.997185	7.597999	
3540928191104	5.671864	-0.961272	7.657854	
3540938163052	5.675455	-0.8595184	7.763199	
3540948122026	5.7604494	-0.8607155	7.7931266	
3540958135013	5.765238	-0.94930094	7.714118	
3540968135006	5.8262897	-0.9900024	7.6267295	
3540978156503	5.7281275	-1.1264719	7.6961613	
3540988120251	5.8562174	-0.9983821	7.8493905	
3540998371625	5.837064	-0.90500826	7.878121	
3541008224812	5.7903767	-0.79487497	7.8505874	
3541018230406	5.770026	-0.712275	7.750031	
3541028163203	5.744887	-0.6847417	7.7105265	
3541038223101	5.7879825	-0.6967127	7.716512	
3541048206050	5.781997	-0.79487497	7.751228	
3541058151525	5.732916	-0.94570965	7.7560163	
3541068124262	5.7508726	-1.0043676	7.9427643	
3541078457631	5.7041855	-1.0151415	7.771579	
3541088283315	5.6443305	-0.8750807	7.6829934	
3541098236157	5.4671597	-0.842759	7.6494746	
3541108248078	5.4922986	-0.80205756	7.5561004	
3541118246039	5.505467	-0.842759	7.57286	
3541128472519	5.5629277	-0.8655039	7.571663	
3541138775259	5.6323595	-0.8738836	7.583634	
3541149354129	5.663484	-0.8762778	7.727286	
3541159022564	5.5138464	-0.91578215	7.905654	
3541168616282	5.48751	-0.93254155	7.7320743	
3541178586141	5.45878	-0.8702923	7.571663	
3541188360570	5.333084	-0.79726917	7.7584105	
3541198533785	5.2899885	-0.8463503	7.9930425	
3541208359392	5.2744265	-0.9552865	8.185776	
3541218244696	5.2301335	-1.0881647	7.9427643	
3541228245848	5.2169657	-1.1085154	7.8613615	
3541238308424	5.187038	-1.0546459	8.204929	
3541248595712	5.1666875	-0.93972415	8.343793	
3541258627356	5.161899	-0.8559271	8.255207	
3541268402178	5.171476	-0.7637503	8.24563	
3541278486089	5.1247888	-0.79008657	8.295909	
3541288313544	5.2026005	-0.79966336	8.418014	
3541298206272	5.221754	-0.8523358	8.449138	
3541308178636	5.1942205	-0.93613285	8.47308	
3541318211318	5.129577	-0.9540894	8.401254	
3541328148159	5.085284	-0.92775315	8.367735	
3541338121579	5.085284	-0.90740246	8.311471	
3541348116789	5.067328	-0.92416185	8.334216	
3541358241894	5.035006	-0.9648633	8.352173	
3541368215447	5.0254292	-0.93972415	8.287529	
3541378177223	5.0062757	-0.8655039	8.309077	
3541388191611	4.973954	-0.82599956	8.244433	
3541398483305	4.9679685	-0.78050977	8.221688	
3541408356152	4.9440265	-0.7517793	8.224083	
3541418499076	4.8745947	-0.82240826	8.180987	
3541428530538	4.945224	-0.85473	8.043321	
3541438645269	4.935647	-0.8762778	8.158242	
3541448445134	4.8853683	-0.78649527	8.287529	
3541458706067	4.859032	-0.5530606	8.49343	
3541468441033	4.8494554	-0.50996494	8.6574335	
3541498287754	4.8985367	-0.81522566	8.554482	
3541498287754	4.8985367	-0.81522566	8.554482	
3541498287754	4.8985367	-0.81522566	8.554482	
3541508206877	4.9081135	-0.8631097	8.494628	
3541518288438	4.9559975	-0.82599956	8.63828	
3541528927219	4.9643774	-0.79607207	8.711303	
3541538802609	5.0182467	-0.760159	8.8884735	
3541548464304	5.067328	-0.7781156	9.056067	
3541558302152	5.073313	-0.7410054	9.076419	
3541568199576	5.1116204	-0.63206923	8.967483	
3541578218788	5.1930237	-0.58418524	8.859743	
3541588418894	5.3163247	-0.5530606	9.0429	
3541598461447	5.471948	-0.6739678	9.247604	
3541608274223	5.366603	-0.8475474	9.469068	
3541618224111	5.258864	-0.6823475	9.502586	
3541628212555	5.243302	-0.5746084	9.303867	
3541638179277	5.245696	-0.5374983	9.102755	
3541648111638	5.3318872	-0.30406362	8.895657	
3541658108819	5.449203	0.05626374	8.789114	
3541668241409	5.583278	0.2741361	8.671799	
3541678925204	5.494693	0.35314476	8.734048	
3541688546102	5.3043537	0.6380547	8.779537	
3541698579051	5.257667	1.0881647	8.649054	
3541708645025	5.207389	1.5741876	8.508993	
3541718750012	5.0876784	1.9967642	8.461109	
3541738327253	4.7441106	2.4181437	8.244433	
3541738327253	4.7441106	2.4181437	8.244433	
3541748205626	4.4687777	2.5905263	8.1797905	
3541758161313	4.4795513	2.5246856	8.22528	
3541768134656	4.5262384	2.3116016	8.24563	
3541778124328	4.4448357	2.384625	8.331821	
3541788102664	4.4927197	2.6420016	7.9236107	
3541798807832	4.413711	2.719813	7.41604	
3541808476916	4.685453	2.6539726	6.799533	
3541818681958	4.44723	2.5845408	6.619968	
3541829109979	4.068946	2.5019407	6.6307416	
3541838705489	4.0737343	2.468422	6.7265096	
3541848457244	4.3143516	2.8634653	7.243657	
3541858285122	4.2521024	3.0681696	7.702147	
3541868211561	4.003105	2.8299465	7.9188223	
3541878402780	3.7074213	2.585738	8.084022	
3541888241890	3.5482068	2.4983494	8.005013	
3541898533945	3.2716765	2.3953989	8.135497	
3541908308472	2.908955	2.2026656	8.400057	
3541918405736	2.5689783	2.2936451	8.815451	
3541928239868	2.4791958	2.3930047	8.991425	
3541938155934	2.4073699	2.4372973	9.227253	
3541948367467	2.0913353	2.574964	9.442732	
3541958529733	1.7681179	2.6084828	9.392453	
3541968367366	1.3491327	2.4863784	9.2069025	
3541978336683	0.985214	2.2493525	8.820239	
3541988450841	0.6835446	2.2709002	8.41921	
3541998568420	0.1388637	2.0649989	7.9307933	
3542008386710	0.1388637	2.0649989	7.926005	
3542018274855	-0.48722005	1.6651673	7.9942393	
3542028309927	-0.8511387	1.412579	8.139089	
3542038668463	-0.9576807	1.3443443	8.267179	
3542049950231	-1.1109096	1.3838485	8.396465	
3542059658115	-1.055843	1.4460979	8.544906	
3542069002057	-0.8571242	1.7250223	8.469488	
3542079442528	-0.9516952	1.8195933	8.265982	
3542088893264	-1.1468226	1.6795325	8.117541	
3542099335132	-1.70946	1.1001357	8.221688	
3542109219066	-2.3319526	0.50038815	8.485051	
3542119256033	-2.5953147	0.20470424	8.722076	
3542128970516	-2.5079262	0.15083471	9.076419	
3542139239258	-2.2541409	0.11372458	9.3421755	
3542148747129	-2.2649148	-0.06943185	9.568427	
3542158457564	-2.4756045	-0.24899697	9.639056	
3542168285782	-2.4492683	-0.3842694	9.801862	
3542178213391	-2.4540567	-0.5231331	9.606734	
3542188169195	-2.4480712	-0.60453594	9.435549	
3542198171597	-2.2505496	-0.6751649	9.376891	
3542208360798	-2.3475149	-1.0259154	9.331401	
3542218213899	-2.707842	-1.5801731	9.266758	
3542228601449	-2.823961	-1.9488802	9.241618	
3542238367224	-2.8000188	-2.1080947	9.264363	
3542248294112	-2.7868507	-2.2134395	9.340978	
3542258211056	-2.6491842	-2.1799207	9.11712	
3542268174528	-2.5306711	-2.0937295	9.094376	
3542278153264	-2.5713725	-2.1428106	9.240421	
3542288166632	-2.5019407	-2.1703439	9.317036	
3542298414316	-2.5701754	-2.3391352	9.010578	
3542308267658	-2.6839	-2.5462334	8.577228	
3542318181829	-2.7820623	-2.777274	8.548497	
3542328151914	-2.5258827	-2.8048072	8.962694	
3542338148957	-2.030283	-2.6659436	9.5971575	
3542348145478	-1.9021933	-2.693477	9.977836	
3542358290739	-1.6663644	-2.705448	9.965864	
3542368189369	-1.4149733	-2.7748797	9.64145	
3542378243184	-1.0630256	-2.7329812	9.102755	
3542388168592	-0.7649474	-2.5510218	8.688558	
3542398165796	-0.49200845	-2.4361002	8.494628	
3542408586898	-0.4165911	-2.420538	8.738836	
3542418435449	-0.30047232	-2.4420857	9.193734	
3542428277224	-0.10175357	-2.3834279	9.570822	
3542438229612	0.11133038	-2.2014685	10.135853	
3542448167806	0.38067806	-2.1152773	10.5440645	
3542458139403	0.37229836	-2.2613235	11.071986	
3542468115701	0.50996494	-2.480393	10.897209	
3542478169850	0.7757214	-2.5091233	10.716447	
3542488241925	1.283292	-2.542642	9.957485	
3542498340462	1.4568717	-2.5079262	9.625888	
3542508231231	1.5131354	-2.4480712	9.121908	
3542518352115	1.6077064	-2.3211784	8.825027	
3542528289557	1.7405846	-2.1739352	8.829816	
3542538204278	1.8016368	-2.1080947	9.234436	
3542548379639	1.9752164	-2.0817583	9.750386	
3542558344319	2.2038627	-2.1643584	10.133459	
3542568225659	2.4839842	-2.2182279	10.176555	
3542578218329	2.7832594	-2.1559787	9.935937	
3542588162664	3.1364043	-1.9381063	9.578004	
3542598261332	3.265691	-1.8435353	9.251195	
3542608721666	3.2668881	-1.8914193	8.881291	
3542618903333	3.4141316	-1.8782512	8.452729	
3542628529166	3.5470097	-1.6723499	8.349778	
3542638317583	3.8067808	-1.4257472	8.634688	
3542648209291	4.0258503	-1.1971009	9.148245	
3542658531145	4.1539397	-1.0307038	9.44752	
3542668284572	4.3598413	-0.8391677	9.460688	
3542678245286	4.4807487	-0.7038953	9.17099	
3542688156643	4.55856	-0.6799533	8.713697	
3542698144321	4.662708	-0.6619968	8.291121	
3542708114160	4.7165775	-0.7098808	8.019379	
3542718104580	4.63278	-0.79966336	7.856573	
3542728102290	4.6579194	-0.8559271	7.9104424	
3542738123645	4.7321396	-0.80684596	8.1343	
3542748137822	4.703409	-0.61890113	8.470686	
3542758127411	4.771644	-0.41180268	8.750807	
3542768094705	4.8997335	-0.3196259	9.111135	
3542778118352	4.9284644	-0.33518824	9.336189	
3542788113176	4.9296613	-0.2801216	9.569624	
3542798160088	5.189432	-0.15562311	9.214086	
3542808459544	5.395334	-0.1448492	8.5700445	
3542818454772	5.031415	-0.29927522	8.026561	
3542828370386	4.662708	-0.2813187	8.0445175	
3542838672193	4.571728	-0.16998832	8.263587	
3542848406096	4.6363716	0.08259996	8.684967	
3542858967548	4.6160207	0.2633622	9.198523	
3542868591274	4.413711	0.22744916	9.044097	
3542878791637	4.074931	-0.009576807	8.48146	
3542888458318	3.8055837	-0.21068975	8.147469	
3542898782659	3.7205894	-0.1400608	8.009802	
3542908463829	3.6272156	0.03232172	7.892486	
3542918264914	3.3674448	0.2789245	7.914034	
3542928201457	3.1842883	0.62488663	8.069656	
3542938578728	3.0250738	0.770933	7.867347	
3542948381864	2.6360161	0.59495914	7.3346367	
3542958245932	2.1787236	0.50038815	6.8162923	
3542968175466	1.851915	0.5805939	7.381324	
3542978154733	1.5298948	0.866701	8.354567	
3542988178866	1.3359646	1.0175357	8.938752	
3542998150933	1.2030864	1.0474633	8.6095495	
3543008105966	1.021127	0.78290397	8.438364	
3543018104483	0.58897364	0.25498247	8.882488	
3543028071241	0.29328972	0.0023942017	9.168595	
3543038123120	0.18435353	-0.07062895	9.234436	
3543048088060	0.076614454	-0.21308395	9.431957	
3543058086030	-0.016759412	-0.009576807	9.255983	
3543068082015	-0.24779987	-0.0035913025	9.021352	
3543078588507	-0.62009823	-0.29448682	9.041702	
3543088922253	-0.90141696	-0.5470751	9.198523	
3543098773626	-1.258153	-0.8511387	9.556456	
3543108472813	-1.5334862	-1.3515269	9.901221	
3543118776906	-1.9476831	-1.8782512	9.876082	
3543128531453	-2.1092918	-2.0805612	9.768343	
3543140989226	-2.1272483	-2.1691468	9.609129	
3543158384000	-2.2649148	-2.1703439	9.349358	
3543168897000	-2.4013844	-2.12246	9.03452	
3543178095000	-2.4145525	-1.9740193	8.738836	
3543188162000	-2.397793	-1.9249382	8.349778	
3543198090000	-2.4121583	-1.8842367	7.9272017	
3543208212000	-2.4157495	-2.0566192	8.028955	
3543218223000	-2.5246856	-2.4492683	8.826224	
3543228138000	-2.554613	-2.846706	9.688137	
3543238607000	-2.171541	-2.9269116	10.024523	
3543248099000	-1.6998832	-2.9269116	9.994595	
3543258171000	-1.4532804	-2.980781	9.773131	
3543268151000	-1.2030864	-3.0083144	9.651027	
3543278076000	-0.9504981	-2.9939492	9.935937	
3543288669000	-0.61171854	-3.016694	10.530896	
3543298044000	-0.47285482	-3.063381	11.110293	
3543308219000	-0.45250413	-3.1483753	10.998962	
3543318114000	-0.130484	-3.040636	10.18254	
3543328768000	0.08379706	-2.7665	9.67856	
3543338094000	0.01316811	-2.72939	9.791088	
3543348187000	0.1604115	-2.706645	10.184934	
3543358117000	0.35314476	-2.7641058	10.638636	
3543368164000	0.6572084	-2.8502972	10.965444	
3543378108000	0.91338795	-2.955642	11.106702	
3543388182000	1.0498575	-2.882619	11.08276	
3543398172000	1.2844892	-2.6767175	10.694899	
3543409582000	1.4281414	-2.4756045	10.116699	
3543418315000	1.4975731	-2.3690627	9.706094	
3543428812000	1.9500773	-2.123657	10.170568	
3543438415000	1.9500773	-2.123657	10.305841	
3543448574000	2.5103204	-1.7812861	10.110714	
3543458622000	2.7246015	-1.5227122	9.635465	
3543468222000	2.8790276	-1.3072342	9.153033	
3543478710000	3.1842883	-1.0737995	8.707711	
3543488237000	3.4524388	-0.8870517	8.218098	
3543498249000	3.525462	-0.8415619	7.8709383	
3543508284000	3.5194764	-0.8367735	7.7967176	
3543518528000	3.7469256	-0.7793127	8.020576	
3543528515000	3.8845923	-0.6835446	8.48984	
3543538105000	3.9911342	-0.59615624	8.785523	
3543548157000	4.059369	-0.51834464	9.0429	
3543558409000	4.152743	-0.46447513	9.174581	
3543568746000	4.285621	-0.40102878	9.105149	
3543578167000	4.3167458	-0.31483752	9.109938	
3543588133000	4.373009	-0.19393034	8.799889	
3543598194000	4.4723687	-0.18674773	8.4108305	
3543608723000	4.4196963	-0.28491	8.12233	
3543618154000	4.4556093	-0.2657564	7.881712	
3543629175000	4.4328647	-0.16160862	7.762002	
3543638191000	4.3837833	0.015562311	7.892486	
3543648920000	4.6363716	0.20231004	7.8733325	
3543658259000	4.7907977	0.36391866	7.703344	
3543668569000	4.8542438	0.58418524	7.8170686	
3543678148000	4.7309427	0.8331822	8.034941	
3543688603000	4.6100354	0.7769185	9.048885	
3543698171000	4.3598413	0.49919105	8.693346	
3543708801000	4.143166	0.36631286	8.256405	
3543718308000	3.9492357	0.25977087	7.916428	
3543728718000	3.9252937	0.19632454	7.8062944	
3543738198000	3.8594532	0.29328972	7.7308774	
3543748659000	3.6535518	0.37708676	7.9236107	
3543768348000	3.1016884	0.40940848	7.9726915	
3543768348000	3.1016884	0.40940848	7.9726915	
3543781198000	2.4887726	-0.022744916	7.529764	
3543798115000	2.0745757	-0.46088383	7.32506	
3543808520000	1.7154455	-0.7781156	7.7572136	
3543818117000	1.4820108	-0.7733272	8.403648	
3543828155000	1.3718776	-0.5315128	8.719683	
3543839836000	1.13964	-0.38187516	9.296685	
3543848178000	0.8499416	-0.34596214	9.805453	
3543858156000	0.6979098	-0.37349546	9.865308	
3543868098000	0.58897364	-0.56982	9.594764	
3543878104000	0.41060558	-0.8714894	9.308656	
3543888598000	0.22505496	-1.1216835	9.5492735	
3543898159000	0.074220255	-1.3084313	10.196905	
3543909061000	-0.07062895	-1.3922282	9.894038	
3543918172000	-0.39264908	-1.5035586	9.569624	
3543928150000	-0.63206923	-1.5275006	9.466674	
3543938169000	-0.94930094	-1.5813702	9.647436	
3543949339000	-1.1468226	-1.553837	9.719262	
3543958147000	-1.2533646	-1.4975731	9.472659	
3543968144000	-1.4676456	-1.5993267	9.193734	
3543978421000	-1.7010803	-1.8626889	9.072827	
3543988252000	-1.8674773	-2.0817583	8.962694	
3543998224000	-1.9991584	-2.2397757	8.78672	
3544008587000	-2.1320367	-2.528277	8.723274	
3544018197000	-2.3127987	-2.9245174	8.965088	
3544028139000	-2.44448	-3.2273839	9.072827	
3544038180000	-2.5103204	-3.4153287	9.066842	
3544048241000	-2.6048915	-3.526659	9.060856	
3544058075000	-2.7018566	-3.6272156	9.161413	
3544068095000	-2.8670566	-3.643975	9.277532	
3544078176000	-3.028665	-3.6607344	9.312247	
3544088251000	-3.0142999	-3.5936968	9.232041	
3544098512000	-2.9951463	-3.6008794	9.2308445	
3544108218000	-3.0346506	-3.7217865	9.028535	
3544118418000	-3.1052797	-3.776853	8.602366	
3544128119000	-2.930503	-3.4596214	8.810662	
3544138079000	-2.657564	-3.1232362	9.386468	
3544148182000	-2.4049757	-2.9460652	9.865308	
3544159065000	-2.007538	-2.9317	9.995792	
3544168495000	-2.1392193	-3.323152	10.121488	
3544178096000	-2.2254105	-3.4584243	9.993398	
3544188121000	-2.2266076	-3.2585084	10.210073	
3544198230000	-1.602918	-2.96881	10.26514	
3544208204000	-0.79487497	-2.8083985	10.19451	
3544218099000	-0.019153614	-2.7006595	10.376471	
3544228233000	0.35673606	-2.6683378	10.854114	
3544238483000	0.5327099	-2.6084828	10.651803	
3544249906000	0.61530983	-2.4504654	10.268731	
3544258561000	0.91578215	-2.3092074	9.952697	
3544269316000	1.3395559	-2.2397757	9.860519	
3544278273000	1.553837	-2.2170308	10.084377	
3544289157000	1.7753005	-2.2972364	10.144233	
3544298781000	2.0386627	-2.244564	10.238804	
3544308771000	2.1499932	-2.030283	10.103531	
3544318745000	2.2972364	-1.7369933	9.873688	
3544328373000	2.4420857	-1.4891934	9.510966	
3544339161000	2.5965118	-1.2389994	9.044097	
3544348388000	2.895787	-1.0785879	8.6334915	
3544358987000	3.4632127	-0.8858546	8.143877	
3544368603000	3.6403837	-0.78290397	8.051701	
3544378594000	3.7780502	-0.6931214	8.018182	
3544389221000	3.9360676	-0.6380547	8.111555	
3544398205000	3.98874	-0.5638345	8.24204	
3544408555000	4.10845	-0.47046062	8.37372	
3544418469000	4.2580876	-0.36391866	8.5473	
3544428190000	4.3957543	-0.22984336	8.783129	
3544438136000	4.423288	0.010773907	8.72088	
3544448204000	4.450821	0.15442601	8.192958	
3544458064000	4.545392	0.18435353	7.5082164	
3544468602000	4.5501804	0.16998832	7.0928226	
3544478136000	4.5741224	0.22744916	7.1047935	
3544488184000	4.6339774	0.30645782	7.4387846	
3544498262000	4.795586	0.2741361	7.728483	
3544508148000	4.759673	0.17118542	7.831434	
3544518247000	4.4328647	0.073023155	7.9068513	
3544528148000	4.1491513	-0.1388637	9.404425	
3544538600000	4.2425256	-0.089782566	8.907627	
3544549666000	4.509479	-0.076614454	8.520964	
3544558281000	4.3478703	-0.16519992	8.021772	
3544568428000	4.0533834	-0.16160862	7.751228	
3544578216000	3.8055837	-0.16879122	7.299921	
3544588231000	3.3207579	-0.36750996	7.204153	
3544600002000	2.8909986	-0.6500258	7.417237	
3544608298000	2.6431987	-0.80564886	7.855376	
3544618628000	2.5091233	-0.90979666	8.425196	
3544628276000	2.4157495	-1.0486604	8.562862	
3544638229000	2.1452048	-1.2234371	8.352173	
3544649769000	1.9812019	-1.3706805	8.286332	
3544659161000	1.8662802	-1.5514427	8.596381	
3544669614000	1.7824832	-1.6771383	9.339781	
3544678820000	1.827973	-1.6484078	9.673772	
3544689010000	1.733402	-1.62686	9.449914	
3544698155000	1.5801731	-1.6184803	9.3182335	
3544708328000	1.3742718	-1.697489	9.661801	
3544718399000	1.0414777	-1.6891093	9.856929	
3544728126000	0.961272	-1.7046716	9.509769	
3544738748000	0.7098808	-1.8100165	9.308656	
3544748570000	0.5781997	-2.005144	9.149442	
3544758452000	0.31124622	-2.243367	9.26197	
3544768191000	-0.0011971008	-2.5450363	9.5971575	
3544778053000	-0.16998832	-2.6755204	9.742006	
3544788262000	-0.29807812	-2.72939	9.472659	
3544798387000	-0.48482585	-2.7150247	9.246407	
3544808147000	-0.7410054	-2.6563668	9.00579	
3544818436000	-1.0726024	-2.694674	8.954314	
3544828132000	-1.2569559	-2.7712884	9.166202	
3544838107000	-1.2389994	-2.7629087	9.235633	
3544848120000	-1.4041992	-2.9532478	9.227253	
3544858100000	-1.6112977	-3.1184478	9.360131	
3544868944000	-1.7884687	-3.1136594	9.097966	
3544878153000	-1.9129672	-3.1268275	8.9363575	
3544888216000	-2.0841527	-3.2573113	8.84059	
3544898638000	-2.134431	-3.38181	8.9279785	
3544938172000	-2.3810337	-4.747702	8.736442	
3544998044000	-1.3024458	-2.8275523	11.105505	
3544998044000	-1.3024458	-2.8275523	11.105505	
3544998044000	-1.3024458	-2.8275523	11.105505	
3544998044000	-1.3024458	-2.8275523	11.105505	
3544998044000	-1.3024458	-2.8275523	11.105505	
3544998044000	-1.3024458	-2.8275523	11.105505	
3544998044000	-1.3024458	-2.8275523	11.105505	
3544998044000	-1.3024458	-2.8275523	11.105505	
3544998044000	-1.3024458	-2.8275523	11.105505	
3545008275000	-0.79846627	-3.2836475	11.058818	
3545018714000	-0.40821138	-3.2836475	11.058818	
3545028205000	0.055066638	-3.515885	10.779893	
3545038157000	0.44771573	-3.5984852	10.572795	
3545048168000	0.47285482	-3.5362358	10.589554	
3545058186000	0.5315128	-3.265691	10.536881	
3545068157000	0.59376204	-2.9113493	10.280702	
3545078260000	0.61770403	-2.7222073	10.080787	
3545088173000	0.8882488	-2.4540567	10.235212	
3545098607000	1.2378023	-2.1057005	10.419566	
3545108120000	1.5466543	-1.9764135	10.296265	
3545118207000	1.6232687	-2.1068976	9.76954	
3545128535000	1.9596541	-2.134431	9.392453	
3545138168000	2.3439236	-2.0135236	9.148245	
3545148130000	2.6970682	-1.8662802	9.068039	
3545158163000	2.9269116	-1.7645266	9.035717	
3545168273000	3.0334535	-1.6627731	9.081207	
3545178149000	3.095703	-1.4867992	9.08001	
3545188123000	3.2082303	-1.2641385	9.130288	
3545199016000	3.359065	-1.1360487	8.967483	
3545208300000	3.5817258	-0.94690675	8.731653	
3545218160000	3.750517	-0.78410107	8.556877	
3545228124000	3.9228995	-0.6859388	8.453926	
3545238101000	4.1455603	-0.5494693	8.467094	
3545248153000	4.3418846	-0.427365	8.396465	
3545258247000	4.367024	-0.29927522	8.243237	
3545268616000	4.380192	-0.18674773	7.9786773	
3545278132000	4.4304705	-0.023942016	7.7931266	
3545288189000	4.525041	0.17836803	7.7428484	
3545298287000	4.6686935	0.36750996	7.656657	
3545308219000	4.703409	0.47405192	7.4854717	
3545318126000	4.8841715	0.49919105	7.3968863	
3545328227000	5.117606	0.44532153	7.335834	
3545338123000	4.961983	0.5566519	7.061698	
3545348432000	4.973954	0.6799533	6.908469	
3545358117000	4.969166	0.7457938	7.541735	
3545368248000	4.984728	0.89543146	7.4735007	
3545378056000	5.1080294	0.92895025	7.9212165	
3545388202000	5.171476	1.0450691	7.487866	
3545398122000	5.0637364	0.9708488	6.8486137	
3545408120000	4.891354	0.92655605	6.673837	
3545418137000	4.7189717	0.89423436	7.153875	
3545428205000	4.709395	0.8678981	7.5800424	
3545438094000	4.674679	0.7589619	7.6135616	
3545448122000	4.413711	0.62847793	7.4627266	
3545458054000	4.2521024	0.50278234	7.4926543	
3545468279000	4.0282445	0.30526072	7.69257	
3545478055000	3.7924154	0.2765303	7.9391727	
3545488281000	3.5793316	0.30885202	8.269572	
3545498178000	3.3614593	0.25498247	8.652645	
3545508811000	3.1794999	0.12449849	8.78672	
3545518117000	3.0705638	-0.08619126	8.7532015	
3545528291000	2.9233203	-0.47764325	8.686164	
3545538271000	2.791639	-0.8738836	8.604761	
3545549063000	2.6300306	-1.1935096	8.610746	
3545558117000	2.4432828	-1.401805	8.572439	
3545569379000	2.1380222	-1.270124	8.832211	
3545578128000	1.7465701	-1.0163386	9.255983	
3545588276000	1.6244658	-0.9720459	9.386468	
3545598165000	1.5059528	-1.1779473	9.600749	
3545608363000	1.5227122	-1.3958195	9.900024	
3545618384000	1.5682021	-1.6962919	10.0748005	
3545628177000	1.5574282	-1.9680338	10.127473	
3545638550000	1.5777789	-2.2589293	9.993398	
3545648165000	1.5897499	-2.445677	9.713276	
3545658447000	1.3515269	-2.5474305	9.398438	
3545668139000	1.1168951	-2.6168625	9.334992	
3545678084000	0.92655605	-2.670732	9.384073	
3545688709000	0.79008657	-2.6779146	9.651027	
3545698164000	0.6799533	-2.598906	9.825804	
3545708185000	0.545878	-2.5234885	9.744401	
3545718149000	0.35913026	-2.469619	9.498995	
3545728185000	0.21906945	-2.4744074	9.351752	
3545738173000	0.08619126	-2.5198972	9.240421	
3545748222000	-0.079008654	-2.669535	8.92319	
3545758136000	-0.11851298	-2.669535	8.92319	
3545768240000	-0.17477672	-2.767697	8.823831	
3545788778000	-0.22146365	-3.5182793	9.018958	
3545788778000	-0.22146365	-3.5182793	9.018958	
3545799264000	-0.3842694	-3.834314	9.109938	
3545808211000	-0.6859388	-3.9995139	9.121908	
3545818243000	-0.724246	-3.9504328	9.076419	
3545828316000	-0.8295909	-3.8989575	8.86932	
3545838171000	-0.985214	-3.9193082	8.698134	
3545849131000	-1.067814	-3.9145198	8.738836	
3545858113000	-1.1935096	-4.084508	9.279925	
3545868099000	-1.0043676	-4.1946416	10.096349	
3545878079000	-0.78888947	-4.24492	10.177752	
3545888087000	-0.7338228	-4.3502645	9.671378	
3545898102000	-0.7350199	-4.283227	9.185355	
3545908455000	-0.63087213	-4.1419687	9.0476885	
3545918151000	-0.5770026	-4.0258503	8.937555	
3545928158000	-0.6787562	-3.9193082	8.883685	
3545938169000	-0.62368953	-3.809175	8.938752	
3545948621000	-0.60573304	-3.705027	9.015367	
3545958156000	-0.48961425	-3.5757403	9.113529	
3545968092000	-0.29568392	-3.405752	9.114726	
3545978082000	-0.05746084	-3.289633	9.309854	
3545988084000	0.25378537	-3.2106245	9.416395	
3545998247000	0.5243302	-3.2441432	9.5253315	
3546008128000	0.8822633	-3.301604	9.572019	
3546018248000	1.0342951	-3.394978	9.510966	
3546028084000	1.2389994	-3.5170822	9.42238	
3546038101000	1.4041992	-3.6607344	9.31943	
3546048089000	1.7250223	-3.739743	9.331401	
3546058087000	2.0578163	-3.78643	9.460688	
3546068254000	2.2182279	-3.6583402	9.423578	
3546078074000	2.1416135	-3.21661	9.835381	
3546088466000	1.8866309	-3.0418332	10.18254	
3546098161000	1.899799	-2.9293058	10.17416	
3546108397000	2.1404164	-2.8443117	9.67856	
3546118170000	2.268506	-2.908955	8.921992	
3546128119000	2.553416	-3.086126	8.572439	
3546138054000	2.9412768	-3.0370448	8.626308	
3546148117000	3.1519666	-2.9616275	8.701726	
3546158233000	3.3614593	-2.8514943	8.823831	
3546169400000	3.3446999	-2.6755204	8.937555	
3546179492000	3.3889925	-2.4049757	8.998607	
3546188136000	3.5553896	-2.2266076	8.995016	
3546198269000	3.7912183	-2.019509	9.096769	
3546208194000	4.0162735	-1.9405005	9.082404	
3546218113000	4.1455603	-1.9764135	8.767567	
3546228233000	4.2221746	-2.0638018	8.305486	
3546238098000	4.3275194	-2.0506337	7.9966335	
3546248620000	4.441244	-1.8914193	7.8745294	
3546258192000	4.5322237	-1.5861586	7.9511437	
3546268580000	4.7058034	-0.92535895	7.9128366	
3546278106000	4.7058034	-0.92535895	7.728483	
3546288105000	4.9787426	-0.9576807	7.587225	
3546298691000	5.0397944	-1.0881647	7.6602483	
3546308103000	5.0960584	-1.1552023	7.687782	
3546318051000	5.1223946	-1.103727	7.8062944	
3546328109000	5.2061915	-1.0223241	7.854179	
3546338112000	5.2325277	-0.93493575	7.827842	
3546348183000	5.2205567	-0.8750807	7.7679873	
3546358077000	5.2241483	-0.7457938	7.8709383	
3546368655000	5.2720323	-0.60693014	8.100781	
3546378148000	5.354632	-0.5327099	8.340201	
3546388120000	5.436035	-0.5530606	8.451532	
3546398131000	5.4863133	-0.6356605	8.470686	
3546408238000	5.5126495	-0.6847417	8.669404	
3546418277000	5.5282116	-0.80564886	8.814254	
3546428574000	5.571307	-0.78290397	8.74961	
3546438180000	5.60722	-0.7445967	8.756793	
3546449214000	5.6108117	-0.6691794	8.696938	
3546458175000	5.5976434	-0.40581718	8.631097	
3546469373000	5.4288526	-0.094570965	8.522161	
3546479539000	5.2887917	0.2765303	8.010999	
3546488320000	5.3558292	0.6955156	7.5189905	
3546498258000	5.377377	0.91937345	7.574057	
3546508470000	5.2899885	0.92057055	7.989451	
3546518227000	5.234922	0.91937345	8.423999	
3546528796000	5.2421045	0.9540894	8.853758	
3546538187000	5.258864	0.93373865	8.939949	
3546549707000	5.2205567	0.79128367	8.866926	
3546558072000	5.2528787	0.7038953	8.772355	
3546568133000	5.3474493	0.8511387	8.516175	
3546578095000	5.395334	0.9768343	7.8625584	
3546588153000	5.1906295	1.067814	7.1873937	
3546598120000	4.9799395	1.1767502	6.841431	
3546608146000	4.8518496	1.4089876	6.987478	
3546618060000	4.841076	1.8064252	7.4447703	
3546628432000	4.72376	2.2170308	7.8625584	
3546638191000	4.6591167	2.5354595	7.6841903	
3546648452000	4.6136265	2.6180596	7.2819643	
3546658047000	4.3035774	2.5486276	7.2221093	
3546668082000	4.0797195	2.5318682	7.0365586	
3546678396000	4.048595	2.4672248	7.0593038	
3546688785000	4.2078094	2.4911668	7.019799	
3546698137000	4.285621	2.421735	7.0808516	
3546708881000	4.390966	2.3762453	7.289147	
3546719245000	3.9372647	2.504335	7.265205	
3546728096000	3.9372647	2.504335	7.265205	
3546738043000	3.608062	2.6372132	7.5668745	
3546748510000	2.743755	2.504335	7.949947	
3546758037000	2.540248	2.3199813	8.250419	
3546768073000	2.4588451	2.1260512	8.331821	
3546778097000	2.2050598	1.7956513	8.317456	
3546788092000	1.8495208	1.4257472	8.050503	
3546798039000	1.292869	0.9504981	8.228871	
3546808081000	0.842759	0.65242	8.579621	
3546818120000	0.60214174	0.58657944	8.875306	
3546828108000	0.36990416	0.5626374	9.068039	
3546838115000	0.037110128	0.5542577	9.094376	
3546848205000	-0.22744916	0.5243302	9.044097	
3546858099000	-0.5315128	-0.010773907	9.083601	
3546868120000	-0.6655881	-0.37588966	9.064447	
3546878398000	-0.5374983	0.088585466	9.068039	
3546888740000	-0.9696517	0.076614454	8.98903	
3546898643000	-1.2282255	0.076614454	9.0716305	
3546908177000	-1.376666	0.08259996	9.405622	
3546918266000	-1.4903905	-0.090979666	9.797073	
3546928139000	-1.7274165	-0.4285621	10.166978	
3546938133000	-2.0326772	-0.7661445	10.242394	
3546948157000	-2.3870192	-1.1061212	9.947908	
3546958123000	-2.7162218	-1.34195	9.479841	
3546968113000	-2.7102363	-1.4341269	9.307459	
3546978072000	-2.6132712	-1.5382746	9.615114	
3546988195000	-2.6420016	-1.6998832	9.903615	
3546998084000	-2.7018566	-1.9440918	9.985018	
3547008394000	-2.7617116	-2.1392193	10.038888	
3547018175000	-2.8670566	-2.2876596	10.0987425	
3547028664000	-2.9101522	-2.3714569	9.937134	
3547038097000	-2.7629087	-2.372654	9.617508	
3547048176000	-2.6719291	-2.4349031	9.307459	
3547058398000	-2.6671407	-2.5474305	9.103952	
3547068206000	-2.492364	-2.5965118	8.9124155	
3547078061000	-2.0494366	-2.5558102	8.64666	
3547088077000	-1.8195933	-2.48159	8.558074	
3547098134000	-1.6938977	-2.4827871	8.669404	
3547108357000	-1.6220716	-2.5450363	8.8645315	
3547118114000	-1.5119383	-2.7449522	9.348161	
3547128112000	-1.5035586	-2.943671	10.333375	
3547138158000	-1.2473791	-3.0382419	11.021708	
3547148103000	-0.9660604	-3.0095115	10.6877165	
3547158308000	-0.6787562	-3.1519666	9.902418	
3547168798000	-0.49081135	-3.169923	9.370906	
3547178588000	-0.1328782	-3.13401	9.165004	
3547188413000	0.2765303	-3.0585926	9.107543	
3547198177000	0.50517654	-2.9712043	9.31943	
3547208069000	0.48482585	-2.896984	9.683349	
3547218073000	0.5470751	-2.8203697	9.82341	
3547228724000	0.91338795	-2.6288335	9.621099	
3547238138000	1.1228806	-2.7090392	9.4774475	
3547248094000	1.3994108	-2.822764	9.317036	
3547258114000	1.673547	-2.7976246	9.367314	
3547268070000	1.9572599	-2.7509377	9.451111	
3547278102000	2.1284454	-2.765303	9.475053	
3547288082000	2.0949266	-2.8646624	9.176975	
3547298220000	2.12246	-2.8107927	8.889671	
3547308128000	2.2661119	-2.6755204	8.74961	
3547318124000	2.4181437	-2.5390508	8.746018	
3547328133000	2.4851813	-2.3546975	8.992621	
3547338083000	2.6994624	-2.1775265	9.257181	
3547348106000	2.9317	-2.1045034	9.297882	
3547358115000	3.074155	-2.1332338	9.089587	
3547368140000	3.2142158	-2.148796	8.813056	
3547378161000	3.289633	-2.1296425	8.7125	
3547388807000	3.3494883	-2.2242134	8.714894	
3547398190000	3.4320881	-2.2661119	8.768764	
3547408928000	3.6367924	-2.2469583	8.809465	
3547418101000	3.8546648	-2.1559787	8.926781	
3547428891000	4.035427	-2.0326772	9.040505	
3547438121000	4.080917	-1.899799	9.147048	
3547448546000	4.0497923	-1.7717092	9.106346	
3547458482000	3.9624038	-1.6579847	8.973468	
3547468155000	4.0773253	-1.6555905	8.6813755	
3547478195000	4.2664676	-1.7106571	8.471883	
3547488105000	4.402937	-1.7621324	8.536526	
3547498117000	4.4903255	-1.8148049	8.694544	
3547508129000	4.522647	-1.8267759	8.742428	
3547518089000	4.542998	-1.7597382	8.725668	
3547528732000	4.5920787	-1.6256629	8.719683	
3547538776000	4.691438	-1.5251064	8.74961	
3547548169000	4.811148	-1.508347	8.584411	
3547559076000	4.847061	-1.4772224	8.401254	
3547568172000	4.7524905	-1.4460979	8.428787	
3547578353000	4.710592	-1.3575124	8.588001	
3547588558000	4.733337	-1.1899183	8.7053175	
3547598101000	4.8219223	-0.9744401	8.699332	
3547609305000	4.914099	-0.878672	8.470686	
3547618215000	4.984728	-0.8571242	8.14268	
3547628197000	5.0397944	-0.85473	7.8745294	
3547642054000	5.116409	-0.79487497	8.169016	
3547658283000	5.115212	-0.770933	8.608353	
3547668707000	5.209783	-0.6631939	8.291121	
3547678149000	5.3342814	-0.50876784	8.291121	
3547688203000	5.457583	-0.2693477	7.819463	
3547698066000	5.436035	-0.037110128	7.3286514	
3547708514000	5.463568	0.25617957	7.156269	
3547718139000	5.317522	0.2669535	7.5189905	
3547728389000	5.309142	0.17238252	8.246828	
3547738104000	5.5401826	0.30047232	8.77834	
3547748081000	5.6910176	0.48841715	9.085996	
3547758085000	5.6407394	0.6368576	8.799889	
3547768097000	5.4911017	0.7577648	8.201338	
3547779153000	5.42167	0.8439561	7.5884223	
3547789099000	5.4863133	0.94451255	7.374141	
3547798138000	5.542577	0.94451255	7.633912	
3547809348000	5.543774	0.878672	7.5812397	
3547818146000	5.613206	0.8487445	7.299921	
3547828654000	5.693412	0.9516952	7.005434	
3547838223000	5.628768	1.0977415	6.7947445	
3547848740000	5.425261	1.3910311	6.757634	
3547858201000	5.354632	1.6304513	6.908469	
3547868240000	5.315128	1.7345991	7.135918	
3547878251000	5.291186	1.7369933	7.6027875	
3547888220000	5.3163247	1.8124107	8.027759	
3547898390000	5.351041	1.8483237	8.094796	
3547908715000	5.2157683	1.6663644	7.8637557	
3547918236000	4.983531	1.423353	7.4723034	
3547928274000	4.724957	1.2425907	6.9132576	
3547938233000	4.3957543	1.0354922	6.685808	
3547948733000	4.0186677	0.89064306	6.727707	
3547958498000	3.630807	0.80924016	7.1981673	
3547968429000	3.489549	0.8822633	7.9702973	
3547978206000	3.3375173	0.9911995	8.801085	
3547988241000	3.240552	1.0510546	9.088389	
3547998807000	3.132813	0.91099375	8.841787	
3548008192000	2.9340942	0.63206923	8.716091	
3548018218000	2.8634653	0.38067806	8.972271	
3548028407000	2.8060043	0.17118542	9.338584	
3548038131000	2.693477	0.073023155	9.508572	
3548048179000	2.552219	0.074220255	9.508572	
3548058104000	2.3810337	-0.010773907	9.483433	
3548068162000	2.2397757	-0.05626374	9.569624	
3548078737000	2.079364	-0.089782566	9.757569	
3548088627000	2.0099323	-0.09935937	9.8916445	
3548098694000	1.9788077	-0.1352724	9.7958765	
3548108224000	1.8782512	-0.31124622	9.615114	
3548118783000	1.6627731	-0.5770026	9.459491	
3548128740000	1.5167267	-0.79966336	9.445126	
3548138383000	1.3634979	-0.9995792	9.739613	
3548148247000	1.2785037	-1.1252748	9.93474	
3548159977000	0.9911995	-0.9756372	9.698911	
3548168715000	0.6332663	-0.90021986	10.028113	
3548178585000	0.51355624	-0.78290397	10.25676	
3548189158000	0.5650316	-0.7074866	9.895236	
3548198966000	0.5231331	-0.90500826	9.593566	
3548209100000	0.51834464	-1.1480197	9.677363	
3548218098000	0.5793968	-1.2761095	9.801862	
3548228495000	0.5746084	-1.3970166	9.770737	
3548238109000	0.5602432	-1.4628572	9.688137	
3548248371000	0.61052144	-1.4867992	9.605537	
3548258462000	0.5470751	-1.4664485	9.531317	
3548268210000	0.46447513	-1.4341269	9.48463	
3548278649000	0.5506664	-1.4879963	9.279925	
3548288194000	0.59615624	-1.6005238	9.062054	
3548298199000	0.545878	-1.7118542	8.881291	
3548308114000	0.4357447	-1.816002	8.619126	
3548318119000	0.39264908	-1.8435353	8.249222	
3548329032000	0.49440265	-1.8890251	7.9870567	
3548338108000	0.6560113	-1.9393034	7.9810715	
3548348201000	0.78290397	-2.0721815	8.081628	
3548358070000	0.92775315	-2.1751323	8.468291	
3548368096000	1.0606314	-2.3582888	9.040505	
3548378141000	1.3096284	-2.5246856	9.655815	
3548388162000	1.4700398	-2.6036944	10.28549	
3548398047000	1.5765818	-2.6898856	10.66138	
3548408687000	1.5753847	-2.789245	10.730812	
3548418125000	1.448492	-2.885013	10.474632	
3548428544000	1.4544775	-2.9891608	9.90601	
3548438365000	1.5646108	-2.9855695	9.297882	
3548448107000	1.7848774	-2.8862102	8.9758625	
3548458088000	2.0326772	-2.7844565	9.107543	
3548468173000	2.0769699	-2.7688942	9.5971575	
3548478105000	2.0290859	-2.8048072	9.892841	
3548488095000	2.0254946	-2.920926	9.8198185	
3548498063000	2.1152773	-3.0178912	9.599552	
3548508199000	2.2768857	-3.0609868	9.411607	
3548518102000	2.4181437	-3.0573955	9.378088	
3548528355000	2.48159	-3.0945058	9.454702	
3548538196000	2.542642	-3.1196449	9.4774475	
3548548604000	2.6527755	-3.1304188	9.337387	
3548558527000	2.8407204	-3.1064768	9.139865	
3548568199000	2.9999347	-3.0454245	8.963891	
3548578175000	3.1304188	-2.895787	8.979453	
3548588719000	3.335123	-2.7389667	9.1590185	
3548598148000	3.514688	-2.5773582	9.329007	
3548608261000	3.606865	-2.3762453	9.469068	
3548618062000	3.702633	-2.1906946	9.372103	
3548628181000	3.7696705	-2.1739352	9.267955	
3548638044000	3.9217024	-2.1655555	9.089587	
3548648102000	4.1958385	-2.0733786	8.848969	
3548658221000	4.2880154	-1.9740193	8.659827	
3548668597000	4.394557	-1.9009962	8.579621	
3548699221000	4.679467	-1.4041992	8.516175	
3548699221000	4.679467	-1.4041992	8.516175	
3548699221000	4.679467	-1.4041992	8.516175	
3548708118000	4.7680526	-1.3730747	8.440758	
3548718149000	4.8123455	-1.2952632	8.341399	
3548728140000	4.8662148	-1.2366052	8.056489	
3548738115000	4.9763484	-1.1827357	7.776367	
3548748173000	5.058948	-1.163582	7.7081323	
3548758137000	5.1547165	-1.0546459	7.7823524	
3548768229000	5.255273	-1.0019734	7.7548194	
3548778296000	5.341464	-1.0402806	7.5848308	
3548788943000	5.4049106	-1.0247183	7.538144	
3548798996000	5.511452	-1.0295067	7.6351094	
3548808343000	5.6156	-1.0510546	7.7224975	
3548818245000	5.686229	-1.0187328	7.8302364	
3548828656000	5.765238	-0.93493575	7.848193	
3548838742000	5.8238955	-0.81283146	7.7943234	
3548848180000	5.8502316	-0.748188	7.6614456	
3548858124000	5.884948	-0.6655881	7.6387005	
3548868150000	5.9388175	-0.5482722	7.514202	
3548878180000	6.007052	-0.49679685	7.393295	
3548888150000	6.075287	-0.4177882	7.3753386	
3548898149000	6.1088057	-0.33877954	7.4483614	
3548908126000	6.149507	-0.24061728	7.4974427	
3548919079000	6.2009826	-0.16759412	7.5405383	
3548928416000	6.1626754	-0.12090719	7.597999	
3548938683000	6.0860605	-0.076614454	7.608773	
3548948203000	6.0980315	-0.059855044	7.7667904	
3548958086000	6.2488666	0.019153614	7.505822	
3548968460000	6.2524576	0.15322891	7.28795	
3548978185000	6.2129536	0.29807812	7.2628107	
3548988138000	6.283582	0.34237084	7.2185183	
3548998412000	6.393716	0.31124622	7.1526775	
3549008213000	6.3566055	0.23702596	7.2592196	
3549018092000	6.302736	0.20949265	7.441179	
3549028540000	6.3578024	0.2789245	7.4615297	
3549038463000	6.2464724	0.33518824	7.503428	
3549048748000	6.160281	0.47644615	7.560889	
3549058071000	6.0166287	0.5722142	7.560889	
3549068184000	5.931635	0.62488663	7.4232225	
3549078203000	5.9962783	0.6344634	7.2951326	
3549088136000	6.039374	0.59615624	7.3298483	
3549098118000	5.9687448	0.50278234	7.466318	
3549108181000	5.9052987	0.39025488	7.61835	
3549118067000	5.705383	0.47405192	7.740454	
3549128532000	5.7365074	0.5614403	7.6590514	
3549138168000	5.7365074	0.6464345	7.639898	
3549148102000	5.638345	0.7098808	7.9188223	
3549159018000	5.5102553	0.760159	8.2276745	
3549168533000	5.401319	0.93014735	8.586804	
3549178619000	5.183447	1.0354922	9.029732	
3549188144000	5.085284	1.1312603	9.033323	
3549198135000	5.2157683	1.1372458	8.269572	
3549208553000	5.222951	0.93732995	7.48188	
3549218155000	5.064934	0.6572084	7.088034	
3549228453000	4.7441106	0.40462008	7.2113357	
3549238467000	4.378995	0.24301147	7.7213006	
3549248094000	4.1599255	0.19752164	8.359355	
3549258886000	4.0174704	0.18315643	8.579621	
3549268780000	3.8259344	0.1400608	8.37372	
3549278126000	3.4955344	0.07062895	8.488642	
3549288125000	3.3758245	0.094570965	8.819042	
3549298485000	3.3039982	0.142455	9.054871	
3549308138000	3.1902738	0.059855044	9.050082	
3549318063000	2.858677	-0.05746084	9.247604	
3549328767000	2.6862943	0.025139118	9.263166	
3549338103000	2.645593	0.2825158	8.763975	
3549348574000	2.3439236	0.17477672	8.397662	
3549358096000	1.9057846	-0.20829555	8.475474	
3549368175000	1.5251064	-0.6943185	8.931569	
3549378159000	1.3000516	-1.0187328	9.485827	
3549388106000	1.2306197	-1.2078748	9.53012	
3549398237000	1.0426749	-1.4053963	9.3733	
3549408158000	0.8283938	-1.5131354	9.097966	
3549418062000	0.6464345	-1.5215151	9.3026705	
3549428165000	0.4225766	-1.4305356	9.834184	
3549438179000	0.29328972	-1.2868834	9.812635	
3549448471000	0.04309563	-1.2449849	9.667787	
3549458122000	-0.29688102	-1.435324	9.736021	
3549468070000	-0.20829555	-1.6795325	9.730036	
3549478085000	-0.015562311	-1.7357962	9.595961	
3549488093000	-0.08140286	-1.7609353	9.471462	
3549498029000	-0.25258827	-2.0015526	9.279925	
3549508177000	-0.2825158	-2.15957	9.076419	
3549518407000	-0.35673606	-2.2218192	8.868123	
3549528125000	-0.6560113	-2.2948422	8.7292595	
3549538099000	-0.93732995	-2.2840683	8.858546	
3549548124000	-1.1372458	-2.2756886	9.244013	
3549558127000	-1.3910311	-2.3307555	9.272743	
3549568096000	-1.496376	-2.372654	8.875306	
3549578105000	-1.7441759	-2.6312277	8.687361	
3549588083000	-1.8447324	-2.883816	8.364143	
3549598228000	-1.9057846	-3.5087025	8.47308	
3549608094000	-1.8962077	-3.5625722	8.76637	
3549618092000	-2.1631613	-3.5936968	9.083601	
3549628075000	-2.6180596	-4.096479	10.196905	
3549638349000	-2.4863784	-4.3981485	11.391612	
3549648383000	-2.9640217	-4.1120415	11.212047	
3549668066000	-3.4404678	-3.4715924	9.561244	
3549668066000	-3.4404678	-3.4715924	9.561244	
3549679556000	-3.0573955	-3.217807	8.546103	
3549693044000	-2.5354595	-3.156755	8.08881	
3549708565000	-1.9476831	-3.3842041	7.7907324	
3549718143000	-1.5514427	-3.4045548	7.1227503	
3549728096000	-1.1552023	-3.478775	7.0126166	
3549738113000	-1.103727	-3.606865	7.551312	
3549748156000	-0.89303726	-3.4620156	8.461109	
3549758908000	-0.7541735	-3.228581	9.229648	
3549768146000	-0.59974754	-3.071761	9.68694	
3549778076000	-0.33039984	-2.9783869	9.932345	
3549788592000	0.0047884034	-2.9412768	9.879673	
3549798090000	0.33638534	-3.0897174	9.568427	
3549808726000	0.5805939	-3.4201171	9.349358	
3549818097000	0.92655605	-3.657143	9.57561	
3549828064000	1.3623008	-3.6990416	10.134656	
3549838060000	1.578976	-3.6631286	10.803835	
3549848105000	1.7669208	-3.5613751	11.200075	
3549858153000	2.0709844	-3.2848446	11.089942	
3549868082000	2.2816741	-3.0921116	10.342952	
3549878115000	2.4277205	-2.9604304	9.543288	
3549888479000	2.493561	-2.8754363	9.08001	
3549898056000	2.6156654	-2.730587	9.228451	
3549908089000	2.753332	-2.5151088	9.452309	
3549918143000	2.8000188	-2.3247697	9.482236	
3549928083000	2.8766334	-2.2697031	9.277532	
3549938477000	3.0466216	-2.2481554	8.9519205	
3549948088000	3.3063924	-2.2266076	8.732851	
3549958877000	3.6212301	-2.2493525	8.76637	
3549968178000	3.881001	-2.219425	8.868123	
3549978065000	4.0174704	-2.0829554	8.876503	
3549988161000	4.132392	-1.8148049	8.744822	
3549998141000	4.334702	-1.4568717	8.567651	
3550008659000	4.5274353	-1.2449849	8.341399	
3550018352000	4.739322	-1.1575965	8.135497	
3550028159000	4.8362875	-1.1216835	8.02297	
3550038208000	4.9440265	-1.0809821	8.0445175	
3550048186000	4.961983	-1.0785879	8.037335	
3550058185000	4.975151	-1.0366893	7.8757267	
3550068119000	5.1930237	-0.8415619	7.821857	
3550078094000	5.2983685	-0.724246	7.8769236	
3550088099000	5.485116	-0.581791	7.8793178	
3550098116000	5.627571	-0.45489833	7.773973	
3550108819000	5.756858	-0.3890578	7.6255326	
3550118060000	5.8622026	-0.34476504	7.7224975	
3550128156000	5.979519	-0.25498247	8.064868	
3550138072000	5.973533	-0.035913024	8.119935	
3550148181000	6.0106435	0.20949265	7.5213847	
3550158093000	6.0716953	0.4213795	6.6175733	
3550168148000	6.007052	0.38067806	6.0525417	
3550178549000	5.877765	0.23942018	6.1985884	
3550188562000	5.851429	0.17118542	6.679823	
3550198125000	5.8801594	0.16280572	7.1155677	
3550208228000	5.852626	0.23104046	7.27957	
3550218141000	5.7879825	0.40821138	7.0700774	
3550228219000	5.6215854	0.6356605	6.742072	
3550238195000	5.5246205	0.6655881	6.4739213	
3550248212000	5.4300494	0.50038815	6.555324	
3550258613000	5.3462524	0.32202014	6.943185	
3550268551000	5.3701944	0.21787235	7.189788	
3550278922000	5.415684	0.1448492	7.2687964	
3550288723000	5.270835	0.031124622	7.487866	
3550298189000	5.100847	-0.031124622	7.69257	
3550308586000	5.0146556	-0.07182605	7.7560163	
3550318444000	4.867412	-0.05626374	7.9487495	
3550328279000	4.76087	0.059855044	8.366538	
3550338577000	4.8997335	0.15801731	8.683769	
3550350549000	4.999093	0.19033903	8.67539	
3550368494000	4.794389	-0.053869538	8.441956	
3550378587000	4.739322	-0.18076223	8.457518	
3550388445000	4.733337	-0.21428105	8.536526	
3550398208000	4.6495395	-0.16879122	8.682572	
3550408552000	4.5621514	-0.11731588	8.815451	
3550418082000	4.537012	-0.15562311	8.767567	
3550428318000	4.5046906	-0.19632454	8.692149	
3550438181000	4.474763	-0.25617957	8.603564	
3550448148000	4.4568067	-0.31124622	8.511387	
3550458069000	4.437653	-0.35434186	8.532935	
3550468147000	4.4675803	-0.36272156	8.616732	
3550478168000	4.5657425	-0.35194764	8.871715	
3550488215000	4.4663835	-0.36391866	9.479841	
3550498152000	4.368221	-0.4189853	9.66659	
3550508279000	4.308366	-0.51595044	9.1590185	
3550518323000	4.2664676	-0.6512229	8.643068	
3550528678000	4.2401314	-0.7110779	8.408437	
3550538141000	4.235343	-0.5363012	8.467094	
3550548260000	4.212598	-0.45489833	8.505402	
3550559335000	4.1479545	-0.4369418	8.329428	
3550568266000	4.0294414	-0.5291186	8.157045	
3550578124000	3.8474822	-0.60573304	8.340201	
3550588224000	3.7086184	-0.6404489	8.504205	
3550598161000	3.4488475	-0.7553706	8.568848	
3550608913000	3.2848446	-0.82240826	8.300697	
3550618370000	3.2094274	-0.973243	8.210915	
3550628171000	3.1316159	-1.2389994	8.318654	
3550639287000	3.0466216	-1.5574282	8.4587145	
3550648671000	3.181894	-1.42455	8.6813755	
3550659064000	3.169923	-1.6543933	8.881291	
3550669260000	3.0681696	-1.8830396	9.227253	
3550679219000	3.0789435	-1.9728222	9.554062	
3550688226000	3.0478187	-1.9596541	9.811439	
3550698700000	2.932897	-1.8447324	9.825804	
3550708195000	2.7880478	-1.7381904	9.679757	
3550718406000	2.6443958	-1.7154455	9.448717	
3550728212000	2.6036944	-1.7322049	9.386468	
3550738169000	2.6659436	-1.7417817	9.423578	
3550748206000	2.7138276	-1.7465701	9.557653	
3550758076000	2.7832594	-1.6938977	9.622296	
3550768262000	2.7856536	-1.614889	9.5971575	
3550778234000	2.8335378	-1.5514427	9.512163	
3550788197000	2.8921957	-1.4616601	9.392453	
3550798126000	3.1136594	-1.3335704	9.301474	
3550809001000	3.3327289	-1.2856863	9.26556	
3550818140000	3.453636	-1.3347675	9.149442	
3550828293000	3.6511576	-1.365892	9.126697	
3550838485000	3.705027	-1.4341269	9.352949	
3550849012000	3.678691	-1.4688427	9.428367	
3550858166000	3.6355953	-1.3563153	9.160215	
3550868297000	3.7469256	-1.2270284	8.744822	
3550878177000	3.8726213	-1.1408371	8.544906	
3550889129000	3.9492357	-1.1492168	8.562862	
3550898174000	4.036624	-1.2497733	8.699332	
3550908877000	4.1742907	-1.30484	8.811859	
3550918130000	4.334702	-1.3323733	8.774749	
3550928287000	4.3742065	-1.3072342	8.707711	
3550938284000	4.369418	-1.2282255	8.62152	
3550948347000	4.35625	-1.1121067	8.582016	
3550958238000	4.3418846	-0.89662856	8.625112	
3550969375000	4.334702	-0.50637364	8.452729	
3550978297000	4.334702	-0.50637364	8.452729	
3550988812000	4.450821	-0.34596214	8.300697	
3550998600000	4.560954	-0.40342298	8.449138	
3551008244000	4.674679	-0.49440265	8.39886	
3551019117000	4.7417164	-0.5446809	8.322245	
3551029227000	4.751293	-0.5626374	8.334216	
3551038246000	4.807557	-0.51235914	8.354567	
3551048148000	4.80636	-0.44771573	8.303091	
3551058157000	4.8147397	-0.415394	8.204929	
3551068779000	4.8745947	-0.37469256	8.153454	
3551078081000	4.973954	-0.33279404	8.282741	
3551088841000	5.0302176	-0.29448682	8.433576	
3551098150000	5.0481744	-0.24181437	8.342596	
3551108095000	5.073313	-0.20111294	8.24563	
3551118079000	5.09127	-0.15442601	8.3390045	
3551128105000	5.0781016	-0.08738836	8.3821	
3551138191000	5.103241	-0.08499416	8.298303	
3551148226000	5.1439424	-0.08738836	8.259995	
3551158241000	5.2205567	-0.08738836	8.194156	
3551168763000	5.2504845	-0.074220255	8.063671	
3551178358000	5.2409077	-0.021547815	8.003817	
3551188239000	5.234922	0.019153614	8.12233	
3551198260000	5.17387	0.044292733	8.1402855	
3551209269000	5.2157683	0.04070143	7.989451	
3551219594000	5.233725	0.015562311	8.009802	
3551228814000	5.1942205	0.034715924	8.0445175	
3551238242000	5.1846437	0.12090719	8.003817	
3551248301000	5.16549	0.16879122	7.9427643	
3551258471000	5.151125	0.1352724	7.9942393	
3551268438000	5.197812	0.03232172	8.02297	
3551278652000	5.2301335	-0.12449849	8.057686	
3551288768000	5.2409077	-0.23702596	8.106767	
3551298594000	5.1882353	-0.24899697	8.063671	
3551308809000	5.097255	-0.21787235	8.080431	
3551318789000	5.0038815	-0.20829555	8.2169	
3551328719000	4.975151	-0.18315643	8.264784	
3551338087000	4.924873	-0.10534488	8.250419	
3551348203000	4.9416323	-0.07182605	8.243237	
3551358112000	4.975151	-0.1436521	8.348581	
3551368129000	5.023035	-0.23223756	8.388085	
3551378102000	5.069722	-0.29209262	8.283937	
3551388129000	5.0661306	-0.33758244	8.252813	
3551398090000	5.0637364	-0.32680854	8.252813	
3551408185000	5.0517654	-0.29927522	8.244433	
3551418458000	4.995502	-0.2669535	8.273164	
3551428181000	4.938041	-0.17717093	8.273164	
3551438201000	4.88058	-0.079008654	8.2516165	
3551448089000	4.871003	-0.038307227	8.334216	
3551458091000	4.9296613	-0.047884032	8.384495	
3551468258000	5.009867	-0.1316811	8.334216	
3551478187000	5.0900726	-0.23582886	8.407239	
3551488294000	5.1666875	-0.2645593	8.327033	
3551498121000	5.1559134	-0.24660277	8.321048	
3551508191000	5.1259856	-0.24420857	8.407239	
3551518083000	5.085284	-0.17477672	8.42759	
3551528141000	5.0254292	-0.089782566	8.318654	
3551538265000	4.985925	-0.04070143	8.301894	
3551548174000	4.969166	-0.027533319	8.401254	
3551558916000	4.9775453	-0.11851298	8.34499	
3551568099000	5.021838	-0.19033903	8.224083	
3551578210000	5.055357	-0.20590134	8.238448	
3551588195000	5.092467	-0.21188685	8.313866	
3551598164000	5.0840874	-0.18195933	8.257602	
3551608348000	5.068525	-0.12090719	8.244433	
3551618550000	5.043386	-0.055066638	8.259995	
3551628688000	5.064934	-0.073023155	8.195353	
3551638761000	5.1020436	-0.11252748	8.192958	
3551648170000	5.0984526	-0.1364695	8.224083	
3551658127000	5.079299	-0.094570965	8.201338	
3551668853000	5.081693	-0.06703765	8.178593	
3551678204000	5.057751	-0.04189853	8.136695	
3551688207000	5.052963	-0.038307227	8.185776	
3551698094000	5.055357	-0.034715924	8.280347	
3551708101000	5.0757074	-0.110133275	8.304289	
3551718490000	5.056554	-0.1604115	8.304289	
3551728273000	5.040992	-0.12928689	8.252813	
3551738104000	5.005079	-0.10175357	8.311471	
3551748175000	5.007473	-0.10055647	8.331821	
3551758195000	4.981137	-0.15322891	8.2995	
3551768588000	4.984728	-0.21547815	8.297106	
3551778134000	5.023035	-0.260968	8.311471	
3551788468000	5.011064	-0.25737667	8.2516165	
3551798106000	5.0385976	-0.23702596	8.231265	
3551808246000	5.0254292	-0.22984336	8.281544	
3551818610000	5.011064	-0.22146365	8.313866	
3551828216000	4.9679685	-0.15442601	8.352173	
3551838308000	4.9763484	-0.1364695	8.289924	
3551848249000	4.975151	-0.1604115	8.291121	
3551858233000	5.0302176	-0.18195933	8.275558	
3551868403000	5.009867	-0.20350714	8.2516165	
3551878167000	5.01705	-0.17477672	8.232463	
3551888233000	5.0026846	-0.17956513	8.261193	
3551898260000	4.972757	-0.17836803	8.265982	
3551908242000	4.9763484	-0.19752164	8.173804	
3551918245000	4.9823337	-0.22625206	8.197746	
3551928316000	4.984728	-0.21667525	8.1797905	
3551938276000	5.0062757	-0.21308395	8.1319065	
3551948240000	4.973954	-0.23582886	8.243237	
3551958158000	4.924873	-0.22744916	8.178593	
3551968163000	4.911705	-0.20829555	8.182184	
3551978096000	4.892551	-0.18076223	8.283937	
3551988128000	4.8985367	-0.15682021	8.298303	
3551998182000	4.936844	-0.15801731	8.376115	
3552008152000	4.9655743	-0.16400282	8.441956	
3552018089000	4.9943047	-0.19632454	8.37013	
3552028084000	5.0374002	-0.2645593	8.402451	
3552038090000	5.043386	-0.28491	8.4347725	
3552048083000	5.0122614	-0.2789245	8.367735	
3552058091000	4.97156	-0.25617957	8.324639	
3552068786000	4.921282	-0.17956513	8.395268	
3552078076000	4.892551	-0.11971009	8.391677	
3552088281000	4.88058	-0.09696517	8.300697	
3552098062000	4.903325	-0.095768064	8.347384	
3552108319000	4.9200845	-0.12330139	8.418014	
3552118090000	4.9344497	-0.11851298	8.447941	
3552128107000	4.960786	-0.15083471	8.516175	
3552138428000	4.9583917	-0.20350714	8.519767	
3552148188000	4.993108	-0.23702596	8.457518	
3552158084000	5.0002904	-0.2825158	8.416816	
3552168107000	4.9919105	-0.29568392	8.356961	
3552178110000	4.9667716	-0.25019407	8.317456	
3552188131000	4.9200845	-0.24779987	8.285135	
3552198081000	4.8722005	-0.21906945	8.24563	
3552208622000	4.8602295	-0.21547815	8.238448	
3552218175000	4.859032	-0.24420857	8.2516165	
3552228105000	4.8698063	-0.2753332	8.244433	
3552238194000	4.8614264	-0.30885202	8.264784	
3552248128000	4.894945	-0.30406362	8.342596	
3552258220000	4.8841715	-0.29568392	8.437167	
3552268182000	4.876989	-0.2669535	8.280347	
3552278050000	4.8973393	-0.24061728	8.230068	
3552288373000	4.909311	-0.19273324	8.329428	
3552298184000	4.8961425	-0.110133275	8.340201	
3552308403000	4.911705	-0.053869538	8.291121	
3552318150000	4.92607	-0.049081136	8.330625	
3552328089000	4.948815	-0.05865794	8.395268	
3552338074000	4.999093	-0.12330139	8.392874	
3552348098000	5.0038815	-0.18794483	8.459911	
3552358042000	4.987122	-0.16998832	8.416816	
3552368262000	4.9464207	-0.18914193	8.37372	
3552378160000	4.923676	-0.20829555	8.395268	
3552388164000	4.891354	-0.21906945	8.4347725	
3552398223000	4.8853683	-0.22864626	8.400057	
3552408133000	4.876989	-0.23702596	8.42759	
3552418361000	4.8626237	-0.22505496	8.437167	
3552428307000	4.7776294	-0.21547815	8.505402	
3552438345000	4.8159366	-0.24301147	8.548497	
3552448532000	4.8027687	-0.3184288	8.53054	
3552458628000	4.8374844	-0.36272156	8.408437	
3552468420000	4.8279076	-0.40701428	8.416816	
3552478148000	4.7896004	-0.4381389	8.516175	
3552488291000	4.76087	-0.40462008	8.544906	
3552498186000	4.72376	-0.34715924	8.421604	
3552508372000	4.710592	-0.2825158	8.378509	
3552518664000	4.7285485	-0.2801216	8.465898	
3552529151000	4.7524905	-0.31603462	8.431181	
3552538225000	4.7896004	-0.37229836	8.335413	
3552548519000	4.820725	-0.40222588	8.3868885	
3552558128000	4.8386817	-0.3890578	8.365341	
3552568189000	4.818331	-0.39145198	8.306683	
3552578112000	4.805163	-0.3866636	8.318654	
3552588533000	4.7764325	-0.35913026	8.327033	
3552598068000	4.772841	-0.29328972	8.310274	
3552608119000	4.763264	-0.22026655	8.287529	
3552618532000	4.763264	-0.20709845	8.273164	
3552650224000	4.8267107	-0.17118542	8.333019	
3552650224000	4.8267107	-0.17118542	8.333019	
3552650224000	4.8267107	-0.17118542	8.333019	
3552658523000	4.8578353	-0.19991584	8.423999	
3552668142000	4.8817773	-0.25378537	8.413225	
3552678626000	4.8901567	-0.32202014	8.39048	
3552688409000	4.879383	-0.33159694	8.432379	
3552698053000	4.853047	-0.31004912	8.468291	
3552708098000	4.781221	-0.28491	8.453926	
3552718679000	4.7381253	-0.24301147	8.453926	
3552728111000	4.747702	-0.21906945	8.461109	
3552738255000	4.734534	-0.2681506	8.607155	
3552748569000	4.8039656	-0.30047232	8.565256	
3552758093000	4.7896004	-0.37229836	8.4587145	
3552768231000	4.832696	-0.36152446	8.395268	
3552778146000	4.7907977	-0.3866636	8.432379	
3552788647000	4.783615	-0.34237084	8.511387	
3552798052000	4.7896004	-0.3172317	8.476671	
3552808182000	4.763264	-0.3184288	8.4108305	
3552818845000	4.7405195	-0.33997664	8.367735	
3552828192000	4.727351	-0.33997664	8.397662	
3552838287000	4.7309427	-0.33518824	8.420407	
3552848228000	4.7285485	-0.32680854	8.365341	
3552858304000	4.7189717	-0.34476504	8.3390045	
3552869033000	4.7548847	-0.44532153	8.374918	
3552878200000	4.7548847	-0.44532153	8.374918	
3552889326000	4.781221	-0.36631286	8.397662	
3552898097000	4.781221	-0.36631286	8.3868885	
3552909581000	4.772841	-0.31004912	8.37372	
3552918616000	4.7740383	-0.2908955	8.379706	
3552928214000	4.787206	-0.272939	8.354567	
3552938126000	4.8123455	-0.2705448	8.403648	
3552948262000	4.84347	-0.2669535	8.415619	
3552958064000	4.88058	-0.25977087	8.39886	
3552968186000	4.9021277	-0.2765303	8.416816	
3552978075000	4.891354	-0.2813187	8.389283	
3552988753000	4.868609	-0.23463176	8.334216	
3552998601000	4.8458643	-0.20350714	8.4108305	
3553008195000	4.8099513	-0.19393034	8.431181	
3553018571000	4.807557	-0.20470424	8.384495	
3553028207000	4.7656584	-0.20231004	8.444349	
3553038247000	4.7740383	-0.16639702	8.4347725	
3553048231000	4.784812	-0.23223756	8.408437	
3553058187000	4.819528	-0.30166942	8.455123	
3553068739000	4.8338933	-0.3878607	8.499416	
3553078114000	4.84347	-0.427365	8.471883	
3553089106000	4.818331	-0.4189853	8.441956	
3553098134000	4.7620673	-0.39264908	8.500613	
3553108558000	4.7405195	-0.3842694	8.536526	
3553118270000	4.7285485	-0.3866636	8.499416	
3553128797000	4.7297454	-0.39743748	8.468291	
3553138427000	4.7297454	-0.3866636	8.420407	
3553148568000	4.7081976	-0.3866636	8.3821	
3553158397000	4.712986	-0.37948096	8.412027	
3553168111000	4.722563	-0.40462008	8.396465	
3553178123000	4.71538	-0.41180268	8.37013	
3553188854000	4.6938324	-0.40102878	8.346188	
3553198619000	4.667496	-0.37708676	8.333019	
3553208750000	4.6483426	-0.35434186	8.376115	
3553218821000	4.6519337	-0.32561144	8.404845	
3553228238000	4.6722846	-0.34237084	8.441956	
3553238230000	4.6950297	-0.35793316	8.476671	
3553248222000	4.7405195	-0.37828386	8.505402	
3553258116000	4.7620673	-0.3842694	8.450335	
3553268288000	4.7907977	-0.37229836	8.412027	
3553278112000	4.811148	-0.34237084	8.429984	
3553288105000	4.7919946	-0.31364042	8.453926	
3553298187000	4.7740383	-0.29448682	8.414422	
3553308192000	4.7309427	-0.2717419	8.380903	
3553319005000	4.6938324	-0.2693477	8.415619	
3553329119000	4.673482	-0.29328972	8.51019	
3553338569000	4.64116	-0.32441434	8.51019	
3553349183000	4.6124296	-0.4177882	8.520964	
3553358337000	4.6124296	-0.4177882	8.520964	
3553368601000	4.638766	-0.50278234	8.498219	
3553379227000	4.6363716	-0.49679685	8.536526	
3553388242000	4.6279917	-0.48003745	8.553286	
3553398116000	4.5872903	-0.45250413	8.572439	
3553408149000	4.55856	-0.40462008	8.598776	
3553418109000	4.5394063	-0.4165911	8.603564	
3553428255000	4.547786	-0.44532153	8.65025	
3553438117000	4.5765166	-0.48003745	8.623915	
3553448154000	4.542998	-0.50876784	8.622718	
3553458067000	4.547786	-0.51116204	8.632295	
3553468212000	4.5561657	-0.51475334	8.632295	
3553478419000	4.569334	-0.50278234	8.599973	
3553488145000	4.5394063	-0.47644615	8.584411	
3553498104000	4.51307	-0.439336	8.513782	
3553508182000	4.5022964	-0.427365	8.553286	
3553518201000	4.5058875	-0.44532153	8.595184	
3553528145000	4.5118732	-0.46088383	8.546103	
3553538115000	4.525041	-0.49081135	8.4826565	
3553548544000	4.5262384	-0.51714754	8.580819	
3553558131000	4.52145	-0.5315128	8.580819	
3553569259000	4.5058875	-0.51834464	8.495825	
3553578060000	4.473566	-0.51116204	8.540117	
3553588174000	4.4580035	-0.49320555	8.611943	
3553598184000	4.459201	-0.50158525	8.586804	
3553608105000	4.4484267	-0.51714754	8.559271	
3553618198000	4.4436383	-0.48722005	8.617929	
3553628358000	4.4568067	-0.46327803	8.626308	
3553638093000	4.507085	-0.49679685	8.611943	
3553649065000	4.546589	-0.5231331	8.628703	
3553658876000	4.507085	-0.5327099	8.6334915	
3553668239000	4.5022964	-0.5602432	8.566454	
3553679774000	4.408922	-0.58897364	8.579621	
3553688340000	4.5166616	-0.49081135	8.5700445	
3553698144000	4.4939165	-0.51714754	8.611943	
3553708143000	4.489128	-0.5351041	8.591593	
3553718505000	4.4927197	-0.5506664	8.554482	
3553728138000	4.554969	-0.44891283	8.498219	
3553738060000	4.533421	-0.4381389	8.470686	
3553748081000	4.571728	-0.41180268	8.488642	
3553758068000	4.581305	-0.4345476	8.513782	
3553768115000	4.5896845	-0.427365	8.500613	
3553778202000	4.594473	-0.4237737	8.47308	
3553788163000	4.570531	-0.4321534	8.50181	
3553798144000	4.537012	-0.39504328	8.522161	
3553808428000	4.5082817	-0.36511576	8.531737	
3553818121000	4.5058875	-0.39145198	8.584411	
3553828152000	4.5286326	-0.44532153	8.60117	
3553838158000	4.5178585	-0.51834464	8.560468	
3553848220000	4.4927197	-0.545878	8.582016	
3553858055000	4.4759603	-0.5434838	8.579621	
3553868488000	4.4340615	-0.5231331	8.541314	
3553878083000	4.425682	-0.49081135	8.48984	
3553888130000	4.4101195	-0.45010993	8.628703	
3553898105000	4.4484267	-0.46327803	8.677784	
3553908178000	4.5118732	-0.51355624	8.65025	
3553918072000	4.531027	-0.5746084	8.541314	
3553928240000	4.5513773	-0.59256494	8.572439	
3553938160000	4.569334	-0.5674258	8.716091	
3553948258000	4.5274353	-0.51475334	8.750807	
3553958175000	4.51307	-0.49320555	8.668207	
3553968225000	4.5274353	-0.46567222	8.596381	
3553978044000	4.52145	-0.47644615	8.593987	
3553988586000	4.5178585	-0.49081135	8.617929	
3553998153000	4.5166616	-0.49919105	8.573636	
3554008188000	4.507085	-0.46567222	8.558074	
3554018465000	4.5154643	-0.4345476	8.552089	
3554028439000	4.5142674	-0.40581718	8.597578	
3554038457000	4.531027	-0.39743748	8.567651	
3554048138000	4.5501804	-0.4177882	8.584411	
3554058730000	4.569334	-0.4345476	8.611943	
3554068405000	4.571728	-0.48961425	8.6334915	
3554079486000	4.5525746	-0.5410896	8.619126	
3554088411000	4.5441947	-0.5734113	8.542512	
3554098702000	4.519056	-0.51355624	8.572439	
3554108160000	4.507085	-0.48841715	8.574833	
3554118068000	4.477157	-0.46806642	8.583213	
3554128079000	4.4723687	-0.4405331	8.588001	
3554138070000	4.4687777	-0.45609543	8.631097	
3554148266000	4.4879313	-0.46447513	8.616732	
3554158166000	4.51307	-0.52073884	8.543709	
3554168746000	4.498705	-0.5638345	8.597578	
3554178053000	4.4783545	-0.5446809	8.599973	
3554188143000	4.4783545	-0.5662287	8.552089	
3554198215000	4.4723687	-0.5530606	8.616732	
3554208159000	4.4699745	-0.5327099	8.668207	
3554218179000	4.441244	-0.557849	8.714894	
3554228255000	4.4807487	-0.545878	8.652645	
3554238228000	4.483143	-0.5374983	8.576031	
3554248162000	4.5142674	-0.5267244	8.608353	
3554258240000	4.5142674	-0.50517654	8.651448	
3554268657000	4.4568067	-0.5374983	8.576031	
3554278601000	4.4113164	-0.5386954	8.559271	
3554288687000	4.4879313	-0.48602295	8.5700445	
3554298221000	4.4544125	-0.50876784	8.5700445	
3554308216000	4.4963107	-0.49799395	8.4647	
3554319146000	4.5262384	-0.58897364	8.48146	
3554328404000	4.5561657	-0.62488663	8.495825	
3554338302000	4.5418005	-0.6607997	8.397662	
3554348889000	4.531027	-0.6500258	8.289924	
3554358143000	4.4927197	-0.61291564	8.310274	
3554368536000	4.462792	-0.59256494	8.366538	
3554378105000	4.4424415	-0.5542577	8.325836	
3554388463000	4.429273	-0.49200845	8.343793	
3554398078000	4.3957543	-0.44771573	8.42759	
3554408113000	4.4364557	-0.4249708	8.485051	
3554418439000	4.474763	-0.48362875	8.595184	
3554428121000	4.5046906	-0.5303157	8.59279	
3554438104000	4.5298295	-0.59256494	8.497022	
3554448177000	4.5322237	-0.59615624	8.532935	
3554458124000	4.519056	-0.5446809	8.614338	
3554468084000	4.4699745	-0.47285482	8.583213	
3554478103000	4.4580035	-0.4213795	8.5700445	
3554488218000	4.449624	-0.3866636	8.663419	
3554498124000	4.4663835	-0.35673606	8.664616	
3554508218000	4.510676	-0.427365	8.572439	
3554518472000	4.5418005	-0.50038815	8.665813	
3554528189000	4.560954	-0.5279215	8.686164	
3554538210000	4.5166616	-0.5398925	8.63828	
3554548813000	4.495114	-0.50038815	8.637083	
3554558083000	4.4687777	-0.45370123	8.66701	
3554568168000	4.406528	-0.44651863	8.723274	
3554578184000	4.382586	-0.4309563	8.707711	
3554588503000	4.4424415	-0.41180268	8.577228	
3554598366000	4.423288	-0.48602295	8.604761	
3554608522000	4.429273	-0.51834464	8.6334915	
3554618161000	4.4460325	-0.521936	8.611943	
3554628150000	4.4675803	-0.47884035	8.595184	
3554638467000	4.4723687	-0.4381389	8.580819	
3554648856000	4.4568067	-0.40342298	8.627506	
3554658137000	4.449624	-0.4297592	8.634688	
3554668424000	4.474763	-0.46208093	8.656237	
3554693560000	4.462792	-0.5386954	8.614338	
3554693560000	4.462792	-0.5386954	8.614338	
3554708537000	4.4568067	-0.533907	8.635885	
3554718528000	4.4220905	-0.50278234	8.652645	
3554728109000	4.414908	-0.4441244	8.615535	
3554738093000	4.394557	-0.40342298	8.578424	
3554748115000	4.4364557	-0.38067806	8.602366	
3554758190000	4.4364557	-0.45968673	8.582016	
3554768161000	4.462792	-0.48961425	8.616732	
3554778227000	4.486734	-0.51475334	8.635885	
3554788737000	4.4340615	-0.5386954	8.608353	
3554798147000	4.3981485	-0.50757074	8.588001	
3554808145000	4.373009	-0.46208093	8.556877	
3554818073000	4.3658266	-0.4225766	8.584411	
3554828193000	4.392163	-0.45489833	8.579621	
3554838054000	4.4328647	-0.50757074	8.60117	
3554849377000	4.4580035	-0.5303157	8.598776	
3554858281000	4.471172	-0.50517654	8.573636	
3554869172000	4.462792	-0.49919105	8.6574335	
3554878109000	4.453215	-0.51355624	8.645462	
3554888178000	4.4328647	-0.50757074	8.626308	
3554898151000	4.414908	-0.47764325	8.664616	
3554908116000	4.3957543	-0.49919105	8.622718	
3554918192000	4.4101195	-0.50876784	8.580819	
3554928136000	4.4161053	-0.5255273	8.593987	
3554938192000	4.435259	-0.5410896	8.579621	
3554948160000	4.4580035	-0.5315128	8.555679	
3554958122000	4.477157	-0.51355624	8.593987	
3554969041000	4.462792	-0.50757074	8.605958	
3554979120000	4.4520183	-0.49440265	8.552089	
3554988267000	4.423288	-0.46447513	8.593987	
3554998197000	4.3993454	-0.4321534	8.653842	
3555008137000	4.3897686	-0.4369418	8.635885	
3555018220000	4.417302	-0.45130703	8.6574335	
3555028756000	4.417302	-0.47764325	8.706514	
3555038178000	4.441244	-0.48362875	8.663419	
3555048122000	4.473566	-0.5291186	8.620323	
3555058049000	4.5178585	-0.5279215	8.670602	
3555068137000	4.5154643	-0.51595044	8.65025	
3555078068000	4.5034933	-0.46926352	8.555679	
3555088094000	4.4675803	-0.4213795	8.562862	
3555098240000	4.462792	-0.40102878	8.536526	
3555108532000	4.4340615	-0.4309563	8.536526	
3555118229000	4.4316673	-0.47165772	8.529344	
3555128176000	4.459201	-0.5231331	8.523358	
3555138237000	4.4903255	-0.58897364	8.520964	
3555148165000	4.4819455	-0.62728083	8.552089	
3555158185000	4.4364557	-0.60812724	8.528147	
3555168435000	4.406528	-0.5506664	8.451532	
3555178169000	4.394557	-0.5255273	8.480263	
3555188728000	4.3754034	-0.50278234	8.524555	
3555199075000	4.3861775	-0.46926352	8.476671	
3555209121000	4.405331	-0.46686932	8.456321	
3555218191000	4.4304705	-0.49200845	8.512584	
3555228194000	4.474763	-0.5315128	8.566454	
3555238133000	4.489128	-0.5710171	8.544906	
3555248262000	4.507085	-0.61052144	8.549694	
3555258601000	4.4699745	-0.62249243	8.564059	
3555269335000	4.4316673	-0.5793968	8.568848	
3555278178000	4.3957543	-0.5590461	8.504205	
3555288209000	4.368221	-0.5363012	8.540117	
3555298206000	4.381389	-0.5243302	8.553286	
3555308897000	4.3957543	-0.5446809	8.571242	
3555318474000	4.4424415	-0.58538234	8.537724	
3555328148000	4.4580035	-0.59017074	8.555679	
3555338275000	4.4460325	-0.5662287	8.513782	
3555348096000	4.35625	-0.5590461	8.504205	
3555358170000	4.3299136	-0.5746084	8.516175	
3555368918000	4.3873744	-0.5470751	8.536526	
3555378473000	4.4125137	-0.5530606	8.51019	
3555388078000	4.425682	-0.5351041	8.591593	
3555398067000	4.4783545	-0.49200845	8.537724	
3555408602000	4.497508	-0.47764325	8.505402	
3555418468000	4.546589	-0.44651863	8.528147	
3555428825000	4.55856	-0.40342298	8.565256	
3555438218000	4.5513773	-0.33638534	8.543709	
3555448128000	4.5298295	-0.29209262	8.516175	
3555458100000	4.534618	-0.2765303	8.564059	
3555468203000	4.5621514	-0.30047232	8.6095495	
3555478678000	4.581305	-0.34476504	8.65863	
3555488845000	4.6232033	-0.33638534	8.693346	
3555498181000	4.650737	-0.32561144	8.643068	
3555508111000	4.6782703	-0.34356794	8.671799	
3555518511000	4.6926355	-0.29209262	8.684967	
3555529715000	4.619612	-0.33399114	8.63828	
3555538135000	4.673482	-0.21188685	8.643068	
3555548326000	4.6375685	-0.17597382	8.605958	
3555558308000	4.5765166	-0.1376666	8.591593	
3555568146000	4.607641	-0.07182605	8.59279	
3555578127000	4.6938324	-0.10534488	8.514978	
3555588150000	4.7046065	-0.11492168	8.656237	
3555598736000	4.787206	-0.11611878	8.552089	
3555608222000	4.799177	-0.1388637	8.559271	
3555618168000	4.7560816	-0.15682021	8.573636	
3555628186000	4.7321396	-0.12928689	8.542512	
3555638275000	4.7536874	-0.088585466	8.53892	
3555648160000	4.7381253	-0.05626374	8.537724	
3555658176000	4.7046065	-0.06344634	8.497022	
3555673292000	4.819528	-0.06344634	8.470686	
3555688710000	4.853047	-0.077811554	8.487445	
3555698700000	4.8662148	-0.11133038	8.420407	
3555708607000	4.8841715	-0.10055647	8.335413	
3555718545000	4.787206	-0.061052144	8.346188	
3555728154000	4.787206	-0.061052144	8.346188	
3555738096000	4.7536874	-0.07062895	8.325836	
3555748545000	4.7919946	-0.09935937	8.336611	
3555758142000	4.805163	-0.16160862	8.368932	
3555768215000	4.7896004	-0.21787235	8.366538	
3555778114000	4.8099513	-0.19632454	8.330625	
3555788696000	4.7860093	-0.17956513	8.330625	
3555798133000	4.8015714	-0.11133038	8.2995	
3555808093000	4.805163	-0.08379706	8.279149	
3555818102000	4.8482585	-0.092176765	8.256405	
3555828210000	4.8877625	-0.1448492	8.306683	
3555838126000	4.935647	-0.17357962	8.327033	
3555848083000	4.9176903	-0.19393034	8.2995	
3555858272000	4.9164934	-0.14604631	8.243237	
3555868681000	4.8877625	-0.110133275	8.264784	
3555878357000	4.8841715	-0.062249243	8.337808	
3555888228000	4.8901567	-0.055066638	8.360553	
3555898243000	4.8722005	-0.073023155	8.4108305	
3555908276000	4.9344497	-0.05626374	8.347384	
3555918161000	4.9200845	-0.053869538	8.354567	
3555929204000	4.9188876	-0.050278235	8.303091	
3555938168000	4.927267	-0.06344634	8.282741	
3555948287000	4.9081135	-0.06823475	8.324639	
3555958547000	4.973954	-0.0011971008	8.356961	
3555968691000	5.021838	0.035913024	8.329428	
3555978107000	5.019444	0.005985504	8.340201	
3555988194000	5.0374002	0.017956512	8.333019	
3555998801000	5.052963	0.027533319	8.328231	
3556008136000	5.0421886	0.073023155	8.343793	
3556018905000	5.01705	0.093373865	8.281544	
3556028618000	4.996699	0.074220255	8.311471	
3556038699000	5.0278234	0.034715924	8.379706	
3556048239000	5.0374002	0.009576807	8.37013	
3556058112000	5.0302176	0.023942016	8.348581	
3556068106000	5.01705	0.050278235	8.341399	
3556078069000	5.0038815	0.077811554	8.330625	
3556088499000	5.0134583	0.059855044	8.346188	
3556098101000	5.0134583	0.039504327	8.37013	
3556108959000	5.019444	0.008379706	8.271967	
3556118045000	5.005079	-0.02633622	8.190564	
3556128132000	5.0038815	-0.038307227	8.295909	
3556138534000	5.01705	-0.061052144	8.318654	
3556148191000	5.021838	-0.08259996	8.25401	
3556158154000	5.033809	-0.021547815	8.226477	
3556168098000	5.0493712	0.029927522	8.25401	
3556178171000	5.0864816	0.090979666	8.297106	
3556188100000	5.105635	0.1376666	8.346188	
3556198031000	5.1439424	0.15322891	8.2995	
3556208097000	5.1642933	0.12928689	8.212111	
3556218044000	5.151125	0.19153613	8.208521	
3556228335000	5.1247888	0.21906945	8.268375	
3556238077000	5.149928	0.2789245	8.025364	
3556248280000	5.2840033	0.5255273	5.9041014	
3556258143000	5.318719	0.6703765	6.68102	
3556268504000	5.149928	0.36990416	8.331821	
3556278054000	5.2421045	0.19393034	8.833407	
3556288082000	5.094861	-0.22864626	9.081207	
3556298692000	5.197812	-0.5267244	9.022549	
3556308085000	5.471948	-0.30047232	8.728063	
3556318080000	5.4767365	0.06344634	8.1642275	
3556328117000	5.0421886	0.095768064	7.4088573	
3556338234000	4.936844	0.11851298	7.9966335	
3556348232000	5.21098	0.3854665	9.139865	
3556358115000	5.088876	0.2837129	8.911219	
3556368103000	5.2169657	0.37229836	8.475474	
3556388172000	5.151125	0.16160862	8.579621	
3556388172000	5.151125	0.16160862	8.579621	
3556398034000	5.17387	0.094570965	8.495825	
3556408517000	5.303157	0.06464344	8.297106	
3556418038000	5.142745	0.015562311	8.256405	
3556428127000	5.0601454	0.046686932	8.221688	
3556438036000	5.0493712	0.08259996	8.200141	
3556458147000	4.997896	-0.010773907	8.192958	
3556468125000	5.009867	-0.046686932	8.15106	
3556468125000	5.009867	-0.046686932	8.15106	
3556478090000	5.0182467	-0.05746084	8.127118	
3556488200000	5.01705	-0.05626374	8.148665	
3556498097000	5.0062757	-0.061052144	8.190564	
3556508321000	5.01705	-0.05746084	8.184579	
3556518208000	5.0397944	-0.039504327	8.202535	
3556528538000	5.0397944	-0.02633622	8.246828	
3556538062000	5.035006	-0.007182605	8.252813	
3556548116000	5.009867	0.005985504	8.204929	
3556558175000	5.007473	-0.01436521	8.154651	
3556568074000	4.997896	-0.02633622	8.143877	
3556578069000	5.04578	-0.021547815	8.106767	
3556588171000	5.064934	-0.0035913025	8.109161	
3556598121000	5.092467	0.011971008	8.1881695	
3556608223000	5.0996494	0.027533319	8.2037325	
3556620093000	5.0721164	0.053869538	8.230068	
3556628179000	5.0721164	0.053869538	8.230068	
3556638065000	5.056554	0.088585466	8.185776	
3556648165000	5.032612	0.11611878	8.169016	
3556658137000	5.0517654	0.088585466	8.244433	
3556668324000	5.081693	0.050278235	8.2995	
3556678953000	5.1235914	0.016759412	8.244433	
3556688128000	5.104438	0.023942016	8.336611	
3556698070000	5.115212	0.055066638	8.368932	
3556708129000	5.093664	0.055066638	8.346188	
3556718075000	5.104438	0.046686932	8.324639	
3556728207000	5.0876784	0.059855044	8.371326	
3556738180000	5.0745106	0.08020575	8.371326	
3556748181000	5.069722	0.06823475	8.329428	
3556758182000	5.040992	0.034715924	8.352173	
3556768097000	5.0397944	0.023942016	8.274361	
3556778059000	5.0266266	0.049081136	8.275558	
3556788210000	5.035006	0.08738836	8.285135	
3556798160000	5.052963	0.10654198	8.230068	
3556808712000	5.0613422	0.08140286	8.248025	
3556818300000	5.094861	0.04189853	8.250419	
3556828207000	5.085284	0.01316811	8.309077	
3556838476000	5.0541596	0.019153614	8.336611	
3556848377000	4.9895163	0.034715924	8.277952	
3556858133000	4.981137	0.02633622	8.285135	
3556868336000	4.983531	-0.02873042	8.341399	
3556878308000	4.995502	-0.073023155	8.318654	
3556888201000	5.00867	-0.06943185	8.294712	
3556898265000	4.9823337	-0.022744916	8.319851	
3556910194000	4.9679685	0.017956512	8.283937	
3556923237000	4.9787426	0.031124622	8.325836	
3556938351000	4.961983	-0.029927522	8.289924	
3556948178000	5.0541596	0.008379706	8.221688	
3556958325000	5.009867	-0.05865794	8.264784	
3556968200000	5.0014873	-0.044292733	8.285135	
3556978128000	4.9907136	-0.04309563	8.282741	
3556988860000	4.947618	-0.05267244	8.289924	
3556998088000	4.9536033	-0.038307227	8.283937	
3557008668000	4.948815	-0.06464344	8.293514	
3557018127000	4.9428296	-0.076614454	8.367735	
3557028127000	4.945224	-0.095768064	8.27077	
3557038074000	4.9188876	-0.10534488	8.2516165	
3557048764000	4.938041	-0.10175357	8.310274	
3557064177000	4.9081135	-0.08738836	8.34499	
3557078199000	4.8997335	-0.049081136	8.412027	
3557088472000	4.927267	-0.075417355	8.446744	
3557098134000	4.8973393	-0.09696517	8.41921	
3557108194000	4.894945	-0.1316811	8.385692	
3557118250000	4.882974	-0.1364695	8.446744	
3557128195000	4.853047	-0.12569559	8.459911	
3557138261000	4.8458643	-0.088585466	8.4587145	
3557148180000	4.8817773	-0.05865794	8.468291	
3557158161000	4.9559975	-0.08140286	8.413225	
3557168277000	5.00867	-0.10414778	8.371326	
3557178259000	5.0158525	-0.093373865	8.450335	
3557188516000	4.8997335	-0.061052144	8.36175	
3557198184000	4.8853683	0.049081136	8.35337	
3557208563000	4.8386817	0.074220255	8.443152	
3557218217000	4.8506527	0.033518825	8.394072	
3557228155000	4.88058	-0.022744916	8.371326	
3557239142000	4.923676	-0.074220255	8.360553	
3557248175000	4.945224	-0.08379706	8.336611	
3557258915000	4.933253	-0.08619126	8.343793	
3557268261000	4.911705	-0.06464344	8.349778	
3557278352000	4.892551	-0.038307227	8.426393	
3557288412000	4.844667	-0.017956512	8.421604	
3557298273000	4.83509	-0.033518825	8.346188	
3557308457000	4.8219223	-0.088585466	8.36175	
3557318708000	4.830302	-0.17118542	8.376115	
3557328707000	4.871003	-0.20709845	8.37013	
3557338066000	4.8745947	-0.22266077	8.376115	
3557348139000	4.8722005	-0.17597382	8.378509	
3557358087000	4.8219223	-0.095768064	8.347384	
3557368112000	4.7644615	-0.034715924	8.289924	
3557378099000	4.7764325	-0.017956512	8.327033	
3557388082000	4.8147397	-0.044292733	8.407239	
3557398554000	4.8494554	-0.11492168	8.447941	
3557408148000	4.8698063	-0.14604631	8.349778	
3557418217000	4.8817773	-0.19991584	8.279149	
3557428322000	4.9057193	-0.21308395	8.2995	
3557438164000	4.8578353	-0.17717093	8.3868885	
3557448248000	4.80636	-0.12210429	8.371326	
3557458477000	4.8374844	-0.05865794	8.275558	
3557468622000	4.8255134	-0.06464344	8.3821	
3557478203000	4.80636	-0.08140286	8.346188	
3557488162000	4.8279076	-0.049081136	8.274361	
3557498191000	4.8135424	-0.049081136	8.252813	
3557508162000	4.7800236	-0.108936176	8.3390045	
3557518927000	4.8255134	-0.08020575	8.414422	
3557528370000	4.8255134	-0.10175357	8.309077	
3557538325000	4.8267107	-0.110133275	8.239645	
3557548266000	4.817134	-0.055066638	8.304289	
3557558367000	4.9081135	0.023942016	8.305486	
3557568266000	4.8578353	-0.02873042	8.3629465	
3557578309000	4.9164934	0.025139118	8.312668	
3557588281000	4.914099	-0.029927522	8.277952	
3557599203000	4.8937483	-0.04309563	8.388085	
3557608917000	4.8602295	-0.053869538	8.323442	
3557618464000	4.8494554	-0.045489833	8.349778	
3557628797000	4.853047	-0.049081136	8.413225	
3557638673000	4.8853683	-0.023942016	8.440758	
3557648252000	4.903325	0.005985504	8.422802	
3557678928000	4.8518496	0.025139118	8.400057	
3557678928000	4.8518496	0.025139118	8.400057	
3557678928000	4.8518496	0.025139118	8.400057	
3557689584000	4.856638	0.025139118	8.395268	
3557698154000	4.8243165	-0.010773907	8.476671	
3557708140000	4.8506527	-0.017956512	8.497022	
3557718457000	4.8518496	-0.05267244	8.457518	
3557728181000	4.8458643	-0.039504327	8.467094	
3557738052000	4.8398786	-0.034715924	8.4108305	
3557749019000	4.8518496	-0.020350715	8.359355	
3557758113000	4.829105	0.005985504	8.377312	
3557768086000	4.8219223	0.007182605	8.342596	
3557778070000	4.7979803	-0.019153614	8.331821	
3557788110000	4.7764325	-0.01316811	8.3150625	
3557798091000	4.757279	0.005985504	8.334216	
3557808233000	4.7740383	0.0023942017	8.36175	
3557818195000	4.7680526	-0.005985504	8.39886	
3557828567000	4.7896004	-0.05626374	8.409634	
3557838045000	4.8039656	-0.11252748	8.396465	
3557848108000	4.819528	-0.11731588	8.416816	
3557858436000	4.795586	-0.07182605	8.4587145	
3557868151000	4.7800236	0.01316811	8.540117	
3557878111000	4.7524905	0.06464344	8.53054	
3557888562000	4.746505	0.045489833	8.495825	
3557898161000	4.783615	-0.0011971008	8.48984	
3557908557000	4.8219223	-0.05267244	8.554482	
3557918128000	4.856638	-0.05865794	8.514978	
3557929028000	4.868609	-0.033518825	8.463503	
3557938186000	4.856638	-0.016759412	8.487445	
3557948635000	4.8374844	0.029927522	8.494628	
3557958322000	4.8386817	0.094570965	8.469488	
3557968156000	4.8099513	0.10295067	8.435969	
3557978552000	4.805163	0.12090719	8.4347725	
3557988683000	4.8135424	0.09696517	8.465898	
3557998163000	4.832696	0.076614454	8.471883	
3558008549000	4.8458643	0.06943185	8.426393	
3558018390000	4.88896	0.05626374	8.422802	
3558028910000	4.9021277	0.02873042	8.418014	
3558038471000	4.891354	-0.01316811	8.39048	
3558048200000	4.8602295	-0.015562311	8.388085	
3558058098000	4.795586	-0.005985504	8.400057	
3558068625000	4.7548847	0.020350715	8.359355	
3558078455000	4.7309427	0.01316811	8.4587145	
3558088072000	4.7165775	-0.0035913025	8.4587145	
3558098066000	4.72376	-0.02873042	8.333019	
3558108203000	4.7740383	-0.24540567	7.835025	
3558118152000	4.7800236	-0.09816227	7.7943234	
3558128165000	4.71538	-0.07182605	8.003817	
3558138072000	4.699818	-0.21667525	7.8996687	
3558158136000	4.6459484	-0.28491	8.228871	
3558158136000	4.6459484	-0.28491	8.228871	
3558168086000	4.546589	-0.22026655	8.520964	
3558178078000	4.6962266	0.077811554	8.844181	
3558188087000	4.6926355	0.40342298	9.027337	
3558198030000	4.6351743	0.29688102	8.963891	
3558208181000	4.8542438	0.2705448	8.5473	
3558218122000	4.8578353	0.17717093	8.420407	
3558228262000	4.947618	0.11372458	8.467094	
3558238082000	4.8722005	0.09696517	8.616732	
3558258078000	4.8638206	0.19033903	8.604761	
3558258078000	4.8638206	0.19033903	8.604761	
3558268071000	4.8841715	0.18195933	8.6334915	
3558278021000	4.856638	0.1592144	8.637083	
3558288079000	4.8386817	0.094570965	8.5700445	
3558298086000	4.832696	0.053869538	8.485051	
3558308085000	4.8135424	0.06344634	8.423999	
3558318066000	4.793192	0.08379706	8.397662	
3558328690000	4.770447	0.092176765	8.425196	
3558338181000	4.72376	0.08379706	8.439561	
3558348054000	4.689044	0.053869538	8.413225	
3558358101000	4.663905	0.016759412	8.435969	
3558368091000	4.6363716	-0.04189853	8.51857	
3558378124000	4.643554	-0.090979666	8.558074	
3558388091000	4.6579194	-0.12928689	8.535329	
