# OpenSignals Text File Format
# {"00:07:80:4D:2E:AD": {"sensor": ["EMG", "EMG", "XYZ"], "device name": "00:07:80:4D:2E:AD", "column": ["nSeq", "DI", "CH1", "CH2", "CH3"], "sync interval": 2, "time": "15:26:22.578", "comments": "no action | ch1_flexor_digitorum_superficialis ch2_aductor_policis ch3_acc_z [trial 1]", "device connection": "BTH00:07:80:4D:2E:AD", "channels": [1, 2, 3], "keywords": "", "mode": 0, "digital IO": [0, 1], "firmware version": 773, "device": "biosignalsplux", "position": 0, "sampling rate": 1000, "label": ["CH1", "CH2", "CH3"], "resolution": [16, 16, 16], "date": "2019-1-23", "special": [{}, {}, {}]}}
# EndOfHeader
0	0	32816	32647	35932	
1	0	32740	32750	35940	
2	0	32752	32785	35934	
3	0	32736	32866	35928	
4	0	32720	32810	35924	
5	0	32724	32812	35905	
6	0	32801	32887	35916	
7	0	32744	32884	35904	
8	0	32800	32904	35928	
9	0	32836	32953	35932	
10	0	32820	32944	35928	
11	0	32826	32932	35937	
12	0	32844	32980	35910	
13	0	32824	33017	35945	
14	0	32836	32892	35943	
15	0	32792	32773	35924	
16	0	32802	32800	35925	
17	0	32732	32725	35908	
18	0	32848	32632	35926	
19	0	32818	32553	35929	
20	0	32740	32636	35936	
21	0	32760	32717	35944	
22	0	32754	32709	35941	
23	0	32784	32754	35932	
24	0	32680	32809	35920	
25	0	32761	32888	35951	
26	0	32720	32886	35952	
27	0	32740	32834	35940	
28	0	32781	32932	35906	
29	0	32852	32957	35908	
30	0	32816	32984	35914	
31	0	32764	33006	35912	
32	0	32828	32895	35915	
33	0	32880	32925	35920	
34	0	32832	32926	35917	
35	0	32878	32878	35940	
36	0	32812	32817	35933	
37	0	32800	32637	35935	
38	0	32768	32647	35942	
39	0	32748	32666	35934	
40	0	32734	32716	35929	
41	0	32728	32677	35928	
42	0	32704	32720	35917	
43	0	32766	32804	35910	
44	0	32700	32732	35917	
45	0	32722	32816	35913	
46	0	32752	32894	35912	
47	0	32772	32866	35892	
48	0	32832	32880	35910	
49	0	32797	32865	35919	
50	0	32744	32940	35942	
51	0	32832	32992	35932	
52	0	32834	32982	35905	
53	0	32824	32937	35901	
54	0	32876	32924	35910	
55	0	32832	32840	35916	
56	0	32836	32805	35929	
57	0	32800	32836	35923	
58	0	32777	32816	35924	
59	0	32824	32698	35944	
60	0	32785	32684	35941	
61	0	32730	32756	35930	
62	0	32712	32856	35925	
63	0	32756	32852	35932	
64	0	32762	32751	35936	
65	0	32768	32876	35917	
66	0	32776	32861	35931	
67	0	32792	32908	35924	
68	0	32733	32836	35904	
69	0	32854	32868	35909	
70	0	32878	32823	35900	
71	0	32860	32902	35900	
72	0	32816	32988	35899	
73	0	32772	33008	35885	
74	0	32820	32937	35904	
75	0	32793	32825	35904	
76	0	32829	32804	35924	
77	0	32816	32772	35942	
78	0	32828	32660	35956	
79	0	32760	32578	35956	
80	0	32764	32636	35956	
81	0	32792	32668	35957	
82	0	32744	32704	35969	
83	0	32750	32844	35957	
84	0	32728	32809	35929	
85	0	32804	32822	35940	
86	0	32872	32769	35916	
87	0	32752	32800	35924	
88	0	32808	32900	35916	
89	0	32792	32996	35908	
90	0	32756	32972	35910	
91	0	32814	32967	35914	
92	0	32854	32980	35924	
93	0	32837	33052	35921	
94	0	32762	32882	35948	
95	0	32836	32901	35932	
96	0	32818	32800	35942	
97	0	32816	32778	35949	
98	0	32784	32781	35928	
99	0	32736	32749	35944	
100	0	32796	32621	35956	
101	0	32716	32728	35932	
102	0	32736	32775	35946	
103	0	32717	32804	35962	
104	0	32775	32833	35940	
105	0	32754	32926	35928	
106	0	32740	32838	35924	
107	0	32730	32873	35924	
108	0	32756	32893	35928	
109	0	32761	32957	35924	
110	0	32812	32906	35932	
111	0	32832	32868	35913	
112	0	32826	32964	35906	
113	0	32829	32938	35910	
114	0	32862	32788	35924	
115	0	32849	32803	35908	
116	0	32832	32736	35912	
117	0	32808	32786	35900	
118	0	32768	32732	35926	
119	0	32800	32729	35928	
120	0	32764	32692	35921	
121	0	32764	32745	35932	
122	0	32782	32880	35928	
123	0	32702	32841	35941	
124	0	32684	32823	35948	
125	0	32756	32793	35944	
126	0	32756	32903	35936	
127	0	32740	32871	35925	
128	0	32724	32967	35928	
129	0	32788	32948	35946	
130	0	32838	32904	35933	
131	0	32834	32940	35941	
132	0	32782	32948	35936	
133	0	32816	32916	35896	
134	0	32828	32902	35889	
135	0	32798	32795	35908	
136	0	32845	32806	35934	
137	0	32756	32740	35936	
138	0	32752	32756	35942	
139	0	32776	32668	35960	
140	0	32752	32645	35960	
141	0	32800	32777	35972	
142	0	32736	32732	35965	
143	0	32730	32760	35988	
144	0	32696	32894	35960	
145	0	32776	32806	35941	
146	0	32733	32864	35932	
147	0	32764	32927	35912	
148	0	32809	32936	35912	
149	0	32804	32954	35884	
150	0	32836	32844	35881	
151	0	32809	32912	35877	
152	0	32880	33024	35888	
153	0	32840	32858	35902	
154	0	32822	32890	35889	
155	0	32828	32834	35910	
156	0	32833	32831	35905	
157	0	32760	32736	35896	
158	0	32778	32700	35893	
159	0	32812	32720	35912	
160	0	32744	32774	35934	
161	0	32808	32678	35932	
162	0	32732	32746	35936	
163	0	32776	32770	35917	
164	0	32724	32772	35912	
165	0	32746	32909	35898	
166	0	32756	32890	35884	
167	0	32776	32909	35895	
168	0	32780	32850	35912	
169	0	32768	32914	35912	
170	0	32798	32956	35914	
171	0	32880	32889	35909	
172	0	32832	32960	35916	
173	0	32832	32996	35924	
174	0	32772	32884	35924	
175	0	32778	32940	35930	
176	0	32848	32824	35925	
177	0	32808	32656	35936	
178	0	32783	32784	35952	
179	0	32724	32736	35928	
180	0	32761	32678	35926	
181	0	32752	32696	35920	
182	0	32738	32788	35928	
183	0	32765	32841	35948	
184	0	32716	32799	35940	
185	0	32700	32884	35948	
186	0	32788	32927	35941	
187	0	32793	32884	35920	
188	0	32830	32900	35933	
189	0	32812	33009	35916	
190	0	32808	32972	35914	
191	0	32784	32932	35896	
192	0	32862	33004	35897	
193	0	32794	32944	35909	
194	0	32824	32913	35914	
195	0	32836	32798	35925	
196	0	32822	32809	35913	
197	0	32824	32756	35924	
198	0	32860	32708	35936	
199	0	32788	32604	35940	
200	0	32776	32672	35941	
201	0	32757	32666	35942	
202	0	32708	32750	35936	
203	0	32750	32749	35935	
204	0	32744	32734	35936	
205	0	32720	32868	35950	
206	0	32756	32944	35948	
207	0	32752	32865	35953	
208	0	32760	32812	35940	
209	0	32740	32912	35927	
210	0	32864	32902	35932	
211	0	32840	32946	35920	
212	0	32884	32964	35905	
213	0	32884	33013	35906	
214	0	32820	32897	35906	
215	0	32812	32813	35897	
216	0	32804	32736	35901	
217	0	32852	32760	35932	
218	0	32804	32724	35937	
219	0	32783	32700	35953	
220	0	32780	32720	35924	
221	0	32742	32773	35936	
222	0	32696	32844	35943	
223	0	32768	32827	35934	
224	0	32720	32791	35940	
225	0	32702	32844	35940	
226	0	32716	32846	35940	
227	0	32816	32925	35905	
228	0	32784	32960	35897	
229	0	32788	32985	35906	
230	0	32824	32884	35917	
231	0	32797	32920	35916	
232	0	32810	32990	35916	
233	0	32789	32933	35920	
234	0	32873	32868	35911	
235	0	32836	32869	35904	
236	0	32830	32825	35904	
237	0	32777	32692	35916	
238	0	32852	32756	35928	
239	0	32752	32676	35933	
240	0	32744	32716	35944	
241	0	32760	32680	35940	
242	0	32718	32770	35926	
243	0	32772	32833	35925	
244	0	32760	32797	35944	
245	0	32785	32824	35948	
246	0	32730	32902	35930	
247	0	32704	32906	35940	
248	0	32761	32869	35912	
249	0	32845	32944	35892	
250	0	32782	32925	35896	
251	0	32808	32866	35915	
252	0	32872	32984	35920	
253	0	32872	32944	35925	
254	0	32841	32841	35930	
255	0	32828	32833	35942	
256	0	32824	32804	35953	
257	0	32804	32812	35952	
258	0	32816	32716	35949	
259	0	32672	32645	35936	
260	0	32796	32692	35937	
261	0	32780	32786	35940	
262	0	32712	32893	35916	
263	0	32756	32864	35933	
264	0	32740	32894	35920	
265	0	32770	32839	35908	
266	0	32737	32849	35917	
267	0	32740	32881	35916	
268	0	32760	32900	35921	
269	0	32812	32888	35916	
270	0	32806	32980	35896	
271	0	32804	33030	35901	
272	0	32820	32960	35900	
273	0	32844	32863	35906	
274	0	32804	32848	35912	
275	0	32854	32737	35921	
276	0	32812	32719	35908	
277	0	32852	32690	35916	
278	0	32815	32716	35917	
279	0	32821	32654	35924	
280	0	32788	32612	35925	
281	0	32749	32602	35944	
282	0	32705	32748	35936	
283	0	32784	32804	35935	
284	0	32788	32806	35911	
285	0	32816	32833	35920	
286	0	32657	32967	35912	
287	0	32732	32932	35887	
288	0	32798	32932	35913	
289	0	32785	32956	35912	
290	0	32862	33023	35911	
291	0	32872	33000	35912	
292	0	32841	32941	35913	
293	0	32832	32952	35904	
294	0	32772	32922	35898	
295	0	32744	32852	35901	
296	0	32825	32790	35921	
297	0	32796	32825	35924	
298	0	32852	32783	35937	
299	0	32796	32710	35937	
300	0	32760	32616	35952	
301	0	32808	32714	35942	
302	0	32728	32704	35965	
303	0	32716	32849	35970	
304	0	32708	32873	35948	
305	0	32768	32829	35972	
306	0	32744	32770	35956	
307	0	32737	32858	35936	
308	0	32796	32916	35944	
309	0	32824	32922	35948	
310	0	32828	32904	35948	
311	0	32777	32935	35924	
312	0	32792	32908	35930	
313	0	32820	32956	35942	
314	0	32801	32902	35942	
315	0	32840	32879	35957	
316	0	32844	32834	35945	
317	0	32772	32788	35940	
318	0	32736	32681	35976	
319	0	32805	32623	35964	
320	0	32780	32613	35966	
321	0	32812	32738	35980	
322	0	32700	32756	35980	
323	0	32772	32741	35975	
324	0	32732	32821	35964	
325	0	32720	32800	35967	
326	0	32693	32908	35952	
327	0	32749	32963	35964	
328	0	32796	32985	35975	
329	0	32808	32972	35946	
330	0	32833	32983	35938	
331	0	32830	32975	35920	
332	0	32832	33012	35922	
333	0	32800	32920	35904	
334	0	32868	32892	35904	
335	0	32784	32894	35924	
336	0	32790	32760	35910	
337	0	32768	32709	35924	
338	0	32832	32673	35916	
339	0	32762	32616	35928	
340	0	32804	32736	35960	
341	0	32752	32702	35948	
342	0	32760	32694	35961	
343	0	32704	32775	35964	
344	0	32776	32782	35941	
345	0	32784	32864	35936	
346	0	32740	32848	35944	
347	0	32718	32868	35932	
348	0	32802	32940	35912	
349	0	32792	33008	35925	
350	0	32775	32846	35902	
351	0	32836	32958	35921	
352	0	32816	33030	35926	
353	0	32804	33004	35933	
354	0	32812	32929	35912	
355	0	32814	32854	35917	
356	0	32860	32832	35924	
357	0	32836	32805	35948	
358	0	32812	32796	35948	
359	0	32772	32694	35940	
360	0	32772	32673	35937	
361	0	32776	32689	35946	
362	0	32724	32713	35924	
363	0	32736	32809	35910	
364	0	32745	32828	35944	
365	0	32782	32780	35940	
366	0	32708	32820	35937	
367	0	32778	32948	35936	
368	0	32766	32920	35944	
369	0	32756	32946	35914	
370	0	32812	32861	35896	
371	0	32801	32933	35884	
372	0	32808	32933	35877	
373	0	32836	32924	35884	
374	0	32780	32888	35908	
375	0	32800	32944	35936	
376	0	32841	32853	35924	
377	0	32866	32704	35902	
378	0	32724	32672	35940	
379	0	32768	32600	35928	
380	0	32764	32644	35948	
381	0	32716	32764	35916	
382	0	32700	32804	35904	
383	0	32724	32786	35908	
384	0	32744	32853	35908	
385	0	32808	32870	35913	
386	0	32740	32872	35928	
387	0	32812	32884	35936	
388	0	32788	32840	35932	
389	0	32770	32836	35929	
390	0	32848	32992	35924	
391	0	32804	32991	35888	
392	0	32821	32982	35884	
393	0	32832	32916	35889	
394	0	32844	32816	35879	
395	0	32808	32780	35917	
396	0	32872	32776	35949	
397	0	32821	32667	35944	
398	0	32816	32632	35944	
399	0	32776	32628	35945	
400	0	32716	32608	35941	
401	0	32744	32702	35948	
402	0	32792	32756	35940	
403	0	32780	32862	35926	
404	0	32704	32944	35940	
405	0	32802	32929	35941	
406	0	32704	32909	35932	
407	0	32772	32924	35916	
408	0	32780	32892	35920	
409	0	32768	32996	35895	
410	0	32793	32948	35897	
411	0	32844	32964	35916	
412	0	32834	32974	35936	
413	0	32860	32998	35910	
414	0	32804	32890	35922	
415	0	32820	32853	35902	
416	0	32800	32768	35904	
417	0	32820	32729	35921	
418	0	32756	32697	35919	
419	0	32792	32688	35924	
420	0	32760	32741	35923	
421	0	32728	32692	35912	
422	0	32764	32736	35916	
423	0	32772	32797	35923	
424	0	32788	32893	35936	
425	0	32784	32882	35940	
426	0	32776	32884	35956	
427	0	32736	32940	35932	
428	0	32792	32982	35911	
429	0	32780	32966	35898	
430	0	32853	32969	35909	
431	0	32765	32976	35910	
432	0	32824	32900	35921	
433	0	32824	32937	35922	
434	0	32812	32920	35940	
435	0	32820	32856	35928	
436	0	32868	32813	35942	
437	0	32850	32729	35948	
438	0	32832	32660	35940	
439	0	32807	32648	35956	
440	0	32692	32640	35957	
441	0	32752	32628	35940	
442	0	32764	32648	35932	
443	0	32732	32812	35941	
444	0	32704	32894	35940	
445	0	32648	32812	35920	
446	0	32744	32932	35921	
447	0	32836	32909	35904	
448	0	32816	32774	35912	
449	0	32816	32886	35911	
450	0	32772	32902	35910	
451	0	32789	32938	35924	
452	0	32820	32903	35925	
453	0	32796	32928	35938	
454	0	32858	32896	35924	
455	0	32776	32830	35920	
456	0	32850	32804	35927	
457	0	32832	32724	35913	
458	0	32788	32661	35924	
459	0	32784	32586	35935	
460	0	32796	32684	35964	
461	0	32814	32714	35946	
462	0	32732	32838	35948	
463	0	32724	32805	35956	
464	0	32780	32846	35934	
465	0	32772	32800	35924	
466	0	32776	32886	35912	
467	0	32772	32956	35907	
468	0	32808	32871	35908	
469	0	32784	32912	35924	
470	0	32776	32977	35932	
471	0	32780	32976	35921	
472	0	32788	32973	35935	
473	0	32857	32910	35953	
474	0	32820	32868	35952	
475	0	32836	32829	35954	
476	0	32824	32818	35948	
477	0	32793	32712	35964	
478	0	32808	32660	35948	
479	0	32813	32722	35958	
480	0	32820	32676	35965	
481	0	32732	32740	35975	
482	0	32772	32804	35946	
483	0	32722	32828	35959	
484	0	32776	32760	35945	
485	0	32716	32836	35932	
486	0	32749	32892	35936	
487	0	32736	32896	35938	
488	0	32800	32903	35917	
489	0	32812	32900	35916	
490	0	32868	32903	35915	
491	0	32808	32956	35896	
492	0	32804	32991	35903	
493	0	32760	33031	35892	
494	0	32796	32904	35910	
495	0	32832	32776	35918	
496	0	32822	32756	35924	
497	0	32808	32800	35932	
498	0	32858	32710	35922	
499	0	32732	32648	35925	
500	0	32738	32616	35924	
501	0	32804	32682	35940	
502	0	32796	32743	35927	
503	0	32764	32816	35932	
504	0	32744	32775	35928	
505	0	32741	32880	35920	
506	0	32752	32933	35904	
507	0	32816	33025	35908	
508	0	32824	32936	35908	
509	0	32772	32888	35896	
510	0	32796	32931	35906	
511	0	32832	32944	35914	
512	0	32788	32941	35912	
513	0	32820	32906	35940	
514	0	32820	32840	35940	
515	0	32864	32855	35917	
516	0	32768	32745	35924	
517	0	32792	32764	35932	
518	0	32796	32752	35944	
519	0	32778	32654	35944	
520	0	32784	32660	35948	
521	0	32740	32697	35960	
522	0	32746	32692	35952	
523	0	32737	32816	35956	
524	0	32748	32746	35938	
525	0	32684	32808	35940	
526	0	32744	32850	35940	
527	0	32772	32849	35937	
528	0	32826	32857	35944	
529	0	32824	32932	35928	
530	0	32856	32884	35908	
531	0	32885	32946	35896	
532	0	32804	32941	35888	
533	0	32841	32864	35900	
534	0	32858	32991	35898	
535	0	32869	32872	35908	
536	0	32853	32824	35922	
537	0	32760	32775	35920	
538	0	32762	32804	35932	
539	0	32752	32688	35937	
540	0	32748	32656	35964	
541	0	32804	32694	35952	
542	0	32740	32792	35956	
543	0	32712	32743	35957	
544	0	32716	32794	35940	
545	0	32753	32833	35916	
546	0	32780	32883	35908	
547	0	32818	32918	35932	
548	0	32756	32858	35931	
549	0	32728	32841	35908	
550	0	32848	32885	35913	
551	0	32752	32933	35924	
552	0	32820	33004	35925	
553	0	32836	32892	35929	
554	0	32844	32857	35930	
555	0	32844	32909	35920	
556	0	32826	32824	35922	
557	0	32797	32824	35940	
558	0	32808	32736	35941	
559	0	32760	32768	35953	
560	0	32780	32628	35956	
561	0	32760	32726	35948	
562	0	32708	32796	35952	
563	0	32712	32790	35951	
564	0	32732	32772	35946	
565	0	32704	32968	35945	
566	0	32768	32896	35940	
567	0	32744	32868	35928	
568	0	32724	32915	35914	
569	0	32768	32937	35921	
570	0	32808	32988	35908	
571	0	32786	32982	35918	
572	0	32764	33024	35924	
573	0	32824	33098	35918	
574	0	32840	32956	35920	
575	0	32856	32844	35929	
576	0	32866	32868	35934	
577	0	32814	32661	35932	
578	0	32820	32652	35940	
579	0	32760	32700	35950	
580	0	32752	32580	35944	
581	0	32772	32624	35950	
582	0	32706	32708	35943	
583	0	32716	32820	35941	
584	0	32682	32766	35940	
585	0	32756	32857	35924	
586	0	32756	32956	35921	
587	0	32776	32856	35922	
588	0	32800	32900	35913	
589	0	32764	32983	35898	
590	0	32866	32978	35909	
591	0	32824	32894	35918	
592	0	32804	32944	35892	
593	0	32792	33004	35908	
594	0	32858	32937	35898	
595	0	32816	32842	35902	
596	0	32856	32890	35906	
597	0	32866	32712	35896	
598	0	32788	32638	35912	
599	0	32804	32692	35928	
600	0	32796	32708	35932	
601	0	32724	32696	35926	
602	0	32732	32751	35944	
603	0	32741	32844	35948	
604	0	32756	32816	35932	
605	0	32744	32769	35938	
606	0	32804	32908	35916	
607	0	32760	32840	35904	
608	0	32744	32838	35888	
609	0	32804	32896	35901	
610	0	32785	32908	35918	
611	0	32862	32948	35896	
612	0	32776	33008	35906	
613	0	32833	32977	35910	
614	0	32788	32901	35908	
615	0	32912	32828	35908	
616	0	32792	32783	35908	
617	0	32852	32714	35937	
618	0	32808	32656	35952	
619	0	32782	32669	35972	
620	0	32784	32648	35972	
621	0	32792	32726	35959	
622	0	32708	32793	35958	
623	0	32737	32865	35928	
624	0	32704	32956	35924	
625	0	32712	32832	35920	
626	0	32728	33004	35916	
627	0	32765	32961	35949	
628	0	32768	32888	35952	
629	0	32824	32969	35932	
630	0	32736	32876	35938	
631	0	32902	32976	35944	
632	0	32813	32949	35924	
633	0	32801	32984	35932	
634	0	32808	32902	35940	
635	0	32824	32805	35940	
636	0	32820	32802	35945	
637	0	32848	32772	35960	
638	0	32856	32686	35956	
639	0	32814	32666	35940	
640	0	32741	32637	35932	
641	0	32760	32656	35943	
642	0	32765	32704	35935	
643	0	32748	32746	35938	
644	0	32764	32717	35925	
645	0	32760	32778	35914	
646	0	32740	32868	35922	
647	0	32816	32869	35908	
648	0	32728	32935	35916	
649	0	32848	33036	35912	
650	0	32857	32911	35909	
651	0	32788	32932	35911	
652	0	32832	33004	35911	
653	0	32832	32903	35901	
654	0	32848	32897	35908	
655	0	32836	32868	35936	
656	0	32804	32832	35920	
657	0	32871	32732	35921	
658	0	32772	32756	35928	
659	0	32708	32628	35956	
660	0	32776	32600	35943	
661	0	32792	32706	35940	
662	0	32744	32745	35932	
663	0	32792	32749	35924	
664	0	32748	32828	35932	
665	0	32756	32812	35913	
666	0	32784	32872	35924	
667	0	32784	32868	35933	
668	0	32792	32954	35928	
669	0	32732	32882	35932	
670	0	32816	32941	35924	
671	0	32804	32951	35920	
672	0	32780	32964	35911	
673	0	32828	32928	35916	
674	0	32762	32826	35916	
675	0	32852	32769	35901	
676	0	32844	32856	35913	
677	0	32868	32796	35940	
678	0	32816	32692	35940	
679	0	32776	32628	35935	
680	0	32764	32624	35948	
681	0	32782	32628	35966	
682	0	32728	32794	35949	
683	0	32752	32818	35942	
684	0	32761	32812	35948	
685	0	32732	32919	35957	
686	0	32756	32932	35949	
687	0	32812	32976	35933	
688	0	32677	32925	35932	
689	0	32772	32895	35928	
690	0	32836	32948	35908	
691	0	32860	32912	35908	
692	0	32852	32916	35908	
693	0	32804	32997	35918	
694	0	32837	32860	35912	
695	0	32806	32890	35929	
696	0	32744	32805	35940	
697	0	32799	32728	35941	
698	0	32798	32716	35951	
699	0	32824	32634	35916	
700	0	32816	32637	35928	
701	0	32728	32708	35948	
702	0	32781	32837	35948	
703	0	32716	32756	35942	
704	0	32768	32837	35936	
705	0	32728	32889	35928	
706	0	32804	32916	35920	
707	0	32732	32836	35934	
708	0	32802	32893	35916	
709	0	32752	32903	35924	
710	0	32760	32948	35920	
711	0	32804	32853	35914	
712	0	32780	32928	35896	
713	0	32856	32965	35888	
714	0	32800	33014	35904	
715	0	32832	32910	35928	
716	0	32856	32813	35944	
717	0	32856	32788	35928	
718	0	32788	32652	35956	
719	0	32780	32720	35940	
720	0	32764	32664	35924	
721	0	32720	32612	35940	
722	0	32784	32764	35954	
723	0	32756	32758	35931	
724	0	32692	32738	35940	
725	0	32712	32929	35948	
726	0	32752	32857	35956	
727	0	32736	32863	35948	
728	0	32756	32892	35932	
729	0	32742	32944	35950	
730	0	32832	32957	35940	
731	0	32844	32892	35925	
732	0	32844	33040	35921	
733	0	32804	32992	35910	
734	0	32794	32937	35916	
735	0	32834	32941	35924	
736	0	32790	32742	35932	
737	0	32780	32738	35924	
738	0	32804	32752	35912	
739	0	32841	32672	35934	
740	0	32813	32678	35932	
741	0	32812	32748	35927	
742	0	32692	32768	35932	
743	0	32728	32781	35920	
744	0	32768	32768	35940	
745	0	32724	32864	35912	
746	0	32764	32972	35928	
747	0	32741	32928	35940	
748	0	32768	32948	35948	
749	0	32778	32928	35928	
750	0	32821	32861	35923	
751	0	32868	32876	35910	
752	0	32916	32928	35916	
753	0	32848	32892	35908	
754	0	32836	32920	35924	
755	0	32796	32832	35944	
756	0	32800	32740	35941	
757	0	32788	32640	35968	
758	0	32837	32673	35975	
759	0	32772	32669	35972	
760	0	32776	32656	35980	
761	0	32760	32626	35961	
762	0	32724	32732	35966	
763	0	32712	32740	35965	
764	0	32688	32838	35940	
765	0	32760	32844	35960	
766	0	32736	32836	35936	
767	0	32712	32906	35929	
768	0	32728	32945	35916	
769	0	32828	32940	35921	
770	0	32802	32958	35912	
771	0	32820	32888	35908	
772	0	32852	32929	35884	
773	0	32776	32932	35905	
774	0	32852	32913	35930	
775	0	32852	32916	35952	
776	0	32884	32710	35948	
777	0	32817	32753	35951	
778	0	32832	32705	35948	
779	0	32808	32640	35944	
780	0	32764	32742	35962	
781	0	32768	32647	35941	
782	0	32792	32768	35921	
783	0	32648	32852	35913	
784	0	32688	32820	35919	
785	0	32736	32864	35933	
786	0	32741	32903	35925	
787	0	32740	32838	35920	
788	0	32780	32846	35896	
789	0	32808	32916	35900	
790	0	32812	32814	35904	
791	0	32801	32994	35919	
792	0	32880	33060	35920	
793	0	32816	33004	35912	
794	0	32816	32958	35936	
795	0	32794	32958	35936	
796	0	32844	32828	35933	
797	0	32797	32775	35944	
798	0	32764	32752	35932	
799	0	32786	32748	35920	
800	0	32772	32636	35921	
801	0	32728	32662	35931	
802	0	32712	32696	35928	
803	0	32714	32832	35924	
804	0	32712	32812	35940	
805	0	32658	32917	35940	
806	0	32812	32932	35944	
807	0	32752	32964	35936	
808	0	32845	32878	35945	
809	0	32785	32949	35948	
810	0	32890	32948	35918	
811	0	32764	32910	35911	
812	0	32817	32820	35900	
813	0	32766	32924	35920	
814	0	32826	32977	35939	
815	0	32728	32864	35908	
816	0	32888	32814	35922	
817	0	32784	32813	35930	
818	0	32752	32625	35948	
819	0	32832	32676	35949	
820	0	32744	32620	35944	
821	0	32740	32633	35932	
822	0	32768	32665	35938	
823	0	32764	32808	35925	
824	0	32736	32866	35920	
825	0	32720	32903	35930	
826	0	32806	32876	35920	
827	0	32803	32956	35913	
828	0	32780	32930	35901	
829	0	32768	32828	35902	
830	0	32832	32897	35896	
831	0	32790	32916	35897	
832	0	32872	32940	35894	
833	0	32853	33010	35892	
834	0	32796	32948	35896	
835	0	32868	32855	35896	
836	0	32868	32800	35904	
837	0	32772	32816	35913	
838	0	32782	32742	35924	
839	0	32812	32664	35944	
840	0	32768	32661	35956	
841	0	32757	32724	35964	
842	0	32736	32740	35964	
843	0	32721	32713	35949	
844	0	32712	32830	35940	
845	0	32732	32844	35935	
846	0	32720	32837	35941	
847	0	32820	32840	35920	
848	0	32828	32896	35924	
849	0	32780	32950	35908	
850	0	32792	32945	35900	
851	0	32776	32940	35901	
852	0	32828	32913	35879	
853	0	32796	32997	35864	
854	0	32832	32940	35896	
855	0	32872	32813	35888	
856	0	32860	32790	35896	
857	0	32770	32792	35892	
858	0	32788	32687	35901	
859	0	32821	32708	35924	
860	0	32784	32744	35936	
861	0	32724	32676	35932	
862	0	32765	32758	35913	
863	0	32696	32864	35912	
864	0	32736	32880	35924	
865	0	32734	32837	35916	
866	0	32760	32830	35920	
867	0	32792	32872	35913	
868	0	32756	32892	35917	
869	0	32794	32944	35916	
870	0	32812	32965	35908	
871	0	32844	32904	35905	
872	0	32844	32917	35912	
873	0	32832	32948	35900	
874	0	32812	32957	35896	
875	0	32869	32805	35908	
876	0	32812	32804	35921	
877	0	32826	32732	35932	
878	0	32799	32672	35920	
879	0	32764	32677	35922	
880	0	32732	32694	35916	
881	0	32776	32604	35912	
882	0	32709	32732	35902	
883	0	32736	32844	35905	
884	0	32668	32848	35916	
885	0	32816	32761	35923	
886	0	32788	32793	35920	
887	0	32776	32900	35940	
888	0	32785	32836	35924	
889	0	32861	32858	35917	
890	0	32788	32824	35917	
891	0	32829	32910	35904	
892	0	32789	32888	35885	
893	0	32812	32884	35878	
894	0	32846	32901	35881	
895	0	32800	32917	35892	
896	0	32824	32791	35901	
897	0	32788	32863	35919	
898	0	32784	32681	35928	
899	0	32776	32658	35920	
900	0	32782	32666	35936	
901	0	32744	32728	35946	
902	0	32724	32808	35940	
903	0	32700	32855	35935	
904	0	32772	32816	35937	
905	0	32773	32873	35922	
906	0	32786	33012	35908	
907	0	32752	32952	35906	
908	0	32748	33009	35896	
909	0	32804	33060	35890	
910	0	32812	32946	35896	
911	0	32784	33000	35892	
912	0	32804	33043	35925	
913	0	32824	32992	35896	
914	0	32790	32905	35918	
915	0	32792	32869	35908	
916	0	32836	32758	35916	
917	0	32784	32852	35920	
918	0	32852	32612	35918	
919	0	32752	32677	35919	
920	0	32762	32652	35928	
921	0	32758	32636	35912	
922	0	32840	32742	35908	
923	0	32752	32864	35888	
924	0	32824	32772	35898	
925	0	32760	32828	35921	
926	0	32692	32940	35920	
927	0	32780	32913	35928	
928	0	32741	32880	35928	
929	0	32797	32904	35928	
930	0	32808	32957	35916	
931	0	32801	32912	35920	
932	0	32808	32929	35928	
933	0	32849	32831	35936	
934	0	32772	32900	35953	
935	0	32820	32903	35948	
936	0	32781	32833	35950	
937	0	32818	32738	35946	
938	0	32876	32708	35945	
939	0	32764	32680	35940	
940	0	32804	32630	35943	
941	0	32764	32653	35957	
942	0	32784	32752	35940	
943	0	32744	32781	35946	
944	0	32764	32804	35948	
945	0	32700	32876	35949	
946	0	32737	32854	35957	
947	0	32756	32930	35964	
948	0	32748	32884	35964	
949	0	32812	32950	35957	
950	0	32818	32876	35948	
951	0	32773	32960	35930	
952	0	32798	33031	35912	
953	0	32816	32917	35884	
954	0	32828	32885	35896	
955	0	32884	32828	35880	
956	0	32792	32743	35904	
957	0	32740	32777	35909	
958	0	32778	32757	35924	
959	0	32744	32705	35936	
960	0	32788	32684	35912	
961	0	32826	32748	35924	
962	0	32717	32724	35936	
963	0	32728	32775	35924	
964	0	32764	32836	35908	
965	0	32754	32758	35924	
966	0	32780	32844	35907	
967	0	32720	32921	35893	
968	0	32744	32804	35896	
969	0	32792	32924	35908	
970	0	32804	32956	35902	
971	0	32772	32985	35910	
972	0	32792	32964	35895	
973	0	32872	32980	35896	
974	0	32832	32968	35903	
975	0	32828	32954	35911	
976	0	32804	32865	35911	
977	0	32864	32780	35904	
978	0	32792	32740	35908	
979	0	32796	32668	35920	
980	0	32748	32648	35912	
981	0	32740	32689	35919	
982	0	32752	32705	35903	
983	0	32757	32718	35914	
984	0	32740	32784	35911	
985	0	32763	32880	35904	
986	0	32800	32837	35922	
987	0	32772	32908	35940	
988	0	32744	32993	35910	
989	0	32749	32892	35932	
990	0	32812	32820	35909	
991	0	32796	32903	35880	
992	0	32780	32949	35888	
993	0	32892	33010	35900	
994	0	32856	32892	35884	
995	0	32840	32848	35894	
996	0	32816	32765	35900	
997	0	32836	32767	35900	
998	0	32846	32760	35900	
999	0	32818	32668	35928	
1000	0	32784	32625	35928	
1001	0	32737	32700	35924	
1002	0	32761	32800	35910	
1003	0	32749	32788	35908	
1004	0	32732	32873	35923	
1005	0	32732	33007	35918	
1006	0	32756	32902	35930	
1007	0	32788	32908	35938	
1008	0	32841	32905	35928	
1009	0	32768	32957	35920	
1010	0	32764	32952	35926	
1011	0	32784	32836	35932	
1012	0	32864	32991	35901	
1013	0	32816	32953	35934	
1014	0	32776	32920	35936	
1015	0	32824	32801	35936	
1016	0	32836	32784	35940	
1017	0	32848	32823	35932	
1018	0	32801	32772	35937	
1019	0	32809	32689	35940	
1020	0	32760	32714	35941	
1021	0	32796	32676	35942	
1022	0	32748	32764	35948	
1023	0	32680	32752	35958	
1024	0	32756	32816	35945	
1025	0	32748	32752	35942	
1026	0	32728	32780	35908	
1027	0	32748	32814	35904	
1028	0	32788	32821	35912	
1029	0	32764	32832	35905	
1030	0	32808	32844	35911	
1031	0	32798	32905	35908	
1032	0	32776	32965	35924	
1033	0	32852	32944	35946	
1034	0	32892	32998	35953	
1035	0	32826	32920	35932	
1036	0	32804	32852	35944	
1037	0	32870	32864	35945	
1038	0	32768	32772	35932	
1039	0	32788	32680	35940	
1040	0	32785	32704	35940	
1041	0	32788	32766	35940	
1042	0	32740	32692	35936	
1043	0	32736	32749	35953	
1044	0	32738	32814	35939	
1045	0	32768	32753	35940	
1046	0	32752	32870	35917	
1047	0	32740	32920	35924	
1048	0	32768	32848	35936	
1049	0	32793	32834	35956	
1050	0	32853	32920	35953	
1051	0	32780	32956	35953	
1052	0	32853	32895	35942	
1053	0	32816	32878	35927	
1054	0	32840	32932	35929	
1055	0	32781	32900	35930	
1056	0	32890	32772	35924	
1057	0	32796	32765	35942	
1058	0	32808	32788	35948	
1059	0	32730	32622	35943	
1060	0	32796	32621	35942	
1061	0	32774	32653	35952	
1062	0	32728	32724	35940	
1063	0	32724	32816	35945	
1064	0	32788	32818	35960	
1065	0	32800	32833	35956	
1066	0	32742	32896	35928	
1067	0	32696	32854	35929	
1068	0	32716	32964	35928	
1069	0	32776	32885	35932	
1070	0	32800	32872	35956	
1071	0	32894	32881	35936	
1072	0	32830	32874	35946	
1073	0	32828	32928	35939	
1074	0	32833	33004	35935	
1075	0	32840	32933	35917	
1076	0	32844	32829	35947	
1077	0	32846	32784	35956	
1078	0	32824	32860	35970	
1079	0	32732	32660	35956	
1080	0	32772	32600	35948	
1081	0	32740	32660	35956	
1082	0	32768	32692	35939	
1083	0	32712	32738	35946	
1084	0	32693	32736	35948	
1085	0	32748	32880	35942	
1086	0	32728	32815	35949	
1087	0	32804	32820	35941	
1088	0	32758	32894	35956	
1089	0	32826	32950	35941	
1090	0	32824	32920	35948	
1091	0	32844	32920	35924	
1092	0	32816	32924	35921	
1093	0	32784	32956	35912	
1094	0	32865	32984	35936	
1095	0	32796	32890	35924	
1096	0	32816	32766	35941	
1097	0	32884	32824	35956	
1098	0	32792	32829	35958	
1099	0	32800	32688	35968	
1100	0	32756	32633	35952	
1101	0	32756	32728	35940	
1102	0	32736	32728	35944	
1103	0	32728	32788	35951	
1104	0	32728	32901	35938	
1105	0	32729	32800	35934	
1106	0	32756	32833	35904	
1107	0	32740	32903	35916	
1108	0	32844	32985	35941	
1109	0	32749	32865	35927	
1110	0	32844	32840	35920	
1111	0	32797	32990	35932	
1112	0	32808	32917	35905	
1113	0	32799	32949	35893	
1114	0	32804	33016	35888	
1115	0	32836	32847	35884	
1116	0	32804	32812	35911	
1117	0	32808	32825	35942	
1118	0	32852	32649	35952	
1119	0	32796	32740	35950	
1120	0	32782	32700	35936	
1121	0	32780	32660	35932	
1122	0	32748	32750	35933	
1123	0	32789	32821	35920	
1124	0	32736	32797	35916	
1125	0	32748	32836	35916	
1126	0	32740	32892	35920	
1127	0	32762	32844	35904	
1128	0	32757	32967	35916	
1129	0	32816	32873	35908	
1130	0	32742	32916	35912	
1131	0	32772	32909	35924	
1132	0	32798	32884	35904	
1133	0	32785	32838	35912	
1134	0	32815	32968	35888	
1135	0	32856	32832	35896	
1136	0	32837	32836	35893	
1137	0	32856	32841	35908	
1138	0	32814	32705	35920	
1139	0	32784	32697	35936	
1140	0	32756	32686	35936	
1141	0	32792	32598	35945	
1142	0	32816	32687	35924	
1143	0	32720	32813	35916	
1144	0	32692	32844	35920	
1145	0	32752	32828	35934	
1146	0	32752	32804	35940	
1147	0	32804	32879	35930	
1148	0	32740	32908	35908	
1149	0	32768	32908	35900	
1150	0	32800	32885	35916	
1151	0	32824	32912	35916	
1152	0	32852	32903	35908	
1153	0	32760	32992	35908	
1154	0	32840	33072	35904	
1155	0	32824	32896	35896	
1156	0	32816	32804	35936	
1157	0	32796	32840	35947	
1158	0	32832	32805	35960	
1159	0	32860	32668	35967	
1160	0	32764	32706	35974	
1161	0	32840	32671	35962	
1162	0	32772	32684	35964	
1163	0	32752	32732	35952	
1164	0	32696	32700	35965	
1165	0	32722	32868	35948	
1166	0	32760	32816	35944	
1167	0	32740	32860	35948	
1168	0	32816	32992	35940	
1169	0	32828	32900	35940	
1170	0	32793	32978	35944	
1171	0	32776	32908	35940	
1172	0	32812	32959	35938	
1173	0	32864	33010	35943	
1174	0	32804	32916	35956	
1175	0	32818	32863	35941	
1176	0	32844	32765	35937	
1177	0	32804	32813	35975	
1178	0	32848	32749	35940	
1179	0	32797	32647	35946	
1180	0	32784	32681	35957	
1181	0	32820	32628	35962	
1182	0	32817	32676	35956	
1183	0	32764	32850	35950	
1184	0	32736	32768	35938	
1185	0	32741	32772	35930	
1186	0	32800	32871	35928	
1187	0	32716	32907	35942	
1188	0	32798	32844	35937	
1189	0	32761	32873	35928	
1190	0	32816	32916	35901	
1191	0	32840	32983	35904	
1192	0	32812	32989	35916	
1193	0	32816	32896	35904	
1194	0	32852	32948	35914	
1195	0	32792	32912	35924	
1196	0	32824	32757	35924	
1197	0	32828	32772	35926	
1198	0	32784	32784	35907	
1199	0	32776	32692	35917	
1200	0	32756	32615	35928	
1201	0	32804	32647	35922	
1202	0	32744	32686	35916	
1203	0	32700	32810	35904	
1204	0	32712	32817	35912	
1205	0	32734	32836	35892	
1206	0	32700	32817	35924	
1207	0	32768	32836	35936	
1208	0	32804	32904	35932	
1209	0	32768	32928	35928	
1210	0	32796	32927	35944	
1211	0	32750	32928	35926	
1212	0	32828	32973	35917	
1213	0	32880	32944	35915	
1214	0	32840	32956	35900	
1215	0	32778	32872	35904	
1216	0	32816	32799	35898	
1217	0	32736	32797	35924	
1218	0	32789	32774	35912	
1219	0	32812	32654	35920	
1220	0	32794	32744	35928	
1221	0	32732	32720	35928	
1222	0	32768	32644	35930	
1223	0	32778	32764	35928	
1224	0	32716	32817	35916	
1225	0	32753	32820	35921	
1226	0	32732	32873	35929	
1227	0	32817	32921	35926	
1228	0	32740	32937	35913	
1229	0	32782	32933	35912	
1230	0	32824	32927	35908	
1231	0	32864	32908	35916	
1232	0	32809	32900	35913	
1233	0	32826	32942	35912	
1234	0	32838	32964	35892	
1235	0	32828	32948	35928	
1236	0	32820	32801	35928	
1237	0	32792	32838	35932	
1238	0	32864	32757	35918	
1239	0	32900	32676	35920	
1240	0	32781	32666	35908	
1241	0	32800	32670	35920	
1242	0	32744	32772	35905	
1243	0	32750	32665	35913	
1244	0	32777	32748	35908	
1245	0	32752	32848	35929	
1246	0	32716	32909	35916	
1247	0	32748	32932	35928	
1248	0	32732	32933	35908	
1249	0	32736	32928	35896	
1250	0	32706	32887	35926	
1251	0	32788	32893	35908	
1252	0	32772	32988	35917	
1253	0	32822	32914	35910	
1254	0	32872	32891	35900	
1255	0	32833	32920	35892	
1256	0	32796	32840	35916	
1257	0	32832	32783	35925	
1258	0	32888	32744	35910	
1259	0	32828	32664	35931	
1260	0	32800	32637	35909	
1261	0	32788	32708	35940	
1262	0	32724	32700	35924	
1263	0	32744	32841	35927	
1264	0	32724	32874	35937	
1265	0	32732	32834	35932	
1266	0	32792	32872	35929	
1267	0	32704	32903	35940	
1268	0	32728	32908	35932	
1269	0	32800	32981	35951	
1270	0	32768	32948	35932	
1271	0	32828	32876	35924	
1272	0	32800	32905	35928	
1273	0	32816	33014	35916	
1274	0	32796	32900	35908	
1275	0	32804	32880	35904	
1276	0	32842	32928	35912	
1277	0	32880	32732	35918	
1278	0	32812	32732	35924	
1279	0	32784	32752	35920	
1280	0	32744	32636	35937	
1281	0	32741	32612	35928	
1282	0	32766	32688	35904	
1283	0	32777	32804	35908	
1284	0	32760	32720	35900	
1285	0	32660	32721	35904	
1286	0	32712	32865	35912	
1287	0	32793	32765	35908	
1288	0	32697	32878	35904	
1289	0	32804	32869	35912	
1290	0	32780	32889	35926	
1291	0	32842	32960	35908	
1292	0	32837	32964	35918	
1293	0	32852	32984	35920	
1294	0	32812	32996	35922	
1295	0	32832	32876	35931	
1296	0	32834	32848	35908	
1297	0	32793	32820	35884	
1298	0	32792	32678	35900	
1299	0	32800	32708	35918	
1300	0	32809	32647	35923	
1301	0	32748	32581	35937	
1302	0	32808	32696	35933	
1303	0	32758	32792	35933	
1304	0	32736	32781	35909	
1305	0	32760	32764	35882	
1306	0	32728	32742	35868	
1307	0	32772	32813	35872	
1308	0	32728	32972	35886	
1309	0	32740	32937	35905	
1310	0	32816	32864	35900	
1311	0	32860	32961	35892	
1312	0	32792	33029	35881	
1313	0	32780	33005	35896	
1314	0	32816	32970	35920	
1315	0	32832	32948	35900	
1316	0	32805	32802	35894	
1317	0	32877	32804	35902	
1318	0	32836	32708	35917	
1319	0	32772	32650	35928	
1320	0	32761	32688	35938	
1321	0	32789	32548	35936	
1322	0	32773	32728	35940	
1323	0	32729	32748	35936	
1324	0	32701	32700	35951	
1325	0	32736	32790	35949	
1326	0	32708	32866	35944	
1327	0	32724	32873	35956	
1328	0	32744	32968	35932	
1329	0	32842	32964	35941	
1330	0	32796	32916	35928	
1331	0	32812	32924	35930	
1332	0	32852	32949	35926	
1333	0	32818	32976	35910	
1334	0	32852	33013	35916	
1335	0	32842	32920	35901	
1336	0	32833	32868	35888	
1337	0	32788	32801	35884	
1338	0	32800	32740	35912	
1339	0	32801	32733	35940	
1340	0	32825	32772	35940	
1341	0	32780	32676	35944	
1342	0	32785	32660	35948	
1343	0	32728	32721	35940	
1344	0	32757	32852	35937	
1345	0	32712	32876	35926	
1346	0	32736	32772	35944	
1347	0	32736	32848	35940	
1348	0	32792	32905	35925	
1349	0	32836	32940	35918	
1350	0	32836	32840	35926	
1351	0	32868	32934	35910	
1352	0	32845	32932	35892	
1353	0	32868	32943	35888	
1354	0	32828	32988	35916	
1355	0	32852	32868	35913	
1356	0	32820	32842	35942	
1357	0	32844	32840	35924	
1358	0	32784	32660	35940	
1359	0	32800	32644	35950	
1360	0	32744	32688	35952	
1361	0	32764	32718	35956	
1362	0	32808	32605	35962	
1363	0	32772	32844	35956	
1364	0	32732	32864	35960	
1365	0	32696	32826	35938	
1366	0	32724	32844	35936	
1367	0	32701	32935	35924	
1368	0	32770	32927	35932	
1369	0	32796	32860	35932	
1370	0	32756	32932	35916	
1371	0	32832	33012	35945	
1372	0	32805	32876	35936	
1373	0	32790	32945	35932	
1374	0	32868	32986	35941	
1375	0	32776	32936	35936	
1376	0	32824	32937	35940	
1377	0	32856	32760	35940	
1378	0	32784	32710	35928	
1379	0	32809	32744	35916	
1380	0	32732	32690	35932	
1381	0	32736	32698	35930	
1382	0	32796	32732	35953	
1383	0	32786	32792	35933	
1384	0	32732	32775	35932	
1385	0	32750	32968	35957	
1386	0	32729	32933	35936	
1387	0	32748	32828	35936	
1388	0	32828	32868	35922	
1389	0	32772	32890	35923	
1390	0	32788	32937	35906	
1391	0	32770	32869	35912	
1392	0	32836	32958	35910	
1393	0	32832	33085	35900	
1394	0	32808	32932	35900	
1395	0	32807	32948	35905	
1396	0	32813	32872	35907	
1397	0	32878	32837	35910	
1398	0	32852	32716	35924	
1399	0	32765	32682	35945	
1400	0	32808	32659	35940	
1401	0	32776	32666	35956	
1402	0	32788	32708	35961	
1403	0	32784	32714	35932	
1404	0	32744	32829	35941	
1405	0	32760	32824	35921	
1406	0	32684	32815	35908	
1407	0	32740	32868	35902	
1408	0	32728	32912	35926	
1409	0	32804	32873	35940	
1410	0	32804	32856	35914	
1411	0	32824	32964	35919	
1412	0	32868	32892	35912	
1413	0	32789	32958	35912	
1414	0	32909	33000	35904	
1415	0	32840	32838	35916	
1416	0	32804	32812	35920	
1417	0	32842	32804	35912	
1418	0	32820	32696	35924	
1419	0	32852	32640	35893	
1420	0	32764	32715	35928	
1421	0	32752	32684	35928	
1422	0	32769	32700	35920	
1423	0	32724	32792	35920	
1424	0	32744	32743	35912	
1425	0	32741	32772	35919	
1426	0	32724	32879	35929	
1427	0	32784	32924	35945	
1428	0	32728	32984	35924	
1429	0	32720	32870	35908	
1430	0	32796	32932	35896	
1431	0	32796	32908	35896	
1432	0	32812	32981	35894	
1433	0	32793	33008	35894	
1434	0	32848	32890	35916	
1435	0	32817	32860	35900	
1436	0	32792	32948	35888	
1437	0	32856	32808	35897	
1438	0	32844	32766	35912	
1439	0	32825	32736	35921	
1440	0	32744	32757	35941	
1441	0	32756	32711	35961	
1442	0	32800	32666	35956	
1443	0	32768	32684	35953	
1444	0	32728	32800	35937	
1445	0	32764	32844	35948	
1446	0	32736	32851	35925	
1447	0	32724	32743	35942	
1448	0	32732	32852	35926	
1449	0	32796	32865	35926	
1450	0	32744	32820	35920	
1451	0	32774	32856	35912	
1452	0	32884	33014	35934	
1453	0	32848	32974	35924	
1454	0	32804	32932	35912	
1455	0	32817	32952	35904	
1456	0	32821	32974	35910	
1457	0	32800	32850	35920	
1458	0	32820	32824	35931	
1459	0	32764	32625	35924	
1460	0	32812	32745	35942	
1461	0	32725	32730	35941	
1462	0	32760	32654	35918	
1463	0	32778	32805	35913	
1464	0	32724	32745	35917	
1465	0	32760	32820	35914	
1466	0	32772	32863	35897	
1467	0	32728	32869	35908	
1468	0	32738	32890	35888	
1469	0	32752	32985	35896	
1470	0	32816	32886	35908	
1471	0	32816	32952	35910	
1472	0	32824	32936	35910	
1473	0	32824	33005	35918	
1474	0	32852	32996	35921	
1475	0	32896	32848	35924	
1476	0	32824	32836	35925	
1477	0	32885	32812	35928	
1478	0	32776	32833	35921	
1479	0	32808	32656	35944	
1480	0	32784	32689	35925	
1481	0	32808	32580	35910	
1482	0	32764	32632	35931	
1483	0	32788	32737	35927	
1484	0	32741	32760	35937	
1485	0	32752	32724	35924	
1486	0	32704	32815	35911	
1487	0	32684	32871	35925	
1488	0	32760	32904	35942	
1489	0	32728	32903	35933	
1490	0	32804	32958	35921	
1491	0	32871	32948	35924	
1492	0	32833	33008	35928	
1493	0	32800	32959	35936	
1494	0	32844	32925	35925	
1495	0	32828	32908	35928	
1496	0	32826	32862	35940	
1497	0	32844	32826	35954	
1498	0	32832	32692	35939	
1499	0	32784	32720	35940	
1500	0	32784	32668	35932	
1501	0	32780	32647	35944	
1502	0	32836	32708	35935	
1503	0	32729	32734	35936	
1504	0	32724	32772	35924	
1505	0	32748	32866	35916	
1506	0	32744	32899	35916	
1507	0	32733	32802	35913	
1508	0	32764	32926	35924	
1509	0	32722	32820	35912	
1510	0	32768	33009	35926	
1511	0	32796	32900	35933	
1512	0	32810	33060	35912	
1513	0	32869	32932	35896	
1514	0	32900	33023	35917	
1515	0	32804	32886	35932	
1516	0	32800	32900	35956	
1517	0	32822	32891	35953	
1518	0	32832	32764	35959	
1519	0	32808	32793	35974	
1520	0	32876	32657	35964	
1521	0	32804	32659	35968	
1522	0	32812	32696	35952	
1523	0	32748	32716	35968	
1524	0	32700	32900	35936	
1525	0	32736	32920	35932	
1526	0	32733	32828	35933	
1527	0	32761	32853	35900	
1528	0	32780	32980	35889	
1529	0	32848	32883	35905	
1530	0	32756	32954	35906	
1531	0	32732	32933	35900	
1532	0	32756	32888	35896	
1533	0	32796	32900	35904	
1534	0	32814	32917	35904	
1535	0	32872	32927	35892	
1536	0	32790	32900	35892	
1537	0	32832	32692	35906	
1538	0	32840	32711	35908	
1539	0	32753	32682	35905	
1540	0	32784	32681	35916	
1541	0	32736	32780	35916	
1542	0	32860	32672	35932	
1543	0	32788	32743	35912	
1544	0	32756	32728	35937	
1545	0	32736	32800	35932	
1546	0	32652	32950	35940	
1547	0	32713	32870	35924	
1548	0	32736	32918	35936	
1549	0	32774	32950	35920	
1550	0	32758	32869	35919	
1551	0	32796	32944	35904	
1552	0	32844	32932	35910	
1553	0	32860	32946	35900	
1554	0	32781	33006	35904	
1555	0	32783	32959	35901	
1556	0	32780	32968	35904	
1557	0	32852	32836	35915	
1558	0	32846	32781	35932	
1559	0	32825	32676	35921	
1560	0	32732	32625	35917	
1561	0	32744	32652	35946	
1562	0	32812	32684	35945	
1563	0	32768	32697	35951	
1564	0	32696	32723	35936	
1565	0	32744	32858	35940	
1566	0	32714	32812	35933	
1567	0	32704	32784	35936	
1568	0	32776	32868	35940	
1569	0	32812	32905	35941	
1570	0	32784	32836	35944	
1571	0	32772	32956	35920	
1572	0	32820	32959	35943	
1573	0	32796	32936	35940	
1574	0	32796	32985	35937	
1575	0	32876	33024	35910	
1576	0	32828	32853	35908	
1577	0	32872	32802	35904	
1578	0	32812	32775	35908	
1579	0	32857	32720	35935	
1580	0	32848	32657	35944	
1581	0	32748	32692	35960	
1582	0	32760	32661	35955	
1583	0	32716	32668	35936	
1584	0	32785	32817	35934	
1585	0	32752	32748	35940	
1586	0	32759	32832	35936	
1587	0	32752	32910	35932	
1588	0	32760	32860	35937	
1589	0	32700	32836	35953	
1590	0	32781	32957	35956	
1591	0	32820	32924	35940	
1592	0	32794	32914	35922	
1593	0	32874	32940	35916	
1594	0	32906	32980	35913	
1595	0	32844	32958	35921	
1596	0	32804	32746	35896	
1597	0	32804	32813	35906	
1598	0	32824	32784	35904	
1599	0	32760	32676	35904	
1600	0	32784	32677	35904	
1601	0	32753	32689	35924	
1602	0	32762	32774	35924	
1603	0	32708	32817	35913	
1604	0	32826	32737	35924	
1605	0	32796	32793	35908	
1606	0	32736	32868	35933	
1607	0	32784	32965	35948	
1608	0	32826	32903	35964	
1609	0	32736	32845	35916	
1610	0	32769	32904	35910	
1611	0	32820	32968	35928	
1612	0	32760	32918	35900	
1613	0	32853	32910	35890	
1614	0	32840	32996	35912	
1615	0	32868	32893	35933	
1616	0	32812	32858	35932	
1617	0	32796	32796	35934	
1618	0	32804	32725	35929	
1619	0	32828	32740	35920	
1620	0	32765	32725	35924	
1621	0	32780	32621	35937	
1622	0	32736	32676	35945	
1623	0	32684	32736	35947	
1624	0	32740	32736	35964	
1625	0	32753	32766	35952	
1626	0	32768	32864	35952	
1627	0	32765	32832	35960	
1628	0	32708	32893	35952	
1629	0	32804	32944	35943	
1630	0	32786	32932	35944	
1631	0	32825	32896	35920	
1632	0	32824	32997	35916	
1633	0	32812	32994	35921	
1634	0	32824	33020	35914	
1635	0	32821	32906	35908	
1636	0	32789	32925	35924	
1637	0	32832	32860	35944	
1638	0	32780	32694	35948	
1639	0	32852	32708	35948	
1640	0	32816	32692	35940	
1641	0	32716	32645	35952	
1642	0	32812	32612	35958	
1643	0	32797	32764	35936	
1644	0	32696	32752	35920	
1645	0	32712	32770	35916	
1646	0	32712	32856	35916	
1647	0	32756	32916	35908	
1648	0	32736	32902	35912	
1649	0	32796	32864	35896	
1650	0	32792	32924	35889	
1651	0	32872	32935	35909	
1652	0	32813	32893	35916	
1653	0	32804	33009	35910	
1654	0	32836	33006	35918	
1655	0	32904	32924	35914	
1656	0	32805	32804	35946	
1657	0	32788	32785	35918	
1658	0	32804	32789	35908	
1659	0	32793	32772	35924	
1660	0	32788	32686	35920	
1661	0	32764	32654	35916	
1662	0	32766	32709	35936	
1663	0	32760	32744	35941	
1664	0	32776	32772	35958	
1665	0	32740	32748	35940	
1666	0	32776	32788	35916	
1667	0	32760	32868	35904	
1668	0	32708	32923	35920	
1669	0	32800	32892	35918	
1670	0	32782	32935	35925	
1671	0	32798	32978	35911	
1672	0	32804	32885	35912	
1673	0	32897	32991	35912	
1674	0	32832	33028	35916	
1675	0	32820	32919	35927	
1676	0	32780	32854	35936	
1677	0	32781	32845	35928	
1678	0	32781	32724	35924	
1679	0	32836	32760	35900	
1680	0	32832	32652	35921	
1681	0	32756	32661	35912	
1682	0	32832	32703	35904	
1683	0	32716	32835	35929	
1684	0	32764	32770	35922	
1685	0	32704	32726	35948	
1686	0	32706	32805	35948	
1687	0	32752	32856	35928	
1688	0	32837	32856	35913	
1689	0	32804	32897	35908	
1690	0	32741	32932	35902	
1691	0	32772	32908	35904	
1692	0	32816	32876	35888	
1693	0	32809	32862	35900	
1694	0	32836	32920	35884	
1695	0	32753	32984	35916	
1696	0	32828	32852	35908	
1697	0	32801	32768	35916	
1698	0	32816	32742	35916	
1699	0	32784	32797	35932	
1700	0	32804	32716	35929	
1701	0	32757	32648	35945	
1702	0	32783	32672	35940	
1703	0	32768	32801	35960	
1704	0	32680	32796	35945	
1705	0	32652	32785	35935	
1706	0	32736	32805	35952	
1707	0	32768	32732	35920	
1708	0	32826	32922	35932	
1709	0	32764	32909	35935	
1710	0	32784	32865	35930	
1711	0	32778	32849	35938	
1712	0	32788	32900	35933	
1713	0	32826	32974	35933	
1714	0	32881	32964	35960	
1715	0	32817	32964	35952	
1716	0	32829	32903	35943	
1717	0	32813	32853	35926	
1718	0	32812	32846	35932	
1719	0	32814	32688	35924	
1720	0	32780	32601	35933	
1721	0	32717	32652	35952	
1722	0	32789	32738	35940	
1723	0	32769	32688	35944	
1724	0	32716	32816	35940	
1725	0	32780	32824	35937	
1726	0	32768	32856	35940	
1727	0	32820	32808	35940	
1728	0	32757	32956	35940	
1729	0	32769	33010	35921	
1730	0	32804	32898	35906	
1731	0	32804	32951	35892	
1732	0	32822	33004	35912	
1733	0	32804	32984	35924	
1734	0	32868	32985	35906	
1735	0	32784	32892	35897	
1736	0	32792	32845	35944	
1737	0	32816	32771	35975	
1738	0	32796	32768	35972	
1739	0	32832	32605	35970	
1740	0	32832	32620	35956	
1741	0	32781	32632	35945	
1742	0	32760	32685	35932	
1743	0	32732	32797	35940	
1744	0	32796	32798	35936	
1745	0	32704	32858	35944	
1746	0	32756	32836	35951	
1747	0	32796	32996	35956	
1748	0	32744	32913	35968	
1749	0	32772	32943	35968	
1750	0	32740	32890	35944	
1751	0	32778	32964	35949	
1752	0	32768	32916	35940	
1753	0	32862	32930	35922	
1754	0	32880	32970	35914	
1755	0	32840	33005	35916	
1756	0	32852	32836	35924	
1757	0	32768	32740	35940	
1758	0	32793	32740	35961	
1759	0	32852	32737	35956	
1760	0	32776	32642	35960	
1761	0	32808	32612	35948	
1762	0	32776	32680	35965	
1763	0	32736	32710	35940	
1764	0	32748	32799	35944	
1765	0	32812	32905	35934	
1766	0	32688	32832	35932	
1767	0	32762	32876	35926	
1768	0	32758	32908	35924	
1769	0	32756	32948	35912	
1770	0	32769	32949	35892	
1771	0	32868	32925	35882	
1772	0	32868	32906	35876	
1773	0	32733	32967	35884	
1774	0	32812	33032	35885	
1775	0	32880	32938	35908	
1776	0	32852	32861	35908	
1777	0	32836	32822	35893	
1778	0	32848	32768	35892	
1779	0	32772	32708	35932	
1780	0	32748	32722	35927	
1781	0	32671	32644	35940	
1782	0	32808	32621	35952	
1783	0	32720	32744	35943	
1784	0	32724	32775	35926	
1785	0	32746	32806	35908	
1786	0	32792	32816	35908	
1787	0	32772	32775	35908	
1788	0	32784	32852	35905	
1789	0	32812	32878	35923	
1790	0	32798	32901	35918	
1791	0	32764	32864	35925	
1792	0	32728	32949	35913	
1793	0	32828	33004	35908	
1794	0	32828	32892	35876	
1795	0	32865	32952	35884	
1796	0	32832	32872	35917	
1797	0	32808	32788	35920	
1798	0	32804	32778	35936	
1799	0	32784	32836	35956	
1800	0	32800	32752	35952	
1801	0	32800	32592	35946	
1802	0	32788	32610	35948	
1803	0	32732	32809	35968	
1804	0	32781	32804	35980	
1805	0	32736	32820	35942	
1806	0	32780	32791	35964	
1807	0	32788	32903	35942	
1808	0	32749	32865	35964	
1809	0	32705	32880	35944	
1810	0	32752	32908	35941	
1811	0	32832	32896	35940	
1812	0	32844	32906	35906	
1813	0	32788	33020	35892	
1814	0	32820	33013	35896	
1815	0	32836	32920	35912	
1816	0	32818	32824	35911	
1817	0	32780	32836	35914	
1818	0	32804	32796	35937	
1819	0	32800	32695	35936	
1820	0	32800	32706	35917	
1821	0	32716	32681	35936	
1822	0	32800	32610	35918	
1823	0	32790	32692	35940	
1824	0	32702	32848	35941	
1825	0	32692	32798	35944	
1826	0	32724	32824	35946	
1827	0	32760	32887	35940	
1828	0	32752	32864	35926	
1829	0	32777	32804	35932	
1830	0	32804	32964	35916	
1831	0	32806	32863	35912	
1832	0	32824	32914	35912	
1833	0	32789	32956	35920	
1834	0	32816	32935	35908	
1835	0	32848	32936	35894	
1836	0	32870	32993	35908	
1837	0	32836	32843	35944	
1838	0	32896	32758	35942	
1839	0	32796	32720	35946	
1840	0	32762	32762	35920	
1841	0	32724	32765	35932	
1842	0	32796	32756	35928	
1843	0	32732	32767	35940	
1844	0	32714	32821	35936	
1845	0	32760	32792	35924	
1846	0	32752	32800	35918	
1847	0	32708	32896	35880	
1848	0	32744	32860	35876	
1849	0	32756	32809	35884	
1850	0	32736	32824	35901	
1851	0	32785	32844	35884	
1852	0	32837	32958	35882	
1853	0	32860	33021	35873	
1854	0	32812	32964	35887	
1855	0	32740	32870	35887	
1856	0	32817	32845	35911	
1857	0	32824	32800	35924	
1858	0	32817	32876	35928	
1859	0	32788	32748	35952	
1860	0	32736	32652	35965	
1861	0	32800	32553	35969	
1862	0	32824	32572	35956	
1863	0	32788	32736	35951	
1864	0	32754	32789	35956	
1865	0	32696	32796	35940	
1866	0	32708	32893	35928	
1867	0	32692	32836	35911	
1868	0	32774	32794	35911	
1869	0	32720	32881	35901	
1870	0	32776	32903	35917	
1871	0	32792	32976	35896	
1872	0	32817	32986	35886	
1873	0	32836	32973	35884	
1874	0	32868	32937	35881	
1875	0	32844	32937	35874	
1876	0	32788	33012	35916	
1877	0	32800	32826	35893	
1878	0	32800	32800	35908	
1879	0	32772	32733	35927	
1880	0	32848	32700	35936	
1881	0	32832	32586	35940	
1882	0	32794	32657	35908	
1883	0	32732	32743	35918	
1884	0	32748	32748	35934	
1885	0	32724	32796	35938	
1886	0	32760	32891	35908	
1887	0	32756	32903	35896	
1888	0	32764	32854	35890	
1889	0	32756	32874	35910	
1890	0	32760	32852	35902	
1891	0	32732	32910	35892	
1892	0	32892	32945	35884	
1893	0	32828	32917	35884	
1894	0	32857	32954	35876	
1895	0	32874	32961	35870	
1896	0	32797	32920	35876	
1897	0	32868	32807	35902	
1898	0	32806	32858	35929	
1899	0	32737	32598	35918	
1900	0	32800	32664	35914	
1901	0	32744	32692	35928	
1902	0	32792	32726	35936	
1903	0	32804	32695	35916	
1904	0	32717	32788	35908	
1905	0	32738	32813	35916	
1906	0	32796	32900	35928	
1907	0	32732	32858	35915	
1908	0	32836	32916	35920	
1909	0	32748	32908	35908	
1910	0	32768	32986	35904	
1911	0	32814	32868	35894	
1912	0	32804	32906	35877	
1913	0	32808	32950	35908	
1914	0	32780	32999	35944	
1915	0	32800	32941	35912	
1916	0	32824	32813	35922	
1917	0	32838	32818	35918	
1918	0	32896	32764	35917	
1919	0	32816	32676	35940	
1920	0	32850	32632	35939	
1921	0	32720	32614	35920	
1922	0	32728	32638	35936	
1923	0	32693	32685	35940	
1924	0	32777	32752	35925	
1925	0	32817	32796	35892	
1926	0	32772	32784	35900	
1927	0	32728	32860	35903	
1928	0	32784	32878	35908	
1929	0	32722	32881	35888	
1930	0	32788	32856	35884	
1931	0	32820	32901	35882	
1932	0	32852	32984	35902	
1933	0	32816	32916	35900	
1934	0	32764	32921	35884	
1935	0	32818	32948	35892	
1936	0	32850	32932	35889	
1937	0	32808	32908	35892	
1938	0	32836	32853	35900	
1939	0	32772	32697	35920	
1940	0	32813	32600	35912	
1941	0	32720	32637	35921	
1942	0	32793	32696	35904	
1943	0	32842	32716	35892	
1944	0	32760	32808	35911	
1945	0	32708	32848	35920	
1946	0	32670	32902	35918	
1947	0	32772	32920	35908	
1948	0	32744	32889	35894	
1949	0	32808	32913	35892	
1950	0	32732	32965	35896	
1951	0	32796	32936	35890	
1952	0	32896	32986	35901	
1953	0	32844	33025	35906	
1954	0	32832	33002	35884	
1955	0	32856	32964	35885	
1956	0	32856	32880	35916	
1957	0	32820	32741	35902	
1958	0	32832	32702	35908	
1959	0	32784	32625	35918	
1960	0	32788	32640	35908	
1961	0	32788	32724	35932	
1962	0	32756	32750	35937	
1963	0	32772	32722	35932	
1964	0	32772	32761	35940	
1965	0	32696	32857	35936	
1966	0	32820	32876	35929	
1967	0	32758	32852	35920	
1968	0	32740	32780	35926	
1969	0	32737	32868	35930	
1970	0	32800	32964	35916	
1971	0	32812	32929	35900	
1972	0	32840	32880	35885	
1973	0	32774	32898	35876	
1974	0	32800	32932	35892	
1975	0	32850	32968	35904	
1976	0	32856	32884	35904	
1977	0	32804	32856	35904	
1978	0	32800	32832	35924	
1979	0	32808	32732	35924	
1980	0	32820	32738	35920	
1981	0	32728	32727	35932	
1982	0	32784	32684	35940	
1983	0	32808	32715	35932	
1984	0	32740	32716	35928	
1985	0	32752	32807	35913	
1986	0	32789	32918	35924	
1987	0	32756	32896	35913	
1988	0	32732	32832	35924	
1989	0	32760	32894	35928	
1990	0	32764	32864	35914	
1991	0	32768	32860	35929	
1992	0	32832	32912	35920	
1993	0	32852	33040	35908	
1994	0	32856	33038	35908	
1995	0	32884	32919	35910	
1996	0	32784	32873	35896	
1997	0	32872	32726	35892	
1998	0	32877	32804	35904	
1999	0	32792	32689	35909	
2000	0	32864	32646	35905	
2001	0	32762	32733	35918	
2002	0	32768	32696	35920	
2003	0	32781	32716	35912	
2004	0	32728	32708	35928	
2005	0	32724	32760	35932	
2006	0	32768	32864	35904	
2007	0	32724	32938	35906	
2008	0	32720	32922	35888	
2009	0	32741	32910	35892	
2010	0	32800	32912	35896	
2011	0	32760	32957	35889	
2012	0	32761	32961	35882	
2013	0	32852	32918	35893	
2014	0	32828	32979	35896	
2015	0	32820	32996	35882	
2016	0	32852	32924	35892	
2017	0	32840	32805	35908	
2018	0	32812	32744	35909	
2019	0	32865	32720	35922	
2020	0	32753	32738	35928	
2021	0	32760	32703	35949	
2022	0	32740	32634	35953	
2023	0	32772	32730	35945	
2024	0	32820	32760	35937	
2025	0	32720	32865	35933	
2026	0	32792	32890	35932	
2027	0	32740	32860	35921	
2028	0	32748	32863	35914	
2029	0	32732	32940	35928	
2030	0	32748	32840	35928	
2031	0	32824	32870	35938	
2032	0	32846	32884	35932	
2033	0	32825	32936	35932	
2034	0	32808	32946	35937	
2035	0	32852	32929	35927	
2036	0	32794	32920	35917	
2037	0	32792	32796	35936	
2038	0	32774	32800	35926	
2039	0	32824	32716	35941	
2040	0	32777	32804	35949	
2041	0	32792	32638	35942	
2042	0	32788	32625	35960	
2043	0	32780	32708	35959	
2044	0	32773	32762	35940	
2045	0	32710	32710	35932	
2046	0	32732	32911	35972	
2047	0	32754	32932	35968	
2048	0	32740	32924	35944	
2049	0	32684	32874	35944	
2050	0	32792	32868	35940	
2051	0	32844	32902	35941	
2052	0	32777	32967	35937	
2053	0	32832	32916	35928	
2054	0	32814	33020	35940	
2055	0	32876	32924	35916	
2056	0	32824	32876	35936	
2057	0	32800	32820	35909	
2058	0	32820	32722	35905	
2059	0	32827	32733	35908	
2060	0	32793	32669	35906	
2061	0	32756	32609	35892	
2062	0	32692	32665	35882	
2063	0	32800	32688	35904	
2064	0	32788	32709	35916	
2065	0	32724	32788	35892	
2066	0	32720	32876	35912	
2067	0	32684	32922	35900	
2068	0	32780	32847	35909	
2069	0	32760	32857	35906	
2070	0	32772	32924	35920	
2071	0	32832	32916	35916	
2072	0	32821	32935	35901	
2073	0	32821	32892	35900	
2074	0	32798	33016	35886	
2075	0	32858	33014	35896	
2076	0	32824	32874	35928	
2077	0	32808	32798	35932	
2078	0	32800	32814	35967	
2079	0	32788	32768	35980	
2080	0	32837	32794	35958	
2081	0	32756	32666	35956	
2082	0	32768	32753	35956	
2083	0	32756	32757	35940	
2084	0	32764	32841	35964	
2085	0	32764	32825	35944	
2086	0	32780	32862	35946	
2087	0	32732	32856	35920	
2088	0	32732	32813	35916	
2089	0	32713	32896	35912	
2090	0	32796	32896	35905	
2091	0	32832	32952	35876	
2092	0	32836	32922	35877	
2093	0	32900	32972	35870	
2094	0	32768	32898	35870	
2095	0	32817	32884	35900	
2096	0	32890	32904	35896	
2097	0	32837	32784	35916	
2098	0	32848	32744	35912	
2099	0	32804	32712	35920	
2100	0	32790	32708	35924	
2101	0	32800	32600	35936	
2102	0	32804	32616	35950	
2103	0	32774	32682	35961	
2104	0	32740	32742	35960	
2105	0	32720	32782	35957	
2106	0	32740	32903	35950	
2107	0	32785	32911	35964	
2108	0	32736	32896	35956	
2109	0	32748	32884	35940	
2110	0	32730	33009	35940	
2111	0	32786	32924	35933	
2112	0	32865	32924	35925	
2113	0	32800	32980	35936	
2114	0	32804	32908	35940	
2115	0	32853	32968	35932	
2116	0	32820	32905	35932	
2117	0	32828	32824	35934	
2118	0	32800	32893	35938	
2119	0	32745	32669	35932	
2120	0	32796	32698	35932	
2121	0	32764	32634	35944	
2122	0	32775	32676	35940	
2123	0	32772	32785	35940	
2124	0	32828	32728	35924	
2125	0	32752	32803	35928	
2126	0	32748	32775	35936	
2127	0	32752	32830	35924	
2128	0	32767	32929	35936	
2129	0	32728	32942	35943	
2130	0	32752	32897	35937	
2131	0	32816	32909	35917	
2132	0	32801	32892	35908	
2133	0	32804	32956	35908	
2134	0	32860	32903	35908	
2135	0	32814	32908	35921	
2136	0	32841	32876	35900	
2137	0	32872	32780	35913	
2138	0	32836	32708	35927	
2139	0	32776	32716	35928	
2140	0	32761	32769	35925	
2141	0	32776	32656	35936	
2142	0	32792	32628	35937	
2143	0	32800	32687	35944	
2144	0	32764	32722	35940	
2145	0	32706	32734	35924	
2146	0	32718	32802	35916	
2147	0	32704	32844	35921	
2148	0	32749	32848	35932	
2149	0	32768	32885	35928	
2150	0	32832	33004	35933	
2151	0	32792	32973	35950	
2152	0	32844	32970	35936	
2153	0	32856	32942	35946	
2154	0	32908	32936	35932	
2155	0	32836	32976	35920	
2156	0	32812	32942	35936	
2157	0	32916	32917	35916	
2158	0	32828	32808	35901	
2159	0	32776	32770	35906	
2160	0	32680	32788	35900	
2161	0	32800	32720	35924	
2162	0	32792	32600	35940	
2163	0	32757	32745	35944	
2164	0	32781	32818	35929	
2165	0	32752	32750	35944	
2166	0	32725	32812	35936	
2167	0	32762	32832	35926	
2168	0	32732	32895	35919	
2169	0	32696	32881	35892	
2170	0	32792	32832	35885	
2171	0	32808	32860	35892	
2172	0	32780	32871	35888	
2173	0	32792	32956	35878	
2174	0	32884	32940	35880	
2175	0	32816	32916	35898	
2176	0	32892	32916	35922	
2177	0	32860	32920	35908	
2178	0	32773	32756	35908	
2179	0	32794	32777	35910	
2180	0	32804	32694	35924	
2181	0	32780	32644	35948	
2182	0	32788	32637	35944	
2183	0	32734	32792	35922	
2184	0	32804	32769	35916	
2185	0	32756	32830	35918	
2186	0	32768	32800	35922	
2187	0	32724	32916	35924	
2188	0	32734	32912	35912	
2189	0	32780	32889	35932	
2190	0	32776	32928	35920	
2191	0	32764	32941	35918	
2192	0	32836	33021	35916	
2193	0	32836	32940	35917	
2194	0	32788	32863	35912	
2195	0	32878	32938	35924	
2196	0	32890	32884	35912	
2197	0	32804	32775	35920	
2198	0	32781	32756	35925	
2199	0	32812	32692	35930	
2200	0	32792	32666	35926	
2201	0	32696	32728	35932	
2202	0	32808	32720	35941	
2203	0	32720	32754	35940	
2204	0	32714	32708	35932	
2205	0	32768	32753	35932	
2206	0	32772	32800	35928	
2207	0	32720	32884	35913	
2208	0	32744	32937	35909	
2209	0	32789	32940	35924	
2210	0	32804	32948	35916	
2211	0	32740	32876	35927	
2212	0	32876	32895	35919	
2213	0	32804	32962	35913	
2214	0	32832	33047	35932	
2215	0	32868	33001	35920	
2216	0	32785	32836	35908	
2217	0	32809	32840	35926	
2218	0	32828	32862	35929	
2219	0	32836	32762	35940	
2220	0	32741	32649	35942	
2221	0	32808	32681	35942	
2222	0	32757	32696	35941	
2223	0	32768	32738	35940	
2224	0	32676	32753	35940	
2225	0	32768	32780	35931	
2226	0	32708	32783	35945	
2227	0	32760	32908	35932	
2228	0	32756	32916	35928	
2229	0	32788	32862	35928	
2230	0	32830	32839	35925	
2231	0	32773	32856	35905	
2232	0	32852	32948	35914	
2233	0	32824	32965	35921	
2234	0	32852	32980	35921	
2235	0	32796	32925	35920	
2236	0	32848	32920	35908	
2237	0	32856	32909	35914	
2238	0	32854	32793	35912	
2239	0	32804	32749	35918	
2240	0	32804	32734	35922	
2241	0	32724	32762	35936	
2242	0	32773	32716	35941	
2243	0	32736	32744	35937	
2244	0	32724	32782	35940	
2245	0	32800	32756	35933	
2246	0	32692	32781	35941	
2247	0	32752	32850	35930	
2248	0	32784	32872	35924	
2249	0	32774	32933	35940	
2250	0	32812	32937	35913	
2251	0	32776	32936	35912	
2252	0	32868	32882	35892	
2253	0	32792	32862	35896	
2254	0	32839	32876	35899	
2255	0	32864	32903	35904	
2256	0	32808	32900	35892	
2257	0	32791	32783	35885	
2258	0	32756	32743	35904	
2259	0	32796	32679	35925	
2260	0	32821	32674	35948	
2261	0	32764	32550	35945	
2262	0	32800	32655	35940	
2263	0	32700	32806	35938	
2264	0	32737	32746	35961	
2265	0	32664	32806	35941	
2266	0	32693	32857	35937	
2267	0	32824	32850	35916	
2268	0	32748	32865	35900	
2269	0	32728	32880	35889	
2270	0	32740	32870	35912	
2271	0	32796	32919	35892	
2272	0	32828	33016	35916	
2273	0	32848	32986	35905	
2274	0	32836	32944	35909	
2275	0	32852	32854	35925	
2276	0	32817	32916	35932	
2277	0	32844	32904	35916	
2278	0	32772	32782	35914	
2279	0	32797	32676	35925	
2280	0	32792	32637	35913	
2281	0	32784	32620	35916	
2282	0	32768	32657	35919	
2283	0	32724	32746	35896	
2284	0	32730	32702	35904	
2285	0	32804	32764	35916	
2286	0	32729	32797	35928	
2287	0	32722	32861	35919	
2288	0	32720	32952	35924	
2289	0	32780	32902	35940	
2290	0	32712	32932	35938	
2291	0	32836	32913	35930	
2292	0	32852	32998	35920	
2293	0	32856	33012	35933	
2294	0	32812	32999	35920	
2295	0	32808	32981	35920	
2296	0	32800	32884	35935	
2297	0	32834	32744	35934	
2298	0	32818	32716	35924	
2299	0	32788	32752	35932	
2300	0	32768	32720	35940	
2301	0	32778	32685	35951	
2302	0	32793	32609	35953	
2303	0	32716	32783	35940	
2304	0	32788	32728	35925	
2305	0	32733	32856	35925	
2306	0	32724	32828	35932	
2307	0	32752	32912	35928	
2308	0	32772	32892	35942	
2309	0	32736	32886	35931	
2310	0	32726	32952	35916	
2311	0	32805	32927	35904	
2312	0	32826	32926	35896	
2313	0	32824	32970	35916	
2314	0	32764	32938	35904	
2315	0	32824	32940	35908	
2316	0	32800	32920	35910	
2317	0	32852	32845	35921	
2318	0	32876	32764	35911	
2319	0	32836	32704	35925	
2320	0	32800	32750	35927	
2321	0	32766	32648	35940	
2322	0	32728	32664	35951	
2323	0	32776	32685	35944	
2324	0	32766	32820	35952	
2325	0	32764	32856	35929	
2326	0	32752	32848	35944	
2327	0	32708	32844	35928	
2328	0	32798	32901	35943	
2329	0	32772	32872	35932	
2330	0	32720	32852	35922	
2331	0	32810	32902	35908	
2332	0	32820	32912	35909	
2333	0	32854	33015	35904	
2334	0	32804	32948	35894	
2335	0	32824	32956	35876	
2336	0	32752	32866	35888	
2337	0	32784	32832	35914	
2338	0	32902	32825	35915	
2339	0	32840	32666	35932	
2340	0	32789	32622	35945	
2341	0	32744	32582	35944	
2342	0	32764	32656	35984	
2343	0	32804	32709	35960	
2344	0	32752	32731	35956	
2345	0	32682	32812	35945	
2346	0	32780	32837	35950	
2347	0	32720	32805	35954	
2348	0	32714	32872	35936	
2349	0	32757	32910	35932	
2350	0	32788	32864	35912	
2351	0	32825	33012	35900	
2352	0	32826	32944	35916	
2353	0	32780	32968	35911	
2354	0	32844	33001	35906	
2355	0	32858	32968	35908	
2356	0	32813	32872	35886	
2357	0	32858	32912	35924	
2358	0	32856	32765	35926	
2359	0	32768	32708	35938	
2360	0	32837	32633	35936	
2361	0	32720	32631	35941	
2362	0	32748	32700	35933	
2363	0	32724	32716	35933	
2364	0	32728	32738	35926	
2365	0	32760	32876	35924	
2366	0	32760	32844	35916	
2367	0	32776	32956	35932	
2368	0	32756	32868	35929	
2369	0	32764	32858	35912	
2370	0	32808	32988	35944	
2371	0	32830	32911	35910	
2372	0	32852	32960	35904	
2373	0	32821	32948	35914	
2374	0	32816	32868	35921	
2375	0	32761	32952	35913	
2376	0	32809	32828	35910	
2377	0	32836	32780	35928	
2378	0	32862	32744	35974	
2379	0	32816	32708	35961	
2380	0	32782	32680	35968	
2381	0	32781	32730	35954	
2382	0	32808	32694	35944	
2383	0	32825	32700	35970	
2384	0	32784	32834	35949	
2385	0	32734	32812	35956	
2386	0	32706	32844	35957	
2387	0	32760	32845	35938	
2388	0	32700	32880	35920	
2389	0	32752	32832	35916	
2390	0	32764	32895	35916	
2391	0	32856	32983	35896	
2392	0	32924	32994	35906	
2393	0	32778	32932	35906	
2394	0	32808	32916	35925	
2395	0	32812	33000	35914	
2396	0	32772	32904	35898	
2397	0	32812	32904	35893	
2398	0	32844	32849	35908	
2399	0	32748	32688	35943	
2400	0	32805	32694	35936	
2401	0	32761	32593	35956	
2402	0	32760	32630	35960	
2403	0	32820	32692	35954	
2404	0	32700	32764	35952	
2405	0	32734	32821	35955	
2406	0	32716	32832	35944	
2407	0	32768	32965	35958	
2408	0	32736	32956	35972	
2409	0	32752	32892	35969	
2410	0	32784	32928	35960	
2411	0	32818	32969	35928	
2412	0	32824	33007	35940	
2413	0	32844	32980	35940	
2414	0	32812	32976	35920	
2415	0	32864	33001	35932	
2416	0	32862	32973	35916	
2417	0	32801	32858	35924	
2418	0	32765	32832	35925	
2419	0	32808	32680	35942	
2420	0	32744	32664	35934	
2421	0	32753	32680	35945	
2422	0	32752	32629	35942	
2423	0	32784	32694	35933	
2424	0	32753	32752	35952	
2425	0	32748	32720	35940	
2426	0	32724	32716	35935	
2427	0	32734	32966	35940	
2428	0	32812	32892	35951	
2429	0	32776	32896	35968	
2430	0	32752	32960	35953	
2431	0	32773	32964	35921	
2432	0	32784	32928	35924	
2433	0	32848	32924	35924	
2434	0	32896	33062	35936	
2435	0	32823	32913	35938	
2436	0	32820	32868	35938	
2437	0	32797	32828	35953	
2438	0	32838	32736	35943	
2439	0	32820	32634	35945	
2440	0	32748	32664	35956	
2441	0	32764	32701	35958	
2442	0	32797	32677	35972	
2443	0	32774	32700	35948	
2444	0	32732	32758	35960	
2445	0	32753	32839	35956	
2446	0	32752	32893	35952	
2447	0	32712	32868	35938	
2448	0	32712	32904	35944	
2449	0	32764	32961	35920	
2450	0	32844	32957	35932	
2451	0	32768	32893	35946	
2452	0	32808	32931	35932	
2453	0	32808	33028	35956	
2454	0	32868	33000	35932	
2455	0	32824	33003	35932	
2456	0	32805	32990	35932	
2457	0	32780	32814	35922	
2458	0	32804	32778	35917	
2459	0	32834	32654	35920	
2460	0	32812	32652	35924	
2461	0	32772	32614	35940	
2462	0	32784	32648	35940	
2463	0	32740	32708	35956	
2464	0	32750	32761	35945	
2465	0	32756	32790	35937	
2466	0	32684	32792	35928	
2467	0	32768	32974	35936	
2468	0	32737	32898	35930	
2469	0	32753	32948	35920	
2470	0	32780	32945	35918	
2471	0	32800	32980	35892	
2472	0	32820	32970	35904	
2473	0	32816	32929	35902	
2474	0	32840	32911	35892	
2475	0	32788	32862	35904	
2476	0	32788	32906	35904	
2477	0	32820	32868	35927	
2478	0	32780	32829	35925	
2479	0	32860	32780	35926	
2480	0	32792	32676	35932	
2481	0	32760	32577	35940	
2482	0	32740	32694	35941	
2483	0	32804	32708	35940	
2484	0	32778	32799	35928	
2485	0	32774	32820	35924	
2486	0	32700	32781	35940	
2487	0	32808	32847	35958	
2488	0	32792	32897	35945	
2489	0	32780	32960	35944	
2490	0	32769	32996	35944	
2491	0	32808	32867	35936	
2492	0	32816	32922	35951	
2493	0	32864	33048	35937	
2494	0	32780	32924	35936	
2495	0	32844	32929	35920	
2496	0	32768	32903	35916	
2497	0	32852	32826	35948	
2498	0	32788	32701	35940	
2499	0	32804	32809	35940	
2500	0	32800	32700	35932	
2501	0	32800	32594	35938	
2502	0	32772	32724	35936	
2503	0	32784	32687	35942	
2504	0	32760	32744	35944	
2505	0	32774	32817	35940	
2506	0	32705	32828	35940	
2507	0	32744	32889	35935	
2508	0	32784	32881	35932	
2509	0	32804	32889	35904	
2510	0	32764	33060	35908	
2511	0	32852	32936	35934	
2512	0	32800	32912	35958	
2513	0	32840	33015	35960	
2514	0	32776	32944	35968	
2515	0	32808	32936	35940	
2516	0	32900	32833	35928	
2517	0	32836	32828	35932	
2518	0	32828	32702	35942	
2519	0	32740	32672	35957	
2520	0	32837	32740	35960	
2521	0	32772	32612	35953	
2522	0	32738	32644	35956	
2523	0	32788	32798	35952	
2524	0	32764	32760	35956	
2525	0	32756	32852	35932	
2526	0	32776	32840	35948	
2527	0	32705	32864	35943	
2528	0	32772	32921	35930	
2529	0	32752	32885	35924	
2530	0	32848	32894	35932	
2531	0	32825	32889	35934	
2532	0	32817	32912	35901	
2533	0	32840	33000	35889	
2534	0	32804	33026	35900	
2535	0	32890	32948	35916	
2536	0	32792	32846	35922	
2537	0	32832	32884	35912	
2538	0	32836	32792	35928	
2539	0	32796	32767	35917	
2540	0	32805	32740	35928	
2541	0	32756	32605	35926	
2542	0	32810	32557	35912	
2543	0	32746	32646	35920	
2544	0	32752	32740	35928	
2545	0	32668	32805	35924	
2546	0	32790	32836	35948	
2547	0	32712	32828	35932	
2548	0	32728	32834	35933	
2549	0	32768	32836	35924	
2550	0	32770	32835	35896	
2551	0	32768	32822	35908	
2552	0	32816	32873	35906	
2553	0	32840	32979	35904	
2554	0	32848	32999	35901	
2555	0	32804	32933	35909	
2556	0	32844	33052	35908	
2557	0	32816	32864	35921	
2558	0	32812	32809	35908	
2559	0	32838	32775	35932	
2560	0	32811	32676	35946	
2561	0	32729	32622	35933	
2562	0	32780	32696	35962	
2563	0	32777	32712	35956	
2564	0	32696	32807	35960	
2565	0	32696	32784	35957	
2566	0	32744	32761	35957	
2567	0	32764	32812	35968	
2568	0	32760	32952	35944	
2569	0	32693	32973	35949	
2570	0	32788	32895	35928	
2571	0	32810	32893	35928	
2572	0	32900	32894	35924	
2573	0	32840	33031	35912	
2574	0	32788	32948	35920	
2575	0	32780	32916	35897	
2576	0	32856	32978	35924	
2577	0	32864	32876	35930	
2578	0	32844	32745	35951	
2579	0	32816	32718	35940	
2580	0	32800	32676	35942	
2581	0	32736	32722	35968	
2582	0	32732	32652	35956	
2583	0	32704	32649	35958	
2584	0	32736	32672	35951	
2585	0	32776	32768	35951	
2586	0	32782	32814	35965	
2587	0	32750	32820	35956	
2588	0	32760	32840	35925	
2589	0	32728	32948	35936	
2590	0	32728	32863	35945	
2591	0	32856	32928	35929	
2592	0	32808	32924	35906	
2593	0	32796	32973	35926	
2594	0	32868	32966	35921	
2595	0	32826	32941	35920	
2596	0	32884	32898	35937	
2597	0	32800	32804	35958	
2598	0	32816	32880	35948	
2599	0	32776	32733	35949	
2600	0	32792	32638	35921	
2601	0	32780	32601	35937	
2602	0	32732	32652	35952	
2603	0	32812	32665	35962	
2604	0	32736	32775	35976	
2605	0	32684	32860	35996	
2606	0	32668	32844	35982	
2607	0	32701	32856	35968	
2608	0	32767	32848	35966	
2609	0	32852	32928	35974	
2610	0	32816	32952	35968	
2611	0	32764	32982	35948	
2612	0	32928	32893	35928	
2613	0	32828	32960	35916	
2614	0	32862	32988	35932	
2615	0	32812	32997	35928	
2616	0	32876	32908	35948	
2617	0	32816	32814	35936	
2618	0	32818	32740	35925	
2619	0	32824	32836	35940	
2620	0	32872	32760	35946	
2621	0	32770	32572	35964	
2622	0	32800	32638	35970	
2623	0	32772	32700	35958	
2624	0	32749	32768	35960	
2625	0	32716	32904	35968	
2626	0	32712	32859	35950	
2627	0	32760	32872	35927	
2628	0	32760	32928	35920	
2629	0	32724	32933	35911	
2630	0	32736	32954	35909	
2631	0	32792	32945	35909	
2632	0	32812	32919	35920	
2633	0	32780	32903	35908	
2634	0	32808	32957	35908	
2635	0	32873	32996	35908	
2636	0	32776	32905	35905	
2637	0	32864	32852	35886	
2638	0	32798	32788	35900	
2639	0	32840	32669	35904	
2640	0	32760	32768	35928	
2641	0	32793	32724	35926	
2642	0	32788	32624	35945	
2643	0	32784	32638	35924	
2644	0	32748	32758	35921	
2645	0	32704	32869	35948	
2646	0	32748	32890	35944	
2647	0	32736	33012	35940	
2648	0	32768	32924	35940	
2649	0	32786	32850	35932	
2650	0	32760	32912	35927	
2651	0	32764	32964	35928	
2652	0	32793	32912	35926	
2653	0	32804	32893	35901	
2654	0	32800	32981	35904	
2655	0	32826	32996	35936	
2656	0	32832	32900	35956	
2657	0	32879	32718	35948	
2658	0	32800	32702	35953	
2659	0	32832	32724	35973	
2660	0	32746	32700	35956	
2661	0	32748	32616	35949	
2662	0	32796	32626	35953	
2663	0	32765	32708	35958	
2664	0	32708	32794	35958	
2665	0	32768	32844	35940	
2666	0	32728	32815	35961	
2667	0	32701	32838	35953	
2668	0	32776	32893	35936	
2669	0	32756	32893	35926	
2670	0	32764	32902	35927	
2671	0	32814	32885	35924	
2672	0	32864	32988	35941	
2673	0	32824	33014	35951	
2674	0	32832	32906	35937	
2675	0	32840	32932	35921	
2676	0	32780	32844	35904	
2677	0	32844	32868	35880	
2678	0	32841	32769	35910	
2679	0	32864	32656	35920	
2680	0	32836	32720	35945	
2681	0	32789	32620	35956	
2682	0	32776	32660	35936	
2683	0	32748	32764	35929	
2684	0	32714	32680	35938	
2685	0	32740	32757	35924	
2686	0	32748	32810	35942	
2687	0	32732	32892	35936	
2688	0	32722	32913	35968	
2689	0	32753	32975	35974	
2690	0	32793	32956	35953	
2691	0	32822	32928	35938	
2692	0	32844	32977	35932	
2693	0	32749	33040	35904	
2694	0	32813	32992	35922	
2695	0	32844	32958	35912	
2696	0	32826	32920	35921	
2697	0	32840	32844	35928	
2698	0	32864	32768	35949	
2699	0	32848	32680	35964	
2700	0	32772	32594	35956	
2701	0	32804	32568	35948	
2702	0	32746	32575	35956	
2703	0	32816	32788	35960	
2704	0	32732	32849	35944	
2705	0	32720	32789	35930	
2706	0	32744	32799	35945	
2707	0	32804	32903	35929	
2708	0	32708	32898	35928	
2709	0	32768	32876	35920	
2710	0	32806	32926	35894	
2711	0	32828	32958	35892	
2712	0	32852	32932	35916	
2713	0	32816	32908	35905	
2714	0	32804	32940	35908	
2715	0	32812	32974	35924	
2716	0	32876	32848	35932	
2717	0	32881	32732	35912	
2718	0	32792	32832	35916	
2719	0	32812	32740	35930	
2720	0	32772	32681	35916	
2721	0	32784	32675	35932	
2722	0	32766	32701	35948	
2723	0	32768	32740	35949	
2724	0	32708	32808	35949	
2725	0	32712	32869	35930	
2726	0	32748	32922	35924	
2727	0	32768	32925	35912	
2728	0	32669	32856	35916	
2729	0	32804	32852	35930	
2730	0	32788	32904	35928	
2731	0	32761	33000	35924	
2732	0	32840	32976	35921	
2733	0	32880	32852	35918	
2734	0	32832	32888	35909	
2735	0	32848	33001	35904	
2736	0	32868	32860	35905	
2737	0	32768	32868	35938	
2738	0	32836	32782	35933	
2739	0	32841	32724	35924	
2740	0	32748	32681	35944	
2741	0	32824	32612	35960	
2742	0	32716	32620	35940	
2743	0	32712	32780	35948	
2744	0	32802	32720	35950	
2745	0	32800	32762	35940	
2746	0	32724	32829	35932	
2747	0	32732	32944	35933	
2748	0	32702	32856	35936	
2749	0	32780	32892	35929	
2750	0	32765	32924	35928	
2751	0	32804	32937	35908	
2752	0	32824	32876	35896	
2753	0	32844	32900	35892	
2754	0	32800	32952	35918	
2755	0	32849	32868	35940	
2756	0	32804	32879	35925	
2757	0	32856	32836	35929	
2758	0	32836	32876	35936	
2759	0	32773	32684	35952	
2760	0	32797	32684	35972	
2761	0	32756	32556	35948	
2762	0	32801	32596	35933	
2763	0	32749	32735	35940	
2764	0	32740	32796	35940	
2765	0	32708	32775	35936	
2766	0	32750	32785	35932	
2767	0	32716	32881	35938	
2768	0	32732	32933	35920	
2769	0	32736	32876	35921	
2770	0	32794	32881	35930	
2771	0	32800	32942	35919	
2772	0	32788	33024	35930	
2773	0	32816	32980	35919	
2774	0	32824	32992	35932	
2775	0	32788	32893	35928	
2776	0	32820	32900	35928	
2777	0	32808	32896	35934	
2778	0	32840	32812	35936	
2779	0	32836	32644	35948	
2780	0	32832	32695	35945	
2781	0	32789	32712	35952	
2782	0	32792	32733	35949	
2783	0	32778	32760	35965	
2784	0	32768	32772	35957	
2785	0	32692	32800	35940	
2786	0	32729	32893	35952	
2787	0	32686	32888	35948	
2788	0	32712	32848	35932	
2789	0	32781	32852	35920	
2790	0	32780	32930	35924	
2791	0	32836	32958	35948	
2792	0	32796	32936	35912	
2793	0	32808	32991	35911	
2794	0	32824	33023	35885	
2795	0	32864	32980	35910	
2796	0	32868	32917	35928	
2797	0	32846	32856	35906	
2798	0	32808	32788	35908	
2799	0	32748	32696	35926	
2800	0	32820	32605	35958	
2801	0	32760	32700	35964	
2802	0	32776	32652	35960	
2803	0	32816	32678	35944	
2804	0	32724	32785	35917	
2805	0	32769	32868	35909	
2806	0	32764	32872	35912	
2807	0	32746	32886	35932	
2808	0	32704	32917	35928	
2809	0	32742	32876	35916	
2810	0	32764	32860	35920	
2811	0	32784	32990	35908	
2812	0	32848	32964	35910	
2813	0	32832	32961	35908	
2814	0	32844	32977	35924	
2815	0	32824	32916	35927	
2816	0	32784	32972	35924	
2817	0	32828	32904	35932	
2818	0	32820	32768	35928	
2819	0	32864	32677	35940	
2820	0	32780	32632	35959	
2821	0	32786	32622	35936	
2822	0	32732	32620	35964	
2823	0	32745	32668	35964	
2824	0	32744	32705	35949	
2825	0	32809	32796	35959	
2826	0	32732	32916	35972	
2827	0	32744	32825	35968	
2828	0	32708	32830	35956	
2829	0	32774	32972	35940	
2830	0	32772	32940	35908	
2831	0	32764	33055	35924	
2832	0	32812	32940	35927	
2833	0	32800	32984	35908	
2834	0	32805	32960	35908	
2835	0	32800	32966	35932	
2836	0	32864	32908	35956	
2837	0	32836	32840	35968	
2838	0	32812	32741	35957	
2839	0	32808	32724	35974	
2840	0	32772	32698	35969	
2841	0	32798	32676	35963	
2842	0	32804	32660	35968	
2843	0	32712	32704	35968	
2844	0	32670	32762	35955	
2845	0	32736	32767	35952	
2846	0	32696	32836	35964	
2847	0	32752	32854	35974	
2848	0	32776	32825	35969	
2849	0	32780	32992	35972	
2850	0	32792	32907	35952	
2851	0	32804	32836	35945	
2852	0	32817	32904	35948	
2853	0	32819	32928	35941	
2854	0	32820	32916	35953	
2855	0	32796	32904	35946	
2856	0	32860	32888	35961	
2857	0	32868	32868	35954	
2858	0	32800	32894	35956	
2859	0	32820	32701	35964	
2860	0	32793	32673	35964	
2861	0	32728	32684	35962	
2862	0	32776	32725	35954	
2863	0	32720	32696	35940	
2864	0	32813	32748	35928	
2865	0	32734	32703	35928	
2866	0	32676	32879	35926	
2867	0	32780	32850	35933	
2868	0	32728	32834	35940	
2869	0	32788	32892	35940	
2870	0	32760	32976	35932	
2871	0	32748	32900	35912	
2872	0	32860	32928	35924	
2873	0	32784	32980	35908	
2874	0	32892	32935	35928	
2875	0	32830	32964	35950	
2876	0	32848	32936	35937	
2877	0	32849	32816	35937	
2878	0	32840	32852	35960	
2879	0	32792	32873	35946	
2880	0	32768	32758	35950	
2881	0	32769	32676	35964	
2882	0	32725	32676	35948	
2883	0	32810	32665	35924	
2884	0	32720	32717	35924	
2885	0	32784	32829	35946	
2886	0	32697	32780	35949	
2887	0	32736	32852	35933	
2888	0	32716	32913	35943	
2889	0	32782	32984	35948	
2890	0	32784	32884	35949	
2891	0	32784	32892	35936	
2892	0	32861	32960	35904	
2893	0	32812	32970	35901	
2894	0	32812	32920	35896	
2895	0	32804	32964	35914	
2896	0	32865	32828	35941	
2897	0	32816	32766	35943	
2898	0	32828	32801	35936	
2899	0	32764	32737	35936	
2900	0	32784	32672	35953	
2901	0	32697	32613	35956	
2902	0	32744	32605	35964	
2903	0	32736	32816	35932	
2904	0	32720	32789	35925	
2905	0	32740	32829	35940	
2906	0	32757	32886	35948	
2907	0	32728	32945	35943	
2908	0	32712	32868	35949	
2909	0	32769	32873	35962	
2910	0	32796	32969	35957	
2911	0	32757	32906	35950	
2912	0	32852	32919	35936	
2913	0	32840	32943	35925	
2914	0	32846	32914	35948	
2915	0	32840	32966	35936	
2916	0	32860	32926	35906	
2917	0	32861	32908	35930	
2918	0	32892	32864	35916	
2919	0	32822	32782	35944	
2920	0	32786	32708	35932	
2921	0	32853	32702	35953	
2922	0	32742	32652	35956	
2923	0	32748	32806	35941	
2924	0	32720	32848	35940	
2925	0	32696	32820	35928	
2926	0	32784	32924	35908	
2927	0	32733	32804	35926	
2928	0	32688	32804	35941	
2929	0	32784	32842	35940	
2930	0	32788	32922	35948	
2931	0	32832	32936	35933	
2932	0	32780	32940	35916	
2933	0	32840	32909	35908	
2934	0	32820	32924	35916	
2935	0	32860	32914	35908	
2936	0	32808	32908	35933	
2937	0	32837	32812	35944	
2938	0	32864	32744	35949	
2939	0	32844	32637	35952	
2940	0	32852	32632	35952	
2941	0	32756	32628	35952	
2942	0	32748	32746	35960	
2943	0	32748	32758	35961	
2944	0	32720	32740	35956	
2945	0	32697	32836	35941	
2946	0	32757	32905	35932	
2947	0	32740	32844	35940	
2948	0	32760	32888	35934	
2949	0	32776	32944	35952	
2950	0	32728	32970	35962	
2951	0	32802	32878	35950	
2952	0	32848	32948	35940	
2953	0	32836	32872	35956	
2954	0	32804	33004	35922	
2955	0	32892	32964	35936	
2956	0	32824	32816	35940	
2957	0	32839	32798	35929	
2958	0	32836	32820	35929	
2959	0	32824	32684	35941	
2960	0	32812	32580	35937	
2961	0	32762	32646	35942	
2962	0	32728	32690	35944	
2963	0	32726	32742	35956	
2964	0	32780	32801	35957	
2965	0	32684	32792	35949	
2966	0	32792	32896	35946	
2967	0	32781	32872	35944	
2968	0	32732	32912	35917	
2969	0	32768	33052	35928	
2970	0	32820	32935	35928	
2971	0	32800	33004	35912	
2972	0	32824	32949	35925	
2973	0	32820	32900	35924	
2974	0	32828	32934	35924	
2975	0	32858	32904	35916	
2976	0	32848	32909	35927	
2977	0	32764	32806	35904	
2978	0	32848	32796	35896	
2979	0	32780	32741	35900	
2980	0	32854	32666	35914	
2981	0	32748	32660	35930	
2982	0	32756	32684	35912	
2983	0	32832	32760	35920	
2984	0	32740	32845	35916	
2985	0	32748	32806	35953	
2986	0	32720	32756	35942	
2987	0	32752	32832	35953	
2988	0	32692	32852	35949	
2989	0	32743	32896	35960	
2990	0	32781	32804	35940	
2991	0	32800	32924	35920	
2992	0	32800	32897	35928	
2993	0	32852	32974	35916	
2994	0	32856	32929	35916	
2995	0	32836	32901	35910	
2996	0	32783	32924	35908	
2997	0	32858	32873	35928	
2998	0	32800	32814	35961	
2999	0	32792	32679	35945	
3000	0	32812	32684	35951	
3001	0	32808	32688	35952	
3002	0	32828	32660	35944	
3003	0	32768	32796	35973	
3004	0	32776	32804	35972	
3005	0	32800	32813	35968	
3006	0	32732	32853	35976	
3007	0	32725	32924	35972	
3008	0	32796	32877	35960	
3009	0	32804	32919	35966	
3010	0	32792	32869	35964	
3011	0	32804	32892	35948	
3012	0	32772	32892	35936	
3013	0	32760	32972	35934	
3014	0	32808	32917	35934	
3015	0	32828	32944	35933	
3016	0	32848	32912	35925	
3017	0	32868	32899	35924	
3018	0	32808	32800	35920	
3019	0	32768	32708	35940	
3020	0	32856	32648	35960	
3021	0	32750	32653	35967	
3022	0	32802	32708	35967	
3023	0	32856	32780	35972	
3024	0	32698	32710	35952	
3025	0	32709	32768	35956	
3026	0	32772	32872	35951	
3027	0	32676	32848	35928	
3028	0	32844	32836	35916	
3029	0	32772	32876	35909	
3030	0	32728	32949	35916	
3031	0	32728	32908	35920	
3032	0	32748	32846	35916	
3033	0	32832	32960	35936	
3034	0	32816	32972	35926	
3035	0	32828	32984	35916	
3036	0	32848	32896	35904	
3037	0	32848	32954	35919	
3038	0	32888	32788	35950	
3039	0	32824	32716	35940	
3040	0	32790	32665	35934	
3041	0	32744	32756	35959	
3042	0	32748	32651	35932	
3043	0	32796	32710	35932	
3044	0	32724	32756	35943	
3045	0	32756	32879	35952	
3046	0	32684	32799	35942	
3047	0	32740	32874	35954	
3048	0	32748	32868	35940	
3049	0	32752	32820	35922	
3050	0	32812	32885	35916	
3051	0	32864	32964	35941	
3052	0	32820	32872	35912	
3053	0	32836	33000	35920	
3054	0	32876	32996	35936	
3055	0	32764	33012	35924	
3056	0	32844	32872	35964	
3057	0	32836	32873	35967	
3058	0	32848	32791	35974	
3059	0	32820	32812	35955	
3060	0	32844	32740	35952	
3061	0	32814	32676	35977	
3062	0	32753	32637	35972	
3063	0	32736	32760	36000	
3064	0	32754	32810	35983	
3065	0	32746	32801	35970	
3066	0	32732	32760	35966	
3067	0	32748	32818	35957	
3068	0	32760	32875	35972	
3069	0	32774	32932	35975	
3070	0	32744	32869	35956	
3071	0	32784	32864	35941	
3072	0	32764	32900	35949	
3073	0	32864	32957	35936	
3074	0	32797	32997	35926	
3075	0	32852	32964	35900	
3076	0	32826	32815	35908	
3077	0	32816	32808	35924	
3078	0	32812	32778	35929	
3079	0	32828	32693	35944	
3080	0	32785	32736	35952	
3081	0	32753	32700	35960	
3082	0	32872	32704	35974	
3083	0	32762	32695	35944	
3084	0	32768	32838	35950	
3085	0	32728	32822	35980	
3086	0	32728	32858	35976	
3087	0	32768	32856	35962	
3088	0	32752	32856	35956	
3089	0	32768	32958	35946	
3090	0	32814	32924	35964	
3091	0	32836	32927	35952	
3092	0	32840	32984	35945	
3093	0	32780	32968	35950	
3094	0	32780	33020	35928	
3095	0	32820	33004	35936	
3096	0	32874	32912	35944	
3097	0	32844	32775	35949	
3098	0	32871	32663	35914	
3099	0	32804	32728	35924	
3100	0	32760	32632	35929	
3101	0	32784	32628	35929	
3102	0	32788	32604	35936	
3103	0	32784	32622	35944	
3104	0	32776	32728	35948	
3105	0	32676	32852	35943	
3106	0	32736	32893	35940	
3107	0	32736	32831	35937	
3108	0	32721	32966	35953	
3109	0	32740	32965	35951	
3110	0	32825	32966	35942	
3111	0	32876	32869	35945	
3112	0	32856	32900	35938	
3113	0	32768	32946	35944	
3114	0	32856	33005	35943	
3115	0	32808	33008	35914	
3116	0	32816	32868	35932	
3117	0	32808	32817	35932	
3118	0	32832	32804	35944	
3119	0	32828	32800	35968	
3120	0	32836	32749	35960	
3121	0	32820	32696	35968	
3122	0	32728	32733	35961	
3123	0	32716	32712	35945	
3124	0	32796	32756	35943	
3125	0	32792	32820	35940	
3126	0	32692	32901	35936	
3127	0	32644	32876	35932	
3128	0	32740	32961	35938	
3129	0	32757	32900	35943	
3130	0	32824	32836	35918	
3131	0	32788	32969	35918	
3132	0	32757	32952	35914	
3133	0	32760	32959	35904	
3134	0	32856	32967	35912	
3135	0	32821	32924	35924	
3136	0	32817	32816	35916	
3137	0	32837	32791	35954	
3138	0	32828	32822	35968	
3139	0	32813	32697	35974	
3140	0	32780	32642	35960	
3141	0	32754	32700	35957	
3142	0	32796	32716	35973	
3143	0	32777	32788	35956	
3144	0	32740	32688	35949	
3145	0	32734	32887	35934	
3146	0	32744	32912	35944	
3147	0	32740	32913	35952	
3148	0	32760	32860	35970	
3149	0	32788	33008	35961	
3150	0	32802	32972	35952	
3151	0	32748	32917	35944	
3152	0	32808	32879	35940	
3153	0	32888	32856	35944	
3154	0	32808	32945	35944	
3155	0	32801	32896	35930	
3156	0	32800	32792	35945	
3157	0	32776	32812	35948	
3158	0	32876	32696	35940	
3159	0	32816	32744	35940	
3160	0	32812	32657	35948	
3161	0	32768	32620	35940	
3162	0	32788	32636	35996	
3163	0	32738	32828	35984	
3164	0	32773	32873	35972	
3165	0	32712	32853	35952	
3166	0	32789	32849	35945	
3167	0	32754	32881	35936	
3168	0	32721	32918	35945	
3169	0	32792	32960	35928	
3170	0	32816	32936	35928	
3171	0	32797	32904	35916	
3172	0	32824	32952	35928	
3173	0	32804	32993	35928	
3174	0	32792	32933	35933	
3175	0	32820	32896	35948	
3176	0	32825	32817	35937	
3177	0	32810	32756	35940	
3178	0	32785	32740	35940	
3179	0	32841	32749	35933	
3180	0	32752	32684	35948	
3181	0	32764	32645	35961	
3182	0	32808	32626	35965	
3183	0	32842	32704	35956	
3184	0	32748	32806	35973	
3185	0	32705	32832	35957	
3186	0	32712	32918	35952	
3187	0	32700	32916	35956	
3188	0	32780	32888	35926	
3189	0	32816	32906	35925	
3190	0	32801	32916	35944	
3191	0	32809	32910	35930	
3192	0	32833	32975	35925	
3193	0	32812	32986	35934	
3194	0	32840	32986	35924	
3195	0	32836	32937	35916	
3196	0	32882	32812	35940	
3197	0	32804	32842	35948	
3198	0	32824	32744	35973	
3199	0	32777	32706	35988	
3200	0	32748	32745	35968	
3201	0	32758	32632	35975	
3202	0	32784	32645	35973	
3203	0	32812	32712	35968	
3204	0	32730	32781	35962	
3205	0	32728	32760	35945	
3206	0	32724	32799	35936	
3207	0	32752	32932	35940	
3208	0	32698	32896	35920	
3209	0	32776	32916	35917	
3210	0	32816	32958	35917	
3211	0	32788	32978	35916	
3212	0	32828	32877	35919	
3213	0	32812	32904	35924	
3214	0	32854	32940	35933	
3215	0	32860	32976	35919	
3216	0	32864	32797	35928	
3217	0	32817	32758	35972	
3218	0	32876	32757	35949	
3219	0	32792	32742	35943	
3220	0	32752	32754	35968	
3221	0	32752	32724	35948	
3222	0	32788	32628	35948	
3223	0	32744	32714	35972	
3224	0	32792	32837	35972	
3225	0	32764	32834	35953	
3226	0	32720	32836	35936	
3227	0	32705	32852	35924	
3228	0	32776	32928	35947	
3229	0	32776	32999	35948	
3230	0	32749	32905	35962	
3231	0	32812	32920	35957	
3232	0	32836	32948	35956	
3233	0	32809	32956	35940	
3234	0	32844	32952	35941	
3235	0	32848	32904	35936	
3236	0	32828	32900	35952	
3237	0	32781	32828	35941	
3238	0	32826	32720	35962	
3239	0	32810	32628	35970	
3240	0	32816	32733	35950	
3241	0	32797	32646	35964	
3242	0	32724	32637	35948	
3243	0	32784	32676	35943	
3244	0	32804	32784	35951	
3245	0	32780	32855	35935	
3246	0	32708	32821	35937	
3247	0	32728	32887	35936	
3248	0	32800	32853	35930	
3249	0	32804	32905	35916	
3250	0	32812	32884	35936	
3251	0	32770	33004	35940	
3252	0	32804	32945	35944	
3253	0	32797	32986	35948	
3254	0	32792	32954	35932	
3255	0	32868	32968	35921	
3256	0	32806	32852	35933	
3257	0	32757	32886	35908	
3258	0	32776	32846	35928	
3259	0	32777	32828	35940	
3260	0	32840	32664	35948	
3261	0	32800	32622	35961	
3262	0	32783	32600	35980	
3263	0	32820	32668	35972	
3264	0	32720	32838	35968	
3265	0	32749	32796	35980	
3266	0	32792	32756	35962	
3267	0	32741	32810	35972	
3268	0	32740	32867	35957	
3269	0	32748	32892	35943	
3270	0	32780	32908	35934	
3271	0	32784	32948	35932	
3272	0	32804	32902	35937	
3273	0	32812	32836	35945	
3274	0	32820	32880	35940	
3275	0	32800	32919	35950	
3276	0	32836	32864	35934	
3277	0	32844	32882	35948	
3278	0	32864	32868	35953	
3279	0	32799	32732	35959	
3280	0	32816	32706	35949	
3281	0	32734	32720	35949	
3282	0	32760	32704	35940	
3283	0	32780	32775	35943	
3284	0	32748	32854	35946	
3285	0	32724	32728	35916	
3286	0	32752	32809	35917	
3287	0	32753	32912	35922	
3288	0	32784	33033	35940	
3289	0	32713	32910	35948	
3290	0	32752	32868	35957	
3291	0	32760	32849	35948	
3292	0	32832	32933	35915	
3293	0	32836	32988	35916	
3294	0	32868	32956	35940	
3295	0	32884	32905	35916	
3296	0	32856	32798	35930	
3297	0	32848	32820	35940	
3298	0	32784	32823	35940	
3299	0	32813	32736	35950	
3300	0	32808	32680	35928	
3301	0	32824	32684	35957	
3302	0	32736	32774	35968	
3303	0	32716	32770	35975	
3304	0	32692	32780	35976	
3305	0	32696	32880	35964	
3306	0	32684	32884	35975	
3307	0	32692	32829	35980	
3308	0	32748	32828	35972	
3309	0	32737	33000	35961	
3310	0	32797	32874	35949	
3311	0	32808	32856	35936	
3312	0	32840	32912	35925	
3313	0	32828	32985	35921	
3314	0	32840	32953	35917	
3315	0	32772	33024	35917	
3316	0	32796	32889	35908	
3317	0	32832	32826	35916	
3318	0	32832	32844	35916	
3319	0	32796	32676	35944	
3320	0	32820	32632	35941	
3321	0	32756	32664	35944	
3322	0	32776	32702	35932	
3323	0	32782	32753	35960	
3324	0	32738	32824	35949	
3325	0	32794	32884	35948	
3326	0	32724	32864	35972	
3327	0	32742	32912	35948	
3328	0	32738	32869	35949	
3329	0	32772	32892	35942	
3330	0	32816	32912	35929	
3331	0	32772	32952	35940	
3332	0	32840	32968	35914	
3333	0	32828	32913	35928	
3334	0	32824	32916	35929	
3335	0	32833	32943	35900	
3336	0	32917	32879	35935	
3337	0	32804	32828	35958	
3338	0	32824	32764	35957	
3339	0	32860	32758	35974	
3340	0	32816	32726	35952	
3341	0	32764	32631	35957	
3342	0	32752	32630	35956	
3343	0	32812	32806	35970	
3344	0	32812	32853	35972	
3345	0	32688	32784	35960	
3346	0	32796	32896	35964	
3347	0	32689	32884	35966	
3348	0	32772	32977	35951	
3349	0	32804	32870	35959	
3350	0	32864	32833	35948	
3351	0	32816	32844	35948	
3352	0	32818	32940	35951	
3353	0	32833	32951	35908	
3354	0	32828	32908	35892	
3355	0	32872	32866	35907	
3356	0	32853	32848	35920	
3357	0	32844	32768	35934	
3358	0	32820	32824	35961	
3359	0	32816	32736	35983	
3360	0	32741	32669	35988	
3361	0	32788	32614	35988	
3362	0	32772	32646	35969	
3363	0	32757	32738	35980	
3364	0	32717	32788	35952	
3365	0	32740	32751	35952	
3366	0	32740	32829	35956	
3367	0	32708	32928	35948	
3368	0	32768	32884	35949	
3369	0	32784	32918	35966	
3370	0	32766	32905	35942	
3371	0	32816	32887	35916	
3372	0	32772	32980	35940	
3373	0	32824	33020	35940	
3374	0	32736	32968	35967	
3375	0	32832	32928	35969	
3376	0	32824	32868	35940	
3377	0	32816	32802	35932	
3378	0	32866	32828	35952	
3379	0	32804	32672	35940	
3380	0	32760	32591	35949	
3381	0	32761	32660	35948	
3382	0	32760	32705	35950	
3383	0	32822	32716	35940	
3384	0	32720	32721	35940	
3385	0	32770	32748	35924	
3386	0	32708	32774	35935	
3387	0	32808	32868	35920	
3388	0	32748	32941	35908	
3389	0	32716	32990	35902	
3390	0	32728	33016	35916	
3391	0	32776	32964	35932	
3392	0	32856	32897	35940	
3393	0	32784	32956	35932	
3394	0	32761	33064	35913	
3395	0	32820	32992	35924	
3396	0	32804	32880	35918	
3397	0	32824	32775	35922	
3398	0	32844	32841	35954	
3399	0	32796	32785	35950	
3400	0	32818	32708	35958	
3401	0	32753	32616	35953	
3402	0	32837	32584	35940	
3403	0	32800	32730	35950	
3404	0	32692	32740	35936	
3405	0	32716	32732	35936	
3406	0	32688	32830	35941	
3407	0	32744	32802	35936	
3408	0	32746	32892	35922	
3409	0	32761	32968	35922	
3410	0	32776	32974	35914	
3411	0	32784	32952	35916	
3412	0	32864	33012	35908	
3413	0	32848	33014	35900	
3414	0	32830	32953	35916	
3415	0	32858	33020	35928	
3416	0	32808	32862	35948	
3417	0	32828	32836	35951	
3418	0	32830	32788	35944	
3419	0	32844	32738	35956	
3420	0	32748	32738	35952	
3421	0	32774	32688	35956	
3422	0	32740	32646	35958	
3423	0	32776	32678	35973	
3424	0	32748	32765	35985	
3425	0	32730	32854	35972	
3426	0	32780	32809	35956	
3427	0	32782	32845	35960	
3428	0	32752	32836	35960	
3429	0	32736	32960	35936	
3430	0	32776	32936	35948	
3431	0	32848	32933	35948	
3432	0	32812	32898	35944	
3433	0	32852	32960	35936	
3434	0	32828	32969	35926	
3435	0	32856	32996	35916	
3436	0	32840	32896	35917	
3437	0	32797	32788	35950	
3438	0	32820	32808	35970	
3439	0	32794	32676	35972	
3440	0	32728	32725	35937	
3441	0	32772	32664	35940	
3442	0	32760	32639	35960	
3443	0	32760	32722	35944	
3444	0	32756	32812	35944	
3445	0	32788	32798	35972	
3446	0	32700	32808	35972	
3447	0	32732	32858	35968	
3448	0	32732	32824	35944	
3449	0	32760	32866	35926	
3450	0	32772	32856	35944	
3451	0	32816	32868	35928	
3452	0	32832	32839	35950	
3453	0	32792	32897	35946	
3454	0	32760	32857	35906	
3455	0	32864	32956	35884	
3456	0	32808	32850	35912	
3457	0	32817	32848	35916	
3458	0	32834	32743	35926	
3459	0	32798	32711	35928	
3460	0	32804	32696	35920	
3461	0	32750	32676	35922	
3462	0	32808	32644	35922	
3463	0	32760	32673	35920	
3464	0	32752	32805	35948	
3465	0	32708	32878	35924	
3466	0	32736	32858	35940	
3467	0	32704	32872	35945	
3468	0	32756	32877	35941	
3469	0	32808	32853	35940	
3470	0	32812	32960	35956	
3471	0	32844	32884	35956	
3472	0	32800	32877	35925	
3473	0	32720	32930	35928	
3474	0	32876	33004	35904	
3475	0	32826	32992	35916	
3476	0	32857	32820	35918	
3477	0	32868	32862	35941	
3478	0	32884	32824	35934	
3479	0	32805	32680	35956	
3480	0	32812	32630	35958	
3481	0	32716	32692	35960	
3482	0	32792	32622	35948	
3483	0	32748	32724	35969	
3484	0	32720	32780	35968	
3485	0	32736	32793	35949	
3486	0	32820	32912	35960	
3487	0	32732	32888	35948	
3488	0	32704	32861	35960	
3489	0	32796	32878	35972	
3490	0	32772	32840	35956	
3491	0	32812	32895	35945	
3492	0	32772	33031	35912	
3493	0	32776	33015	35928	
3494	0	32852	32964	35929	
3495	0	32808	32921	35932	
3496	0	32848	32845	35943	
3497	0	32878	32832	35919	
3498	0	32820	32966	35944	
3499	0	32756	32733	35932	
3500	0	32756	32688	35948	
3501	0	32772	32557	35926	
3502	0	32712	32714	35920	
3503	0	32784	32836	35942	
3504	0	32804	32807	35937	
3505	0	32740	32874	35936	
3506	0	32762	32840	35948	
3507	0	32800	32948	35933	
3508	0	32760	32892	35916	
3509	0	32728	32832	35920	
3510	0	32792	32864	35908	
3511	0	32856	32958	35901	
3512	0	32772	32952	35916	
3513	0	32826	32897	35912	
3514	0	32812	32880	35930	
3515	0	32838	32937	35928	
3516	0	32828	32860	35933	
3517	0	32865	32880	35928	
3518	0	32848	32910	35930	
3519	0	32805	32730	35928	
3520	0	32744	32741	35932	
3521	0	32720	32620	35928	
3522	0	32760	32628	35936	
3523	0	32704	32716	35940	
3524	0	32666	32785	35929	
3525	0	32716	32775	35944	
3526	0	32836	32807	35943	
3527	0	32736	32909	35949	
3528	0	32798	32829	35948	
3529	0	32748	32876	35934	
3530	0	32836	32918	35904	
3531	0	32768	32930	35916	
3532	0	32852	32912	35932	
3533	0	32824	32913	35920	
3534	0	32828	32962	35928	
3535	0	32824	32903	35934	
3536	0	32816	32893	35948	
3537	0	32824	32786	35946	
3538	0	32776	32775	35936	
3539	0	32788	32728	35948	
3540	0	32756	32622	35953	
3541	0	32768	32560	35940	
3542	0	32778	32684	35940	
3543	0	32744	32708	35940	
3544	0	32756	32809	35928	
3545	0	32736	32834	35927	
3546	0	32724	32828	35928	
3547	0	32696	32839	35948	
3548	0	32768	32872	35933	
3549	0	32776	32932	35934	
3550	0	32744	32937	35933	
3551	0	32788	32908	35942	
3552	0	32820	32970	35928	
3553	0	32770	32926	35941	
3554	0	32828	32948	35932	
3555	0	32852	33012	35931	
3556	0	32876	32874	35958	
3557	0	32778	32804	35960	
3558	0	32808	32788	35958	
3559	0	32853	32788	35952	
3560	0	32770	32791	35940	
3561	0	32784	32608	35926	
3562	0	32756	32708	35933	
3563	0	32756	32753	35936	
3564	0	32740	32801	35944	
3565	0	32732	32756	35928	
3566	0	32752	32801	35935	
3567	0	32756	32868	35912	
3568	0	32753	32892	35900	
3569	0	32752	32954	35918	
3570	0	32736	32903	35924	
3571	0	32792	32950	35933	
3572	0	32892	32957	35936	
3573	0	32906	33000	35940	
3574	0	32804	32970	35942	
3575	0	32809	32919	35924	
3576	0	32797	32822	35940	
3577	0	32864	32832	35941	
3578	0	32852	32771	35954	
3579	0	32810	32780	35936	
3580	0	32834	32804	35928	
3581	0	32756	32630	35943	
3582	0	32744	32637	35934	
3583	0	32780	32724	35936	
3584	0	32740	32812	35934	
3585	0	32760	32792	35943	
3586	0	32753	32861	35942	
3587	0	32774	32856	35960	
3588	0	32756	32888	35932	
3589	0	32756	32892	35929	
3590	0	32733	32882	35924	
3591	0	32760	32880	35924	
3592	0	32840	32960	35916	
3593	0	32808	32908	35928	
3594	0	32900	32891	35913	
3595	0	32860	32951	35900	
3596	0	32828	32912	35919	
3597	0	32804	32792	35897	
3598	0	32856	32796	35922	
3599	0	32785	32752	35940	
3600	0	32696	32720	35952	
3601	0	32708	32566	35969	
3602	0	32754	32604	35975	
3603	0	32750	32698	35964	
3604	0	32756	32792	35945	
3605	0	32742	32864	35948	
3606	0	32764	32793	35944	
3607	0	32793	32816	35933	
3608	0	32767	32941	35929	
3609	0	32798	32958	35936	
3610	0	32804	32860	35942	
3611	0	32780	32901	35944	
3612	0	32772	33072	35951	
3613	0	32804	32880	35945	
3614	0	32848	32932	35931	
3615	0	32820	32953	35922	
3616	0	32826	32861	35904	
3617	0	32832	32833	35928	
3618	0	32837	32904	35920	
3619	0	32876	32730	35928	
3620	0	32808	32677	35940	
3621	0	32764	32596	35957	
3622	0	32736	32728	35957	
3623	0	32736	32726	35957	
3624	0	32796	32782	35957	
3625	0	32668	32870	35972	
3626	0	32692	32817	35964	
3627	0	32736	32870	35974	
3628	0	32748	32925	35975	
3629	0	32768	32972	35972	
3630	0	32776	32904	35940	
3631	0	32812	32908	35958	
3632	0	32788	32900	35935	
3633	0	32856	33024	35928	
3634	0	32828	32961	35924	
3635	0	32868	33020	35908	
3636	0	32804	32884	35928	
3637	0	32872	32768	35936	
3638	0	32818	32741	35908	
3639	0	32832	32748	35915	
3640	0	32808	32741	35924	
3641	0	32768	32661	35920	
3642	0	32854	32679	35926	
3643	0	32760	32684	35924	
3644	0	32722	32763	35909	
3645	0	32796	32773	35909	
3646	0	32708	32717	35935	
3647	0	32752	32784	35933	
3648	0	32760	32869	35932	
3649	0	32765	32916	35958	
3650	0	32804	32905	35964	
3651	0	32724	32929	35934	
3652	0	32881	32929	35934	
3653	0	32825	33019	35930	
3654	0	32844	32949	35945	
3655	0	32816	32908	35940	
3656	0	32828	32886	35935	
3657	0	32841	32804	35932	
3658	0	32822	32849	35935	
3659	0	32782	32718	35941	
3660	0	32816	32622	35981	
3661	0	32792	32610	35984	
3662	0	32734	32696	35978	
3663	0	32736	32668	35970	
3664	0	32740	32725	35954	
3665	0	32764	32850	35934	
3666	0	32800	32892	35932	
3667	0	32744	32836	35940	
3668	0	32796	32917	35936	
3669	0	32748	32873	35940	
3670	0	32690	33012	35958	
3671	0	32780	32910	35941	
3672	0	32832	32864	35950	
3673	0	32824	32909	35934	
3674	0	32900	32960	35950	
3675	0	32856	32954	35936	
3676	0	32833	32878	35934	
3677	0	32860	32809	35928	
3678	0	32852	32790	35964	
3679	0	32808	32716	35976	
3680	0	32804	32676	35968	
3681	0	32784	32621	35981	
3682	0	32751	32592	35980	
3683	0	32804	32733	36000	
3684	0	32709	32764	36004	
3685	0	32664	32776	36000	
3686	0	32700	32786	35988	
3687	0	32744	32857	35981	
3688	0	32718	32858	35994	
3689	0	32744	32917	35998	
3690	0	32805	32912	35996	
3691	0	32740	32876	35988	
3692	0	32765	32894	35976	
3693	0	32836	32948	35956	
3694	0	32804	32996	35957	
3695	0	32784	32911	35944	
3696	0	32804	32868	35952	
3697	0	32828	32844	35958	
3698	0	32869	32884	35970	
3699	0	32820	32746	35960	
3700	0	32809	32724	35968	
3701	0	32756	32655	35972	
3702	0	32780	32614	35972	
3703	0	32752	32616	35968	
3704	0	32760	32828	35962	
3705	0	32740	32822	35960	
3706	0	32744	32807	35961	
3707	0	32712	32953	35972	
3708	0	32760	32957	35972	
3709	0	32756	32964	35972	
3710	0	32786	32904	35965	
3711	0	32774	32996	35956	
3712	0	32780	32917	35948	
3713	0	32844	33020	35920	
3714	0	32804	33092	35932	
3715	0	32818	33064	35940	
3716	0	32816	33022	35928	
3717	0	32812	32925	35952	
3718	0	32848	32812	35968	
3719	0	32804	32848	35988	
3720	0	32796	32672	35982	
3721	0	32832	32574	35976	
3722	0	32800	32518	35990	
3723	0	32749	32716	35998	
3724	0	32789	32608	35992	
3725	0	32732	32655	35998	
3726	0	32708	32808	36006	
3727	0	32692	32886	36010	
3728	0	32744	32846	36004	
3729	0	32816	32856	35992	
3730	0	32756	32908	35958	
3731	0	32744	33025	35940	
3732	0	32785	32989	35944	
3733	0	32841	32945	35925	
3734	0	32772	33068	35908	
3735	0	32813	33036	35932	
3736	0	32820	32980	35929	
3737	0	32894	32801	35932	
3738	0	32866	32798	35944	
3739	0	32782	32730	35973	
3740	0	32828	32657	35972	
3741	0	32796	32614	35952	
3742	0	32776	32636	35964	
3743	0	32812	32642	35941	
3744	0	32770	32680	35949	
3745	0	32716	32788	35936	
3746	0	32720	32805	35951	
3747	0	32712	32812	35941	
3748	0	32756	32868	35904	
3749	0	32716	32972	35888	
3750	0	32776	33036	35888	
3751	0	32772	32981	35884	
3752	0	32816	32997	35888	
3753	0	32842	33016	35904	
3754	0	32748	33028	35896	
3755	0	32804	33088	35913	
3756	0	32876	33044	35934	
3757	0	32864	32880	35916	
3758	0	32848	32792	35932	
3759	0	32848	32720	35944	
3760	0	32768	32724	35959	
3761	0	32768	32662	35974	
3762	0	32768	32519	35969	
3763	0	32776	32630	35964	
3764	0	32780	32638	35956	
3765	0	32732	32677	35948	
3766	0	32760	32820	35968	
3767	0	32672	32809	35960	
3768	0	32784	32808	35928	
3769	0	32800	32964	35908	
3770	0	32780	32912	35901	
3771	0	32825	32996	35900	
3772	0	32832	32990	35912	
3773	0	32740	32960	35916	
3774	0	32840	33117	35924	
3775	0	32812	33035	35911	
3776	0	32824	32873	35919	
3777	0	32872	32922	35937	
3778	0	32778	32853	35960	
3779	0	32856	32751	35949	
3780	0	32824	32784	35926	
3781	0	32824	32588	35940	
3782	0	32824	32568	35960	
3783	0	32776	32612	35969	
3784	0	32789	32629	35970	
3785	0	32716	32708	35986	
3786	0	32769	32804	35973	
3787	0	32724	32790	35952	
3788	0	32768	32828	35951	
3789	0	32764	32941	35941	
3790	0	32764	32960	35933	
3791	0	32812	32925	35937	
3792	0	32836	32929	35937	
3793	0	32876	33020	35940	
3794	0	32796	33044	35918	
3795	0	32901	32982	35926	
3796	0	32876	32930	35948	
3797	0	32844	32957	35953	
3798	0	32804	32886	35944	
3799	0	32836	32656	35948	
3800	0	32832	32617	35942	
3801	0	32778	32654	35940	
3802	0	32756	32548	35948	
3803	0	32772	32580	35948	
3804	0	32732	32604	35937	
3805	0	32748	32693	35928	
3806	0	32744	32756	35940	
3807	0	32756	32834	35956	
3808	0	32700	32914	35977	
3809	0	32772	33024	35969	
3810	0	32796	32932	35958	
3811	0	32808	32969	35940	
3812	0	32820	32994	35940	
3813	0	32820	33031	35918	
3814	0	32832	33066	35908	
3815	0	32792	33073	35898	
3816	0	32793	33029	35901	
3817	0	32880	32876	35905	
3818	0	32832	32785	35932	
3819	0	32808	32760	35957	
3820	0	32796	32668	35956	
3821	0	32800	32613	35952	
3822	0	32746	32568	35961	
3823	0	32778	32474	35948	
3824	0	32744	32730	35956	
3825	0	32708	32774	35968	
3826	0	32703	32688	35964	
3827	0	32808	32868	35945	
3828	0	32740	32806	35952	
3829	0	32740	32853	35967	
3830	0	32760	32912	35969	
3831	0	32764	32918	35954	
3832	0	32768	33000	35945	
3833	0	32856	32952	35922	
3834	0	32804	32966	35928	
3835	0	32847	33064	35934	
3836	0	32824	32992	35924	
3837	0	32820	32948	35900	
3838	0	32806	32742	35901	
3839	0	32815	32632	35920	
3840	0	32732	32654	35925	
3841	0	32792	32661	35924	
3842	0	32804	32581	35928	
3843	0	32768	32606	35926	
3844	0	32740	32687	35932	
3845	0	32696	32740	35940	
3846	0	32817	32687	35936	
3847	0	32712	32861	35932	
3848	0	32708	32898	35938	
3849	0	32744	32850	35945	
3850	0	32764	32837	35948	
3851	0	32832	32899	35960	
3852	0	32861	32996	35981	
3853	0	32812	32960	35948	
3854	0	32772	33003	35949	
3855	0	32828	32980	35944	
3856	0	32799	32996	35916	
3857	0	32858	32996	35936	
3858	0	32814	32867	35948	
3859	0	32806	32677	35973	
3860	0	32784	32696	35958	
3861	0	32809	32652	35961	
3862	0	32792	32545	35968	
3863	0	32738	32556	35984	
3864	0	32700	32644	35964	
3865	0	32656	32694	35936	
3866	0	32764	32844	35956	
3867	0	32720	32782	35964	
3868	0	32744	32853	35956	
3869	0	32768	32864	35944	
3870	0	32764	32952	35933	
3871	0	32792	32956	35944	
3872	0	32800	32997	35957	
3873	0	32849	33116	35948	
3874	0	32839	33013	35950	
3875	0	32860	33040	35930	
3876	0	32856	32938	35950	
3877	0	32780	32836	35948	
3878	0	32852	32908	35950	
3879	0	32804	32679	35943	
3880	0	32808	32647	35952	
3881	0	32845	32653	35969	
3882	0	32776	32533	35976	
3883	0	32720	32548	35956	
3884	0	32714	32632	35940	
3885	0	32724	32695	35941	
3886	0	32688	32775	35970	
3887	0	32700	32816	35956	
3888	0	32752	32871	35952	
3889	0	32770	32924	35948	
3890	0	32737	32952	35952	
3891	0	32820	32954	35936	
3892	0	32748	33048	35940	
3893	0	32841	33089	35932	
3894	0	32805	33096	35940	
3895	0	32868	33048	35940	
3896	0	32856	32967	35936	
3897	0	32816	32968	35933	
3898	0	32832	32892	35937	
3899	0	32760	32788	35949	
3900	0	32800	32646	35968	
3901	0	32782	32616	35972	
3902	0	32758	32646	35977	
3903	0	32764	32657	35988	
3904	0	32722	32656	35980	
3905	0	32704	32676	35968	
3906	0	32676	32725	35976	
3907	0	32773	32812	35977	
3908	0	32728	32840	35957	
3909	0	32740	32921	35952	
3910	0	32772	32970	35958	
3911	0	32784	32965	35951	
3912	0	32868	33020	35938	
3913	0	32740	32937	35949	
3914	0	32828	33031	35940	
3915	0	32856	33070	35936	
3916	0	32844	32900	35950	
3917	0	32824	32912	35961	
3918	0	32832	32822	35956	
3919	0	32832	32705	35984	
3920	0	32852	32700	35968	
3921	0	32809	32748	35969	
3922	0	32732	32622	35976	
3923	0	32773	32604	35981	
3924	0	32801	32660	35975	
3925	0	32706	32723	35964	
3926	0	32707	32678	35968	
3927	0	32756	32806	35972	
3928	0	32713	32839	35944	
3929	0	32750	32856	35940	
3930	0	32764	32900	35949	
3931	0	32826	32942	35934	
3932	0	32788	32938	35928	
3933	0	32836	32961	35912	
3934	0	32828	33092	35913	
3935	0	32804	33044	35924	
3936	0	32800	32956	35932	
3937	0	32785	32997	35940	
3938	0	32834	32876	35959	
3939	0	32810	32709	35944	
3940	0	32856	32721	35972	
3941	0	32780	32669	35990	
3942	0	32736	32496	35982	
3943	0	32884	32593	35962	
3944	0	32788	32705	35947	
3945	0	32720	32673	35956	
3946	0	32748	32728	35943	
3947	0	32752	32817	35949	
3948	0	32732	32940	35964	
3949	0	32732	32912	35960	
3950	0	32736	32922	35940	
3951	0	32840	32916	35952	
3952	0	32817	32976	35959	
3953	0	32797	32996	35946	
3954	0	32864	33093	35969	
3955	0	32802	33044	35944	
3956	0	32812	32924	35935	
3957	0	32874	32897	35941	
3958	0	32820	32877	35949	
3959	0	32812	32774	35946	
3960	0	32796	32716	35974	
3961	0	32788	32678	35966	
3962	0	32709	32604	35980	
3963	0	32768	32592	35975	
3964	0	32727	32549	35940	
3965	0	32714	32680	35929	
3966	0	32728	32770	35952	
3967	0	32700	32696	35948	
3968	0	32760	32731	35948	
3969	0	32720	32912	35953	
3970	0	32843	32868	35956	
3971	0	32797	32980	35951	
3972	0	32804	32997	35948	
3973	0	32776	33072	35944	
3974	0	32824	33028	35932	
3975	0	32852	33139	35936	
3976	0	32816	33073	35954	
3977	0	32801	32920	35954	
3978	0	32826	32828	35972	
3979	0	32888	32757	35981	
3980	0	32788	32741	35972	
3981	0	32816	32621	35968	
3982	0	32764	32597	35953	
3983	0	32720	32623	35952	
3984	0	32800	32653	35946	
3985	0	32756	32745	35941	
3986	0	32784	32700	35934	
3987	0	32724	32840	35948	
3988	0	32708	32876	35936	
3989	0	32722	32856	35924	
3990	0	32758	32886	35918	
3991	0	32757	32930	35950	
3992	0	32832	32876	35962	
3993	0	32857	32906	35983	
3994	0	32784	32974	35979	
3995	0	32768	33031	35968	
3996	0	32840	32956	35944	
3997	0	32840	32936	35944	
3998	0	32836	32852	35928	
3999	0	32816	32804	35938	
4000	0	32804	32693	35963	
4001	0	32780	32575	35968	
4002	0	32720	32541	35974	
4003	0	32792	32620	35948	
4004	0	32829	32670	35946	
4005	0	32748	32762	35934	
4006	0	32780	32736	35941	
4007	0	32737	32737	35928	
4008	0	32769	32775	35948	
4009	0	32680	32824	35963	
4010	0	32734	32928	35944	
4011	0	32772	32940	35940	
4012	0	32808	32950	35956	
4013	0	32784	32958	35949	
4014	0	32828	33074	35966	
4015	0	32836	33124	35954	
4016	0	32848	32946	35964	
4017	0	32862	32924	35952	
4018	0	32840	32907	35972	
4019	0	32793	32852	35943	
4020	0	32785	32737	35964	
4021	0	32752	32622	35967	
4022	0	32844	32576	35970	
4023	0	32810	32588	35963	
4024	0	32780	32612	35960	
4025	0	32712	32655	35960	
4026	0	32740	32789	35982	
4027	0	32724	32782	35976	
4028	0	32780	32725	35946	
4029	0	32764	32840	35961	
4030	0	32752	32924	35966	
4031	0	32772	32978	35945	
4032	0	32770	32948	35920	
4033	0	32756	33030	35904	
4034	0	32804	33052	35916	
4035	0	32793	33104	35916	
4036	0	32852	33064	35917	
4037	0	32820	33012	35918	
4038	0	32862	32868	35924	
4039	0	32740	32861	35942	
4040	0	32845	32712	35948	
4041	0	32810	32775	35959	
4042	0	32832	32614	35960	
4043	0	32748	32624	35960	
4044	0	32772	32718	35940	
4045	0	32748	32652	35958	
4046	0	32769	32732	35992	
4047	0	32748	32801	35996	
4048	0	32700	32784	35962	
4049	0	32720	32833	35947	
4050	0	32720	32948	35943	
4051	0	32728	32860	35940	
4052	0	32728	32866	35940	
4053	0	32836	32934	35932	
4054	0	32836	32992	35925	
4055	0	32824	32992	35934	
4056	0	32810	33008	35937	
4057	0	32848	32965	35924	
4058	0	32900	32791	35930	
4059	0	32804	32825	35928	
4060	0	32876	32740	35960	
4061	0	32808	32658	35988	
4062	0	32728	32664	35992	
4063	0	32797	32693	35975	
4064	0	32772	32639	35950	
4065	0	32729	32732	35940	
4066	0	32732	32808	35924	
4067	0	32728	32833	35933	
4068	0	32740	32820	35944	
4069	0	32784	32894	35953	
4070	0	32736	32908	35946	
4071	0	32764	32989	35932	
4072	0	32829	32950	35928	
4073	0	32825	33038	35944	
4074	0	32788	33080	35928	
4075	0	32840	33044	35936	
4076	0	32900	33024	35940	
4077	0	32832	32909	35919	
4078	0	32800	32846	35921	
4079	0	32760	32854	35932	
4080	0	32796	32775	35920	
4081	0	32802	32632	35936	
4082	0	32766	32548	35947	
4083	0	32798	32550	35944	
4084	0	32764	32667	35940	
4085	0	32744	32751	35940	
4086	0	32750	32770	35932	
4087	0	32721	32800	35930	
4088	0	32692	32801	35932	
4089	0	32770	32885	35924	
4090	0	32797	32930	35940	
4091	0	32764	33020	35956	
4092	0	32773	32920	35953	
4093	0	32832	32904	35944	
4094	0	32785	33012	35949	
4095	0	32857	33016	35958	
4096	0	32904	33041	35961	
4097	0	32772	32922	35946	
4098	0	32840	32860	35948	
4099	0	32864	32862	35956	
4100	0	32824	32786	35951	
4101	0	32784	32645	35964	
4102	0	32760	32596	35952	
4103	0	32800	32629	35974	
4104	0	32796	32676	35960	
4105	0	32742	32678	35959	
4106	0	32736	32788	35969	
4107	0	32697	32793	35989	
4108	0	32772	32748	35975	
4109	0	32748	32874	35964	
4110	0	32809	32838	35948	
4111	0	32768	32932	35945	
4112	0	32852	32940	35946	
4113	0	32748	32900	35945	
4114	0	32784	33009	35934	
4115	0	32826	33050	35932	
4116	0	32832	33014	35940	
4117	0	32792	32887	35940	
4118	0	32852	32916	35950	
4119	0	32812	32828	35930	
4120	0	32828	32708	35943	
4121	0	32784	32748	35936	
4122	0	32748	32704	35952	
4123	0	32828	32576	35952	
4124	0	32768	32649	35948	
4125	0	32764	32752	35964	
4126	0	32740	32692	35984	
4127	0	32694	32824	35967	
4128	0	32706	32872	35949	
4129	0	32708	32872	35971	
4130	0	32732	32978	35948	
4131	0	32776	32933	35952	
4132	0	32780	32948	35940	
4133	0	32890	33012	35940	
4134	0	32857	33082	35938	
4135	0	32864	32964	35918	
4136	0	32848	33024	35950	
4137	0	32792	32985	35940	
4138	0	32814	32904	35932	
4139	0	32852	32854	35944	
4140	0	32812	32748	35932	
4141	0	32760	32772	35949	
4142	0	32720	32578	35961	
4143	0	32788	32605	35956	
4144	0	32784	32679	35975	
4145	0	32777	32676	35960	
4146	0	32720	32639	35952	
4147	0	32744	32798	35945	
4148	0	32688	32807	35932	
4149	0	32780	32808	35935	
4150	0	32750	32901	35958	
4151	0	32832	32917	35952	
4152	0	32704	32884	35968	
4153	0	32756	32966	35952	
4154	0	32828	33070	35950	
4155	0	32800	32976	35943	
4156	0	32852	32972	35940	
4157	0	32848	32980	35928	
4158	0	32856	32844	35948	
4159	0	32844	32770	35962	
4160	0	32808	32672	35980	
4161	0	32832	32620	35980	
4162	0	32749	32653	35972	
4163	0	32785	32645	35973	
4164	0	32800	32673	35969	
4165	0	32784	32828	35974	
4166	0	32729	32704	35991	
4167	0	32736	32804	35973	
4168	0	32736	32911	35988	
4169	0	32768	32822	35964	
4170	0	32748	32900	35946	
4171	0	32766	32924	35950	
4172	0	32764	32866	35960	
4173	0	32780	32909	35944	
4174	0	32809	33032	35933	
4175	0	32844	33049	35944	
4176	0	32800	32904	35952	
4177	0	32788	32928	35975	
4178	0	32808	32898	35956	
4179	0	32873	32796	35933	
4180	0	32824	32693	35956	
4181	0	32780	32679	35969	
4182	0	32812	32662	35958	
4183	0	32748	32620	35976	
4184	0	32772	32602	35984	
4185	0	32724	32732	35992	
4186	0	32692	32716	35975	
4187	0	32772	32724	35966	
4188	0	32680	32854	35964	
4189	0	32762	32890	35964	
4190	0	32782	32868	35959	
4191	0	32762	32857	35954	
4192	0	32744	32948	35948	
4193	0	32809	32988	35966	
4194	0	32868	32964	35950	
4195	0	32830	32996	35943	
4196	0	32804	33052	35946	
4197	0	32784	32934	35924	
4198	0	32804	32916	35940	
4199	0	32844	32850	35951	
4200	0	32800	32696	35932	
4201	0	32748	32660	35928	
4202	0	32765	32716	35930	
4203	0	32742	32631	35924	
4204	0	32756	32713	35935	
4205	0	32808	32719	35926	
4206	0	32730	32724	35930	
4207	0	32729	32768	35944	
4208	0	32768	32812	35953	
4209	0	32768	32892	35965	
4210	0	32726	32837	35937	
4211	0	32736	32911	35949	
4212	0	32801	33003	35937	
4213	0	32884	32956	35921	
4214	0	32868	33064	35929	
4215	0	32838	33080	35932	
4216	0	32781	32948	35940	
4217	0	32748	32893	35957	
4218	0	32807	32892	35958	
4219	0	32768	32764	35988	
4220	0	32816	32760	35992	
4221	0	32786	32724	36005	
4222	0	32846	32560	36005	
4223	0	32780	32636	35972	
4224	0	32748	32652	35973	
4225	0	32700	32708	35972	
4226	0	32776	32766	35969	
4227	0	32728	32820	35946	
4228	0	32736	32837	35960	
4229	0	32700	32785	35941	
4230	0	32766	32933	35934	
4231	0	32732	32961	35950	
4232	0	32796	32840	35942	
4233	0	32812	32972	35928	
4234	0	32772	33048	35948	
4235	0	32804	33056	35937	
4236	0	32880	33012	35954	
4237	0	32844	32996	35948	
4238	0	32812	32994	35968	
4239	0	32870	32815	35968	
4240	0	32800	32726	35980	
4241	0	32816	32790	35961	
4242	0	32748	32584	35992	
4243	0	32812	32581	35990	
4244	0	32748	32641	36000	
4245	0	32742	32727	35992	
4246	0	32745	32692	35992	
4247	0	32736	32775	35996	
4248	0	32752	32825	35980	
4249	0	32800	32834	35975	
4250	0	32741	32775	35957	
4251	0	32770	32860	35964	
4252	0	32736	32900	35960	
4253	0	32764	32924	35968	
4254	0	32736	32948	35948	
4255	0	32768	32989	35936	
4256	0	32836	33060	35949	
4257	0	32844	32897	35948	
4258	0	32820	32902	35960	
4259	0	32888	32873	35948	
4260	0	32764	32748	35944	
4261	0	32776	32680	35969	
4262	0	32792	32612	35975	
4263	0	32798	32680	35973	
4264	0	32762	32645	35940	
4265	0	32736	32647	35940	
4266	0	32696	32758	35941	
4267	0	32721	32745	35944	
4268	0	32772	32768	35936	
4269	0	32730	32900	35948	
4270	0	32740	32872	35953	
4271	0	32760	32861	35936	
4272	0	32786	32928	35928	
4273	0	32840	32952	35924	
4274	0	32790	32956	35920	
4275	0	32844	32984	35916	
4276	0	32836	33067	35917	
4277	0	32842	32886	35908	
4278	0	32840	32840	35950	
4279	0	32812	32859	35944	
4280	0	32820	32748	35924	
4281	0	32780	32708	35944	
4282	0	32752	32680	35958	
4283	0	32732	32604	35948	
4284	0	32728	32681	35916	
4285	0	32756	32797	35952	
4286	0	32773	32768	35954	
4287	0	32754	32781	35945	
4288	0	32714	32830	35943	
4289	0	32762	32932	35968	
4290	0	32740	32876	35984	
4291	0	32754	32905	35977	
4292	0	32796	32988	35978	
4293	0	32846	32889	35972	
4294	0	32872	33010	35964	
4295	0	32808	33069	35941	
4296	0	32808	32926	35958	
4297	0	32780	32916	35964	
4298	0	32824	32942	35956	
4299	0	32836	32890	35949	
4300	0	32816	32659	35945	
4301	0	32797	32720	35956	
4302	0	32744	32718	35951	
4303	0	32782	32536	35948	
4304	0	32720	32636	35940	
4305	0	32748	32732	35928	
4306	0	32736	32756	35933	
4307	0	32720	32685	35940	
4308	0	32716	32792	35936	
4309	0	32704	32840	35940	
4310	0	32743	32881	35940	
4311	0	32784	32893	35956	
4312	0	32840	32964	35962	
4313	0	32830	32999	35988	
4314	0	32800	32924	35979	
4315	0	32860	33048	35961	
4316	0	32848	33140	35966	
4317	0	32788	32964	35940	
4318	0	32860	32936	35960	
4319	0	32856	32905	35984	
4320	0	32836	32732	35972	
4321	0	32804	32738	35996	
4322	0	32804	32728	35988	
4323	0	32744	32572	35985	
4324	0	32760	32672	35997	
4325	0	32732	32724	35996	
4326	0	32728	32716	36001	
4327	0	32740	32748	35986	
4328	0	32688	32764	35976	
4329	0	32712	32801	35992	
4330	0	32792	32964	35972	
4331	0	32844	32910	35969	
4332	0	32820	32900	35956	
4333	0	32792	32896	35952	
4334	0	32884	33001	35943	
4335	0	32844	32968	35922	
4336	0	32780	32964	35924	
4337	0	32848	32966	35916	
4338	0	32876	32809	35912	
4339	0	32821	32784	35928	
4340	0	32824	32876	35928	
4341	0	32768	32714	35940	
4342	0	32812	32654	35948	
4343	0	32765	32677	35956	
4344	0	32724	32599	35938	
4345	0	32724	32753	35940	
4346	0	32646	32761	35943	
4347	0	32768	32677	35948	
4348	0	32796	32848	35956	
4349	0	32740	32908	35958	
4350	0	32852	32850	35960	
4351	0	32768	32868	35953	
4352	0	32796	32932	35953	
4353	0	32787	32996	35940	
4354	0	32800	32884	35940	
4355	0	32832	33026	35916	
4356	0	32808	33041	35911	
4357	0	32848	32954	35909	
4358	0	32784	32908	35915	
4359	0	32856	32874	35928	
4360	0	32820	32752	35944	
4361	0	32871	32752	35970	
4362	0	32790	32644	35968	
4363	0	32766	32644	35974	
4364	0	32805	32666	35978	
4365	0	32792	32648	35985	
4366	0	32704	32714	35968	
4367	0	32692	32744	35944	
4368	0	32692	32860	35932	
4369	0	32740	32935	35925	
4370	0	32720	32833	35916	
4371	0	32764	32836	35912	
4372	0	32828	32852	35890	
4373	0	32832	32940	35904	
4374	0	32832	33004	35908	
4375	0	32890	33037	35912	
4376	0	32821	33008	35922	
4377	0	32788	33004	35932	
4378	0	32792	32932	35969	
4379	0	32793	32905	35956	
4380	0	32765	32852	35956	
4381	0	32784	32716	35964	
4382	0	32764	32680	35974	
4383	0	32752	32580	35967	
4384	0	32752	32584	35949	
4385	0	32764	32652	35965	
4386	0	32752	32706	35963	
4387	0	32708	32800	35946	
4388	0	32724	32818	35954	
4389	0	32775	32870	35940	
4390	0	32724	32903	35940	
4391	0	32823	32885	35952	
4392	0	32765	32928	35936	
4393	0	32761	32924	35940	
4394	0	32766	33020	35948	
4395	0	32884	33040	35916	
4396	0	32848	32964	35924	
4397	0	32848	32928	35949	
4398	0	32864	32873	35951	
4399	0	32816	32808	35953	
4400	0	32792	32724	35954	
4401	0	32736	32714	35972	
4402	0	32810	32764	35965	
4403	0	32704	32637	35969	
4404	0	32760	32632	35988	
4405	0	32792	32656	35972	
4406	0	32724	32806	35960	
4407	0	32704	32806	35948	
4408	0	32742	32756	35940	
4409	0	32740	32838	35960	
4410	0	32738	32919	35952	
4411	0	32784	32820	35957	
4412	0	32800	32876	35948	
4413	0	32816	33004	35920	
4414	0	32832	32984	35925	
4415	0	32806	32970	35924	
4416	0	32828	33077	35916	
4417	0	32804	33060	35930	
4418	0	32849	32877	35949	
4419	0	32876	32812	35932	
4420	0	32804	32752	35940	
4421	0	32764	32792	35942	
4422	0	32740	32708	35941	
4423	0	32772	32668	35940	
4424	0	32822	32644	35954	
4425	0	32766	32635	35958	
4426	0	32736	32812	35972	
4427	0	32748	32754	35940	
4428	0	32740	32744	35960	
4429	0	32776	32804	35960	
4430	0	32724	32808	35953	
4431	0	32777	32885	35942	
4432	0	32740	32914	35936	
4433	0	32824	32985	35920	
4434	0	32788	33001	35894	
4435	0	32756	33025	35916	
4436	0	32865	33048	35919	
4437	0	32784	32936	35920	
4438	0	32892	32933	35924	
4439	0	32768	32861	35944	
4440	0	32786	32813	35935	
4441	0	32821	32676	35940	
4442	0	32768	32720	35964	
4443	0	32780	32636	35997	
4444	0	32788	32660	35990	
4445	0	32788	32669	35972	
4446	0	32781	32730	35972	
4447	0	32712	32812	35960	
4448	0	32696	32770	35949	
4449	0	32780	32837	35944	
4450	0	32804	32889	35949	
4451	0	32740	32881	35948	
4452	0	32836	32932	35937	
4453	0	32836	32934	35921	
4454	0	32809	33020	35940	
4455	0	32776	33090	35916	
4456	0	32820	32996	35932	
4457	0	32832	32916	35928	
4458	0	32860	32912	35940	
4459	0	32820	32874	35960	
4460	0	32800	32748	35969	
4461	0	32756	32696	35965	
4462	0	32760	32666	35956	
4463	0	32804	32653	35956	
4464	0	32780	32568	35948	
4465	0	32740	32621	35941	
4466	0	32730	32752	35960	
4467	0	32764	32697	35954	
4468	0	32776	32791	35952	
4469	0	32730	32796	35936	
4470	0	32800	32805	35937	
4471	0	32768	32903	35920	
4472	0	32828	32988	35929	
4473	0	32824	32870	35912	
4474	0	32804	32956	35889	
4475	0	32797	33008	35920	
4476	0	32884	33031	35924	
4477	0	32840	32933	35921	
4478	0	32845	32944	35930	
4479	0	32793	32957	35924	
4480	0	32880	32856	35945	
4481	0	32800	32738	35937	
4482	0	32772	32726	35950	
4483	0	32760	32655	35945	
4484	0	32776	32688	35964	
4485	0	32756	32737	35964	
4486	0	32748	32826	35965	
4487	0	32736	32788	35980	
4488	0	32796	32808	35969	
4489	0	32764	32792	35956	
4490	0	32775	32960	35956	
4491	0	32815	32888	35954	
4492	0	32765	32884	35948	
4493	0	32828	32934	35950	
4494	0	32812	33018	35972	
4495	0	32760	32932	35960	
4496	0	32800	32908	35943	
4497	0	32816	32948	35925	
4498	0	32812	32957	35933	
4499	0	32816	32845	35952	
4500	0	32792	32724	35964	
4501	0	32801	32685	35976	
4502	0	32790	32740	35976	
4503	0	32796	32753	35975	
4504	0	32744	32650	35968	
4505	0	32744	32696	35972	
4506	0	32736	32701	35972	
4507	0	32764	32673	35957	
4508	0	32718	32812	35980	
4509	0	32752	32848	35972	
4510	0	32764	32882	35964	
4511	0	32780	32886	35972	
4512	0	32794	33008	35968	
4513	0	32764	32903	35952	
4514	0	32828	32976	35932	
4515	0	32872	33048	35928	
4516	0	32866	32981	35956	
4517	0	32860	32960	35936	
4518	0	32860	32884	35934	
4519	0	32812	32848	35954	
4520	0	32762	32862	35968	
4521	0	32796	32641	35971	
4522	0	32800	32624	35944	
4523	0	32721	32608	35948	
4524	0	32828	32676	35964	
4525	0	32749	32740	35975	
4526	0	32721	32771	35992	
4527	0	32738	32854	35990	
4528	0	32720	32860	36004	
4529	0	32740	32815	35980	
4530	0	32800	32826	35968	
4531	0	32768	32892	35969	
4532	0	32808	32953	35957	
4533	0	32796	33030	35946	
4534	0	32868	32996	35960	
4535	0	32852	33020	35952	
4536	0	32781	33014	35944	
4537	0	32808	32998	35938	
4538	0	32837	33000	35940	
4539	0	32817	32828	35949	
4540	0	32772	32798	35957	
4541	0	32784	32716	35972	
4542	0	32824	32649	35974	
4543	0	32764	32576	35951	
4544	0	32720	32600	35975	
4545	0	32781	32687	35975	
4546	0	32720	32672	36000	
4547	0	32733	32799	35984	
4548	0	32688	32807	35964	
4549	0	32740	32756	35953	
4550	0	32788	32793	35940	
4551	0	32808	32860	35944	
4552	0	32820	32896	35934	
4553	0	32820	32880	35949	
4554	0	32740	32948	35941	
4555	0	32824	33042	35947	
4556	0	32864	33037	35929	
4557	0	32816	33001	35928	
4558	0	32869	32900	35945	
4559	0	32825	32908	35956	
4560	0	32841	32877	35938	
4561	0	32756	32656	35964	
4562	0	32764	32665	35968	
4563	0	32736	32548	35985	
4564	0	32737	32615	35956	
4565	0	32752	32727	35956	
4566	0	32780	32766	35953	
4567	0	32800	32808	35949	
4568	0	32732	32785	35968	
4569	0	32740	32909	35977	
4570	0	32804	32848	35967	
4571	0	32780	32878	35932	
4572	0	32812	32969	35941	
4573	0	32828	33039	35956	
4574	0	32816	32950	35958	
4575	0	32864	32940	35968	
4576	0	32854	32957	35960	
4577	0	32844	33012	35960	
4578	0	32864	32860	35968	
4579	0	32832	32828	35952	
4580	0	32836	32775	35960	
4581	0	32784	32732	35968	
4582	0	32857	32682	35960	
4583	0	32784	32621	35952	
4584	0	32816	32695	35972	
4585	0	32728	32677	35944	
4586	0	32704	32674	35967	
4587	0	32728	32718	35944	
4588	0	32732	32768	35940	
4589	0	32704	32816	35937	
4590	0	32773	32860	35938	
4591	0	32789	32948	35925	
4592	0	32784	32873	35908	
4593	0	32816	32929	35924	
4594	0	32812	32952	35932	
4595	0	32777	33000	35930	
4596	0	32905	33024	35918	
4597	0	32864	32977	35924	
4598	0	32848	32896	35909	
4599	0	32800	32826	35936	
4600	0	32844	32785	35944	
4601	0	32814	32734	35950	
4602	0	32816	32729	35960	
4603	0	32728	32752	35960	
4604	0	32764	32683	35937	
4605	0	32768	32740	35946	
4606	0	32697	32714	35952	
4607	0	32816	32780	35978	
4608	0	32740	32808	35974	
4609	0	32740	32764	35968	
4610	0	32772	32804	35992	
4611	0	32714	32881	35988	
4612	0	32820	32925	35964	
4613	0	32848	32881	35952	
4614	0	32820	32966	35924	
4615	0	32852	32998	35944	
4616	0	32888	33067	35952	
4617	0	32849	32942	35985	
4618	0	32764	32844	35988	
4619	0	32852	32906	35988	
4620	0	32750	32757	35992	
4621	0	32884	32727	35997	
4622	0	32801	32687	35980	
4623	0	32788	32661	35980	
4624	0	32740	32573	35973	
4625	0	32708	32661	35983	
4626	0	32728	32669	35984	
4627	0	32684	32760	35974	
4628	0	32752	32850	35968	
4629	0	32761	32794	35964	
4630	0	32798	32840	35960	
4631	0	32714	32942	35940	
4632	0	32776	32968	35959	
