# OpenSignals Text File Format
# {"00:07:80:4D:2E:AD": {"sensor": ["EMG", "EMG", "XYZ"], "device name": "00:07:80:4D:2E:AD", "column": ["nSeq", "DI", "CH1", "CH2", "CH3"], "sync interval": 2, "time": "15:27:30.410", "comments": "no action | ch1_flexor_digitorum_superficialis ch2_aductor_policis ch3_acc_z [trial 2]", "device connection": "BTH00:07:80:4D:2E:AD", "channels": [1, 2, 3], "keywords": "", "mode": 0, "digital IO": [0, 1], "firmware version": 773, "device": "biosignalsplux", "position": 0, "sampling rate": 1000, "label": ["CH1", "CH2", "CH3"], "resolution": [16, 16, 16], "date": "2019-1-23", "special": [{}, {}, {}]}}
# EndOfHeader
0	0	32736	32872	35977	
1	0	32693	32922	35962	
2	0	32708	32877	35953	
3	0	32785	32873	35969	
4	0	32804	32848	35968	
5	0	32764	32818	35974	
6	0	32824	32728	35966	
7	0	32800	32726	35957	
8	0	32834	32693	35956	
9	0	32808	32663	35967	
10	0	32852	32694	35957	
11	0	32832	32764	35943	
12	0	32828	32768	35936	
13	0	32788	32775	35959	
14	0	32832	32828	35965	
15	0	32860	32832	35960	
16	0	32772	32964	35980	
17	0	32785	32924	35972	
18	0	32712	32967	35968	
19	0	32748	32876	35973	
20	0	32740	32940	35968	
21	0	32740	32881	35968	
22	0	32752	32896	35956	
23	0	32740	32916	35957	
24	0	32792	32824	35976	
25	0	32730	32762	35978	
26	0	32804	32800	35956	
27	0	32836	32700	35948	
28	0	32876	32628	35949	
29	0	32880	32756	35941	
30	0	32796	32768	35927	
31	0	32866	32729	35933	
32	0	32884	32820	35928	
33	0	32808	32829	35924	
34	0	32788	33104	35939	
35	0	32820	33008	35964	
36	0	32816	32921	35950	
37	0	32768	32838	35951	
38	0	32820	32893	35940	
39	0	32756	32993	35966	
40	0	32764	32856	35968	
41	0	32714	32816	35982	
42	0	32733	32772	35988	
43	0	32684	32864	35980	
44	0	32716	32753	35957	
45	0	32800	32785	35944	
46	0	32808	32880	35966	
47	0	32774	32808	35972	
48	0	32832	32678	35984	
49	0	32840	32752	35968	
50	0	32854	32756	35940	
51	0	32768	32652	35928	
52	0	32917	32760	35928	
53	0	32816	32853	35922	
54	0	32832	32936	35934	
55	0	32782	32971	35921	
56	0	32780	32880	35928	
57	0	32852	32957	35934	
58	0	32716	33012	35940	
59	0	32780	33010	35968	
60	0	32732	32876	35968	
61	0	32772	32820	35966	
62	0	32728	32804	35984	
63	0	32784	32799	35968	
64	0	32800	32832	35968	
65	0	32724	32823	35941	
66	0	32720	32714	35960	
67	0	32764	32756	35936	
68	0	32852	32600	35956	
69	0	32760	32692	35952	
70	0	32844	32734	35949	
71	0	32804	32836	35944	
72	0	32744	32845	35937	
73	0	32829	32796	35936	
74	0	32840	32852	35936	
75	0	32764	32945	35936	
76	0	32806	32582	35948	
77	0	32772	32380	35964	
78	0	32808	32946	35960	
79	0	32733	33202	35957	
80	0	32732	33178	35954	
81	0	32776	33074	35941	
82	0	32676	32825	35940	
83	0	32736	32908	35942	
84	0	32736	32783	35956	
85	0	32712	32791	35940	
86	0	32772	32709	35932	
87	0	32800	32682	35929	
88	0	32853	32700	35916	
89	0	32824	32633	35920	
90	0	32816	32721	35918	
91	0	32884	32660	35918	
92	0	32832	32633	35916	
93	0	32736	32718	35924	
94	0	32832	32857	35914	
95	0	32837	33006	35944	
96	0	32752	33076	35941	
97	0	32776	33028	35940	
98	0	32704	33004	35934	
99	0	32804	33016	35941	
100	0	32737	32856	35980	
101	0	32764	32876	35968	
102	0	32760	32959	35952	
103	0	32720	32888	35978	
104	0	32804	32852	35960	
105	0	32768	32805	35932	
106	0	32834	32781	35948	
107	0	32856	32757	35942	
108	0	32844	32736	35956	
109	0	32808	32773	35960	
110	0	32824	32824	35948	
111	0	32820	32720	35935	
112	0	32834	32632	35943	
113	0	32860	32680	35948	
114	0	32789	32856	35942	
115	0	32840	33016	35964	
116	0	32757	33088	35948	
117	0	32762	32902	35940	
118	0	32804	33021	35949	
119	0	32720	32901	35957	
120	0	32714	32864	35972	
121	0	32720	32840	35964	
122	0	32772	32948	35974	
123	0	32768	32796	35956	
124	0	32768	32833	35928	
125	0	32764	32680	35932	
126	0	32812	32796	35940	
127	0	32820	32788	35935	
128	0	32824	32606	35945	
129	0	32842	32725	35952	
130	0	32861	32774	35925	
131	0	32828	32736	35937	
132	0	32804	32844	35942	
133	0	32858	32804	35950	
134	0	32797	32865	35940	
135	0	32792	32837	35948	
136	0	32716	32846	35968	
137	0	32746	32917	35968	
138	0	32768	32884	35954	
139	0	32736	32984	35948	
140	0	32714	32897	35957	
141	0	32694	32948	35978	
142	0	32748	32792	35979	
143	0	32744	32833	35982	
144	0	32678	32828	35960	
145	0	32773	32784	35958	
146	0	32770	32824	35959	
147	0	32796	32744	35972	
148	0	32816	32704	35961	
149	0	32848	32761	35944	
150	0	32857	32804	35956	
151	0	32816	32740	35943	
152	0	32780	32804	35932	
153	0	32852	32854	35943	
154	0	32844	32815	35916	
155	0	32802	32892	35936	
156	0	32744	32919	35964	
157	0	32712	32972	35964	
158	0	32780	32903	35954	
159	0	32760	32940	35940	
160	0	32768	32873	35956	
161	0	32706	32816	35980	
162	0	32728	32799	35989	
163	0	32790	32878	35982	
164	0	32812	32832	35953	
165	0	32788	32770	35972	
166	0	32804	32716	35960	
167	0	32768	32782	35956	
168	0	32852	32844	35978	
169	0	32792	32752	35960	
170	0	32857	32796	35961	
171	0	32852	32760	35961	
172	0	32837	32760	35943	
173	0	32821	32784	35937	
174	0	32792	32825	35928	
175	0	32792	32750	35949	
176	0	32764	32876	35941	
177	0	32785	32820	35940	
178	0	32684	32762	35957	
179	0	32704	32928	35953	
180	0	32714	33084	35966	
181	0	32724	33140	35979	
182	0	32779	33078	35973	
183	0	32704	32576	35970	
184	0	32706	32284	35975	
185	0	32740	32805	35953	
186	0	32783	33098	35932	
187	0	32822	32993	35936	
188	0	32814	32740	35936	
189	0	32850	32636	35940	
190	0	32820	32844	35946	
191	0	32852	32768	35944	
192	0	32856	32742	35965	
193	0	32876	32731	35972	
194	0	32824	32800	35977	
195	0	32780	32742	35972	
196	0	32800	32956	35979	
197	0	32848	32964	35981	
198	0	32781	32929	35964	
199	0	32770	32942	35992	
200	0	32740	32986	35993	
201	0	32700	32985	35980	
202	0	32712	33006	35978	
203	0	32805	32900	35968	
204	0	32716	32814	35976	
205	0	32752	32764	35959	
206	0	32780	32748	35944	
207	0	32744	32736	35940	
208	0	32813	32741	35950	
209	0	32792	32752	35952	
210	0	32845	32712	35940	
211	0	32832	32742	35916	
212	0	32822	32780	35953	
213	0	32824	32877	35950	
214	0	32812	32785	35946	
215	0	32833	32804	35959	
216	0	32820	32860	35960	
217	0	32728	32936	35952	
218	0	32740	33024	35957	
219	0	32773	32854	35964	
220	0	32706	32871	35975	
221	0	32724	32892	35968	
222	0	32797	32861	35960	
223	0	32796	32784	35960	
224	0	32736	32836	35948	
225	0	32776	32808	35950	
226	0	32773	32762	35975	
227	0	32722	32742	35975	
228	0	32840	32773	35964	
229	0	32829	32796	35943	
230	0	32868	32766	35948	
231	0	32820	32772	35938	
232	0	32874	32910	35916	
233	0	32816	32913	35926	
234	0	32808	32840	35933	
235	0	32800	32790	35934	
236	0	32804	32794	35956	
237	0	32772	32864	35964	
238	0	32784	32871	35961	
239	0	32757	32924	35972	
240	0	32752	33004	35985	
241	0	32696	32948	35996	
242	0	32788	32844	35990	
243	0	32788	32784	36008	
244	0	32712	32736	35992	
245	0	32769	32768	35972	
246	0	32812	32775	35968	
247	0	32760	32698	35964	
248	0	32794	32786	35948	
249	0	32772	32822	35958	
250	0	32852	32721	35945	
251	0	32878	32861	35949	
252	0	32778	32808	35938	
253	0	32821	32889	35926	
254	0	32897	32853	35938	
255	0	32800	32868	35932	
256	0	32828	32924	35930	
257	0	32800	32952	35924	
258	0	32749	32793	35973	
259	0	32733	32852	35988	
260	0	32736	32878	36007	
261	0	32754	32965	36004	
262	0	32720	32937	36004	
263	0	32780	32929	35984	
264	0	32736	32928	35992	
265	0	32744	32949	35980	
266	0	32820	32841	35981	
267	0	32812	32788	35964	
268	0	32784	32732	35944	
269	0	32828	32743	35946	
270	0	32840	32764	35930	
271	0	32876	32782	35939	
272	0	32864	32740	35960	
273	0	32844	32789	35968	
274	0	32784	32760	35949	
275	0	32784	32842	35940	
276	0	32797	32808	35949	
277	0	32801	32924	35940	
278	0	32784	32984	35946	
279	0	32741	32904	35948	
280	0	32766	32909	35941	
281	0	32732	33020	35960	
282	0	32736	32896	35960	
283	0	32792	32744	35976	
284	0	32688	32740	35989	
285	0	32749	32797	36012	
286	0	32804	32841	36000	
287	0	32761	32756	36004	
288	0	32816	32788	35973	
289	0	32792	32748	35975	
290	0	32876	32792	35964	
291	0	32836	32783	35958	
292	0	32812	32706	35953	
293	0	32784	32700	35957	
294	0	32820	32832	35944	
295	0	32836	32801	35924	
296	0	32792	32812	35914	
297	0	32784	32909	35948	
298	0	32720	32924	35942	
299	0	32720	32893	35934	
300	0	32784	32960	35949	
301	0	32720	32925	35972	
302	0	32749	32916	35969	
303	0	32792	32837	35969	
304	0	32768	32820	35970	
305	0	32676	32868	35960	
306	0	32748	32745	35966	
307	0	32816	32736	35960	
308	0	32856	32742	35940	
309	0	32852	32752	35950	
310	0	32812	32799	35964	
311	0	32852	32844	35952	
312	0	32864	32765	35939	
313	0	32844	32791	35932	
314	0	32752	32814	35937	
315	0	32748	32756	35934	
316	0	32768	32852	35936	
317	0	32772	32884	35968	
318	0	32728	32856	35978	
319	0	32736	32944	35982	
320	0	32757	32931	36012	
321	0	32764	32930	35997	
322	0	32781	32916	35994	
323	0	32741	32805	35993	
324	0	32772	32788	35977	
325	0	32744	32736	35993	
326	0	32756	32818	35982	
327	0	32812	32800	35978	
328	0	32793	32700	35940	
329	0	32840	32690	35932	
330	0	32840	32792	35940	
331	0	32836	32816	35949	
332	0	32864	32817	35964	
333	0	32796	32832	35924	
334	0	32804	32768	35924	
335	0	32838	32886	35940	
336	0	32804	32884	35921	
337	0	32809	32937	35940	
338	0	32740	32916	35941	
339	0	32732	32993	35936	
340	0	32760	32996	35947	
341	0	32758	32920	35949	
342	0	32724	32873	35974	
343	0	32728	32860	35989	
344	0	32752	32824	35981	
345	0	32776	32845	35973	
346	0	32790	32816	35986	
347	0	32788	32760	35959	
348	0	32873	32775	35956	
349	0	32745	32756	35949	
350	0	32848	32676	35936	
351	0	32896	32712	35932	
352	0	32848	32748	35926	
353	0	32808	32872	35926	
354	0	32821	32805	35940	
355	0	32792	32784	35946	
356	0	32820	32841	35957	
357	0	32848	32940	35943	
358	0	32738	32885	35940	
359	0	32781	32884	35941	
360	0	32737	32916	35956	
361	0	32740	32852	35953	
362	0	32748	32823	35944	
363	0	32740	32852	35948	
364	0	32717	32836	35935	
365	0	32785	32721	35959	
366	0	32751	32743	35961	
367	0	32832	32812	35964	
368	0	32832	32720	35965	
369	0	32764	32756	35976	
370	0	32792	32764	35964	
371	0	32862	32816	35952	
372	0	32845	32828	35924	
373	0	32809	32856	35918	
374	0	32804	32908	35929	
375	0	32812	32856	35942	
376	0	32780	32949	35944	
377	0	32820	32908	35956	
378	0	32784	32985	35962	
379	0	32780	32927	35969	
380	0	32728	32966	35992	
381	0	32712	32896	36012	
382	0	32772	32800	35996	
383	0	32704	32806	35973	
384	0	32768	32794	35970	
385	0	32796	32805	35962	
386	0	32788	32684	35972	
387	0	32732	32790	35972	
388	0	32820	32668	35988	
389	0	32772	32692	35968	
390	0	32840	32663	35966	
391	0	32824	32704	35961	
392	0	32800	32772	35960	
393	0	32824	32774	35956	
394	0	32852	32718	35952	
395	0	32768	32780	35937	
396	0	32813	32762	35957	
397	0	32762	32876	35944	
398	0	32776	32897	35944	
399	0	32768	32976	35964	
400	0	32784	32980	35950	
401	0	32724	33044	35949	
402	0	32724	33065	35952	
403	0	32740	32932	35964	
404	0	32712	32789	35967	
405	0	32797	32789	35968	
406	0	32792	32797	35980	
407	0	32773	32884	35972	
408	0	32756	32688	35980	
409	0	32840	32406	35974	
410	0	32848	32420	35964	
411	0	32808	32936	35972	
412	0	32820	33064	35959	
413	0	32848	32973	35964	
414	0	32845	32812	35936	
415	0	32756	32864	35942	
416	0	32780	33031	35970	
417	0	32876	32962	35973	
418	0	32670	32893	35957	
419	0	32684	32966	35962	
420	0	32772	32864	35989	
421	0	32740	32992	35975	
422	0	32720	32960	35962	
423	0	32764	32766	35959	
424	0	32740	32848	35965	
425	0	32778	32814	35967	
426	0	32764	32765	35976	
427	0	32848	32728	35972	
428	0	32780	32716	35975	
429	0	32824	32821	35957	
430	0	32914	32692	35960	
431	0	32892	32660	35967	
432	0	32804	32687	35984	
433	0	32820	32804	35980	
434	0	32730	32695	35968	
435	0	32804	32836	35943	
436	0	32820	32804	35956	
437	0	32816	32856	35954	
438	0	32757	33036	35989	
439	0	32770	33038	35993	
440	0	32730	32918	35992	
441	0	32740	32984	35995	
442	0	32740	32913	36000	
443	0	32730	32858	36000	
444	0	32752	32798	35978	
445	0	32748	32812	35972	
446	0	32768	32828	35961	
447	0	32832	32825	35941	
448	0	32864	32724	35936	
449	0	32796	32785	35945	
450	0	32884	32816	35936	
451	0	32829	32804	35936	
452	0	32884	32844	35944	
453	0	32832	32748	35967	
454	0	32832	32711	35937	
455	0	32844	32876	35940	
456	0	32760	32902	35944	
457	0	32804	32861	35936	
458	0	32772	32828	35964	
459	0	32804	32688	35962	
460	0	32813	32836	35959	
461	0	32736	32804	35964	
462	0	32738	32916	35967	
463	0	32716	32873	35951	
464	0	32748	33040	35968	
465	0	32796	33008	35977	
466	0	32777	32853	35969	
467	0	32772	32852	35957	
468	0	32788	32781	35962	
469	0	32789	32818	35954	
470	0	32788	32860	35940	
471	0	32813	32722	35961	
472	0	32888	32672	35948	
473	0	32808	32678	35956	
474	0	32793	32814	35956	
475	0	32793	32804	35952	
476	0	32828	32887	35964	
477	0	32821	32860	35972	
478	0	32724	32876	36012	
479	0	32742	32913	36026	
480	0	32777	32900	36008	
481	0	32768	32916	36021	
482	0	32768	32949	36009	
483	0	32728	32932	36009	
484	0	32716	32764	35980	
485	0	32794	32733	35966	
486	0	32724	32724	35964	
487	0	32752	32857	35972	
488	0	32869	32764	35959	
489	0	32792	32684	35970	
490	0	32844	32692	35960	
491	0	32824	32617	35964	
492	0	32885	32704	35952	
493	0	32820	32890	35949	
494	0	32804	32962	35945	
495	0	32716	32941	35950	
496	0	32748	33068	35944	
497	0	32764	33024	35957	
498	0	32716	32904	35952	
499	0	32776	32881	35968	
500	0	32757	32962	35966	
501	0	32760	32920	35978	
502	0	32788	32852	35959	
503	0	32744	32804	35946	
504	0	32716	32882	35961	
505	0	32728	32900	35960	
506	0	32812	32709	35988	
507	0	32748	32729	35968	
508	0	32784	32645	35960	
509	0	32772	32734	35964	
510	0	32845	32743	35970	
511	0	32860	32724	35968	
512	0	32824	32808	35960	
513	0	32804	32754	35949	
514	0	32852	32860	35944	
515	0	32840	32854	35945	
516	0	32742	32841	35932	
517	0	32808	32900	35948	
518	0	32820	32936	35958	
519	0	32784	32854	35960	
520	0	32704	32868	35981	
521	0	32712	32916	35982	
522	0	32764	32916	35977	
523	0	32772	32865	35991	
524	0	32762	32828	35988	
525	0	32733	32732	35968	
526	0	32792	32816	35956	
527	0	32820	32736	35951	
528	0	32816	32705	35972	
529	0	32816	32749	35960	
530	0	32845	32859	35964	
531	0	32888	32817	35946	
532	0	32786	32788	35948	
533	0	32842	32816	35940	
534	0	32856	32748	35961	
535	0	32826	32765	35964	
536	0	32764	32884	35956	
537	0	32814	32948	35952	
538	0	32720	32952	35966	
539	0	32714	32956	35978	
540	0	32716	32869	35985	
541	0	32726	32956	35988	
542	0	32792	33006	35981	
543	0	32734	32924	35985	
544	0	32812	32553	35996	
545	0	32792	32345	35975	
546	0	32772	32893	35988	
547	0	32788	33063	35952	
548	0	32788	32916	35941	
549	0	32764	32766	35952	
550	0	32842	32519	35949	
551	0	32809	32647	35937	
552	0	32832	32721	35924	
553	0	32820	32738	35940	
554	0	32824	32809	35941	
555	0	32825	32862	35936	
556	0	32765	33044	35933	
557	0	32846	33128	35962	
558	0	32837	32908	35938	
559	0	32842	32881	35976	
560	0	32816	32833	35988	
561	0	32756	32951	35980	
562	0	32736	32852	35968	
563	0	32785	32904	35948	
564	0	32624	32854	35969	
565	0	32708	32783	35972	
566	0	32780	32775	35956	
567	0	32756	32663	35952	
568	0	32792	32720	35950	
569	0	32805	32678	35972	
570	0	32858	32720	35986	
571	0	32808	32726	35963	
572	0	32784	32797	35939	
573	0	32824	32839	35934	
574	0	32816	32845	35925	
575	0	32804	32856	35940	
576	0	32780	32880	35954	
577	0	32816	32925	35952	
578	0	32776	32924	35967	
579	0	32768	32944	35958	
580	0	32726	32908	35973	
581	0	32637	32944	35982	
582	0	32752	32956	35993	
583	0	32736	32892	36009	
584	0	32736	32708	36004	
585	0	32768	32785	35977	
586	0	32828	32688	35996	
587	0	32801	32816	35972	
588	0	32817	32805	35968	
589	0	32732	32804	35965	
590	0	32904	32774	35976	
591	0	32865	32804	35965	
592	0	32832	32768	35950	
593	0	32828	32816	35948	
594	0	32760	32932	35958	
595	0	32776	32960	35982	
596	0	32800	32956	35974	
597	0	32784	32917	35968	
598	0	32740	32898	35988	
599	0	32804	32933	35982	
600	0	32814	32886	35972	
601	0	32714	32986	35969	
602	0	32722	32900	35992	
603	0	32740	32836	35996	
604	0	32758	32764	35984	
605	0	32769	32712	35968	
606	0	32760	32681	35968	
607	0	32788	32688	35965	
608	0	32817	32737	35954	
609	0	32804	32750	35956	
610	0	32832	32794	35948	
611	0	32882	32804	35950	
612	0	32826	32848	35931	
613	0	32800	32822	35936	
614	0	32848	32780	35967	
615	0	32783	32908	35972	
616	0	32808	32828	35970	
617	0	32820	32838	35965	
618	0	32776	32976	35956	
619	0	32732	32978	35981	
620	0	32732	32890	35984	
621	0	32738	32906	36012	
622	0	32748	32988	35996	
623	0	32788	32857	35993	
624	0	32752	32818	35998	
625	0	32736	32798	35976	
626	0	32776	32736	35974	
627	0	32772	32726	35970	
628	0	32796	32732	35959	
629	0	32780	32788	35972	
630	0	32798	32832	35966	
631	0	32912	32804	35948	
632	0	32840	32813	35945	
633	0	32868	32833	35940	
634	0	32740	32864	35937	
635	0	32792	32800	35941	
636	0	32768	32880	35962	
637	0	32832	32947	35956	
638	0	32776	32984	35980	
639	0	32766	32879	35988	
640	0	32710	32962	35999	
641	0	32756	32948	36008	
642	0	32776	32968	35988	
643	0	32738	32696	35968	
644	0	32759	32812	35953	
645	0	32764	32775	35960	
646	0	32781	32703	35972	
647	0	32784	32785	35956	
648	0	32856	32854	35958	
649	0	32837	32960	35948	
650	0	32842	32952	35954	
651	0	32834	32814	35937	
652	0	32856	32790	35930	
653	0	32864	32829	35937	
654	0	32813	32752	35944	
655	0	32776	32752	35918	
656	0	32800	32804	35925	
657	0	32776	32904	35943	
658	0	32736	32932	35956	
659	0	32760	32812	35970	
660	0	32750	32756	35976	
661	0	32720	32872	35973	
662	0	32730	32886	35972	
663	0	32756	33008	35996	
664	0	32716	32765	35976	
665	0	32713	32396	35988	
666	0	32716	32892	35992	
667	0	32824	33018	35984	
668	0	32889	32976	35968	
669	0	32832	32768	35941	
670	0	32860	32640	35928	
671	0	32852	32756	35937	
672	0	32819	32783	35928	
673	0	32852	32808	35928	
674	0	32796	32689	35930	
675	0	32804	32756	35928	
676	0	32800	32937	35940	
677	0	32816	32999	35956	
678	0	32784	32986	35973	
679	0	32789	33052	35968	
680	0	32712	32948	35972	
681	0	32775	32922	35988	
682	0	32760	32898	35992	
683	0	32720	32796	35980	
684	0	32760	32807	35992	
685	0	32740	32820	36004	
686	0	32826	32811	35974	
687	0	32772	32725	35978	
688	0	32769	32796	35984	
689	0	32796	32745	35988	
690	0	32836	32688	35957	
691	0	32872	32785	35960	
692	0	32876	32827	35958	
693	0	32844	32860	35959	
694	0	32828	32844	35952	
695	0	32812	32825	35954	
696	0	32780	32828	35962	
697	0	32780	32860	35973	
698	0	32794	32898	35960	
699	0	32728	32932	35978	
700	0	32804	32937	35972	
701	0	32728	32910	35980	
702	0	32662	32840	35972	
703	0	32748	32837	35941	
704	0	32781	32888	35938	
705	0	32736	32824	35951	
706	0	32764	32799	35942	
707	0	32792	32756	35928	
708	0	32788	32727	35937	
709	0	32870	32673	35940	
710	0	32788	32728	35952	
711	0	32879	32800	35946	
712	0	32861	32828	35952	
713	0	32836	32864	35977	
714	0	32832	32784	35957	
715	0	32793	32748	35964	
716	0	32816	32863	35944	
717	0	32781	32865	35949	
718	0	32720	32916	35972	
719	0	32804	32952	35982	
720	0	32800	32932	35968	
721	0	32706	32862	35948	
722	0	32820	32917	35969	
723	0	32740	32732	35978	
724	0	32728	32645	35984	
725	0	32800	32860	35984	
726	0	32776	32764	35957	
727	0	32765	32732	35946	
728	0	32822	32817	35936	
729	0	32868	32844	35934	
730	0	32876	32873	35933	
731	0	32868	32896	35937	
732	0	32808	32853	35946	
733	0	32888	32804	35941	
734	0	32840	32748	35968	
735	0	32808	32781	35948	
736	0	32836	32823	35948	
737	0	32800	32876	35930	
738	0	32706	32881	35956	
739	0	32731	32922	35968	
740	0	32769	32961	35984	
741	0	32764	32884	35980	
742	0	32772	32936	35993	
743	0	32780	32908	35998	
744	0	32710	32857	35967	
745	0	32732	32789	35975	
746	0	32768	32783	35974	
747	0	32784	32744	35960	
748	0	32804	32704	35968	
749	0	32764	32677	35964	
750	0	32788	32836	35964	
751	0	32820	32665	35961	
752	0	32836	32720	35956	
753	0	32809	32712	35968	
754	0	32808	32833	35986	
755	0	32792	32834	35996	
756	0	32754	32936	35990	
757	0	32776	32957	35980	
758	0	32724	33000	35990	
759	0	32748	33025	35973	
760	0	32776	32946	35992	
761	0	32756	32872	36009	
762	0	32748	32853	35997	
763	0	32796	32944	35999	
764	0	32764	32908	35968	
765	0	32730	32800	35956	
766	0	32792	32792	35974	
767	0	32812	32712	35960	
768	0	32748	32874	35929	
769	0	32846	32840	35932	
770	0	32796	32760	35937	
771	0	32861	32745	35956	
772	0	32837	32804	35960	
773	0	32844	32730	35952	
774	0	32868	32772	35968	
775	0	32784	32765	35956	
776	0	32872	32828	35944	
777	0	32712	32823	35948	
778	0	32792	32962	35956	
779	0	32732	32880	35932	
780	0	32764	33004	35940	
781	0	32732	32908	35973	
782	0	32746	32944	35980	
783	0	32744	32864	35978	
784	0	32728	32857	35972	
785	0	32744	32842	35984	
786	0	32736	32780	35976	
787	0	32792	32765	35966	
788	0	32748	32812	35956	
789	0	32820	32698	35941	
790	0	32824	32668	35952	
791	0	32904	32692	35944	
792	0	32849	32714	35933	
793	0	32754	32775	35937	
794	0	32825	32806	35921	
795	0	32826	32837	35928	
796	0	32776	32852	35936	
797	0	32808	32897	35948	
798	0	32740	32944	35968	
799	0	32741	32912	35988	
800	0	32760	33000	35997	
801	0	32750	32897	36008	
802	0	32804	32905	35996	
803	0	32722	32828	35987	
804	0	32712	32744	35965	
805	0	32712	32828	35975	
806	0	32812	32746	35984	
807	0	32844	32892	35968	
808	0	32812	32564	35968	
809	0	32816	32424	35980	
810	0	32852	32516	35975	
811	0	32782	32952	35988	
812	0	32852	33076	35964	
813	0	32848	33060	35940	
814	0	32792	32953	35919	
815	0	32933	32927	35924	
816	0	32764	32816	35928	
817	0	32824	32857	35940	
818	0	32720	32838	35948	
819	0	32788	32802	35953	
820	0	32740	32932	35948	
821	0	32741	32968	35956	
822	0	32772	32953	35945	
823	0	32788	32857	35950	
824	0	32712	32836	35936	
825	0	32798	32775	35952	
826	0	32743	32708	35960	
827	0	32762	32732	35956	
828	0	32776	32746	35948	
829	0	32801	32773	35962	
830	0	32833	32821	35948	
831	0	32838	32748	35956	
832	0	32796	32744	35952	
833	0	32852	32765	35956	
834	0	32872	32694	35924	
835	0	32776	32792	35924	
836	0	32753	32866	35920	
837	0	32801	32876	35948	
838	0	32848	32844	35980	
839	0	32768	32917	35980	
840	0	32852	32850	36001	
841	0	32732	32949	35977	
842	0	32772	32946	35973	
843	0	32764	32928	35991	
844	0	32684	32848	36004	
845	0	32736	32836	35994	
846	0	32768	32784	35993	
847	0	32772	32693	35972	
848	0	32780	32756	35969	
849	0	32777	32724	35929	
850	0	32784	32764	35950	
851	0	32860	32692	35960	
852	0	32836	32710	35956	
853	0	32840	32756	35941	
854	0	32844	32766	35940	
855	0	32816	32780	35928	
856	0	32762	32902	35956	
857	0	32760	32896	35968	
858	0	32756	32888	35976	
859	0	32728	32989	35975	
860	0	32742	32959	35972	
861	0	32716	32942	35965	
862	0	32684	32956	35993	
863	0	32792	32956	35985	
864	0	32792	32922	35992	
865	0	32792	32844	35985	
866	0	32760	32812	35988	
867	0	32824	32727	35972	
868	0	32824	32674	35961	
869	0	32832	32775	35967	
870	0	32812	32796	35968	
871	0	32868	32788	35958	
872	0	32824	32740	35953	
873	0	32813	32671	35956	
874	0	32776	32844	35948	
875	0	32796	32793	35955	
876	0	32816	32828	35952	
877	0	32768	33068	35952	
878	0	32804	33068	35960	
879	0	32752	33092	35975	
880	0	32733	33039	35988	
881	0	32740	32982	35992	
882	0	32708	33013	36023	
883	0	32714	32868	36026	
884	0	32730	32829	35998	
885	0	32744	32856	35989	
886	0	32748	32769	35968	
887	0	32832	32788	35952	
888	0	32784	32766	35928	
889	0	32824	32767	35897	
890	0	32784	32817	35908	
891	0	32788	32788	35908	
892	0	32848	32736	35892	
893	0	32860	32694	35901	
894	0	32840	32805	35904	
895	0	32788	32796	35916	
896	0	32830	32817	35936	
897	0	32740	32982	35956	
898	0	32776	33031	35952	
899	0	32756	32696	35972	
900	0	32776	32493	35984	
901	0	32740	33052	36001	
902	0	32788	33156	35996	
903	0	32738	33044	35984	
904	0	32734	32941	35995	
905	0	32704	32862	35972	
906	0	32732	32792	35987	
907	0	32764	32688	35984	
908	0	32836	32748	35980	
909	0	32862	32748	35975	
910	0	32804	32680	35937	
911	0	32848	32774	35956	
912	0	32844	32788	35972	
913	0	32824	32700	35956	
914	0	32830	32849	35957	
915	0	32835	32800	35972	
916	0	32772	32820	35968	
917	0	32728	32880	35966	
918	0	32756	32916	35986	
919	0	32772	32886	35988	
920	0	32756	32860	35988	
921	0	32733	32906	35993	
922	0	32724	32911	35989	
923	0	32768	32799	36008	
924	0	32732	32780	35992	
925	0	32788	32804	35992	
926	0	32788	32812	35986	
927	0	32788	32824	35996	
928	0	32836	32780	36001	
929	0	32812	32764	35996	
930	0	32868	32795	36009	
931	0	32857	32730	35990	
932	0	32808	32769	35961	
933	0	32876	32818	35980	
934	0	32776	32832	35960	
935	0	32789	32884	35967	
936	0	32776	32916	35975	
937	0	32772	32880	35988	
938	0	32844	32910	35962	
939	0	32764	32916	35983	
940	0	32760	32943	36004	
941	0	32724	32944	36008	
942	0	32712	32968	36006	
943	0	32748	32932	35988	
944	0	32672	32847	35976	
945	0	32716	32799	35988	
946	0	32820	32753	35968	
947	0	32772	32760	35960	
948	0	32756	32733	35964	
949	0	32826	32672	35961	
950	0	32808	32784	35960	
951	0	32904	32824	35956	
952	0	32856	32749	35944	
953	0	32924	32785	35943	
954	0	32778	32839	35969	
955	0	32820	32775	35960	
956	0	32806	32869	35972	
957	0	32781	32837	35975	
958	0	32768	32941	35972	
959	0	32722	32964	35972	
960	0	32728	32956	35988	
961	0	32750	32974	35992	
962	0	32712	32942	35985	
963	0	32792	32888	35984	
964	0	32744	32842	35994	
965	0	32728	32842	35991	
966	0	32808	32807	35988	
967	0	32816	32799	35975	
968	0	32785	32728	35965	
969	0	32812	32729	35969	
970	0	32801	32676	35953	
971	0	32912	32835	35951	
972	0	32800	32692	35966	
973	0	32856	32729	35956	
974	0	32836	32806	35964	
975	0	32824	32879	35956	
976	0	32816	32884	35945	
977	0	32760	32863	35964	
978	0	32740	32926	35976	
979	0	32772	32928	35956	
980	0	32732	32912	35964	
981	0	32740	32964	35959	
982	0	32804	32847	35956	
983	0	32740	32796	35975	
984	0	32776	32852	35960	
985	0	32754	32805	35969	
986	0	32753	32876	35969	
987	0	32800	32745	35982	
988	0	32756	32782	35952	
989	0	32830	32701	35956	
990	0	32804	32748	35968	
991	0	32869	32626	35965	
992	0	32884	32732	35962	
993	0	32758	32775	35960	
994	0	32832	32812	35956	
995	0	32816	32856	35962	
996	0	32812	32865	35946	
997	0	32784	32869	35956	
998	0	32796	32893	35962	
999	0	32820	32956	35961	
1000	0	32716	32876	35964	
1001	0	32748	32908	35966	
1002	0	32728	32869	35972	
1003	0	32732	32856	35972	
1004	0	32692	32908	35986	
1005	0	32732	33021	35984	
1006	0	32768	32967	35982	
1007	0	32768	32882	35982	
1008	0	32785	32756	35972	
1009	0	32792	32748	35960	
1010	0	32836	32686	35950	
1011	0	32857	32740	35945	
1012	0	32820	32704	35928	
1013	0	32869	32665	35916	
1014	0	32772	32748	35924	
1015	0	32892	32821	35936	
1016	0	32796	32750	35924	
1017	0	32764	32852	35935	
1018	0	32768	32802	35942	
1019	0	32786	32876	35934	
1020	0	32820	32876	35944	
1021	0	32750	32910	35960	
1022	0	32704	32955	35968	
1023	0	32768	32966	35968	
1024	0	32740	32839	35974	
1025	0	32792	32789	35961	
1026	0	32728	32805	35967	
1027	0	32760	32756	35972	
1028	0	32732	32804	35964	
1029	0	32844	32796	35948	
1030	0	32852	32769	35957	
1031	0	32824	32888	35969	
1032	0	32876	32821	35960	
1033	0	32860	32805	35958	
1034	0	32821	32812	35969	
1035	0	32792	32830	35928	
1036	0	32824	32836	35953	
1037	0	32744	32872	35948	
1038	0	32780	32820	35940	
1039	0	32748	32892	35953	
1040	0	32729	32952	35950	
1041	0	32800	32956	35978	
1042	0	32756	32878	35996	
1043	0	32768	32836	35992	
1044	0	32660	32832	35985	
1045	0	32704	32761	35980	
1046	0	32801	32976	35968	
1047	0	32840	32720	35956	
1048	0	32848	32516	35968	
1049	0	32825	32601	35958	
1050	0	32800	33031	35952	
1051	0	32808	32962	35966	
1052	0	32876	32876	35980	
1053	0	32876	32664	35975	
1054	0	32856	32770	35986	
1055	0	32766	32793	35976	
1056	0	32797	32757	35988	
1057	0	32783	32839	35980	
1058	0	32756	32884	35993	
1059	0	32754	32880	35980	
1060	0	32688	32873	36004	
1061	0	32732	32976	36004	
1062	0	32744	32996	36012	
1063	0	32796	32893	36012	
1064	0	32751	32902	36000	
1065	0	32722	32868	36004	
1066	0	32772	32786	35996	
1067	0	32788	32804	35977	
1068	0	32778	32768	35972	
1069	0	32765	32748	35992	
1070	0	32748	32741	35980	
1071	0	32778	32801	35968	
1072	0	32872	32748	35932	
1073	0	32884	32864	35948	
1074	0	32840	32889	35943	
1075	0	32849	32871	35940	
1076	0	32788	32896	35941	
1077	0	32768	32950	35943	
1078	0	32768	32960	35940	
1079	0	32748	32952	35974	
1080	0	32796	32960	35980	
1081	0	32760	32912	35983	
1082	0	32756	32948	35975	
1083	0	32736	32871	35980	
1084	0	32760	32852	35988	
1085	0	32748	32816	36016	
1086	0	32772	32754	35996	
1087	0	32782	32793	35984	
1088	0	32791	32708	35964	
1089	0	32796	32710	35948	
1090	0	32884	32712	35942	
1091	0	32812	32716	35930	
1092	0	32892	32800	35934	
1093	0	32844	32736	35934	
1094	0	32768	32736	35932	
1095	0	32845	32852	35964	
1096	0	32784	32909	35964	
1097	0	32756	32944	35980	
1098	0	32796	32903	35996	
1099	0	32788	32926	35992	
1100	0	32796	32957	36000	
1101	0	32757	32885	36028	
1102	0	32712	32936	36024	
1103	0	32736	32881	35994	
1104	0	32764	32856	36000	
1105	0	32702	32880	35998	
1106	0	32724	32721	35980	
1107	0	32712	32739	35975	
1108	0	32760	32826	35990	
1109	0	32868	32700	35972	
1110	0	32794	32772	35960	
1111	0	32832	32695	35968	
1112	0	32804	32657	35961	
1113	0	32864	32631	35966	
1114	0	32820	32796	35953	
1115	0	32800	32774	35956	
1116	0	32808	32876	35956	
1117	0	32748	32988	35972	
1118	0	32780	33044	35984	
1119	0	32756	33040	35968	
1120	0	32796	33031	35976	
1121	0	32810	32948	35992	
1122	0	32818	32872	35992	
1123	0	32804	32932	35972	
1124	0	32701	32817	35972	
1125	0	32745	32808	35980	
1126	0	32736	32788	35980	
1127	0	32840	32750	35972	
1128	0	32780	32804	35977	
1129	0	32812	32821	35968	
1130	0	32808	32832	35952	
1131	0	32871	32824	35936	
1132	0	32816	32840	35944	
1133	0	32796	32728	35957	
1134	0	32836	32774	35952	
1135	0	32878	32786	35951	
1136	0	32756	32825	35956	
1137	0	32776	32840	35964	
1138	0	32789	32848	35973	
1139	0	32793	32927	35974	
1140	0	32800	32959	35972	
1141	0	32710	32908	35972	
1142	0	32732	32864	35982	
1143	0	32756	32860	35972	
1144	0	32697	32804	35972	
1145	0	32726	32801	35964	
1146	0	32762	32764	35957	
1147	0	32780	32785	35982	
1148	0	32828	32829	35967	
1149	0	32813	32728	35974	
1150	0	32824	32812	35980	
1151	0	32832	32790	35958	
1152	0	32852	32819	35961	
1153	0	32818	32848	35950	
1154	0	32900	32820	35972	
1155	0	32820	32741	35976	
1156	0	32764	32744	35975	
1157	0	32769	32877	35972	
1158	0	32796	32820	35977	
1159	0	32736	32884	36000	
1160	0	32760	32972	36012	
1161	0	32716	33032	35990	
1162	0	32748	32982	35976	
1163	0	32716	32900	35946	
1164	0	32704	32913	35944	
1165	0	32788	32814	35955	
1166	0	32788	32707	35960	
1167	0	32768	32792	35972	
1168	0	32736	32770	35985	
1169	0	32784	32797	35984	
1170	0	32824	32774	35961	
1171	0	32845	32753	35956	
1172	0	32892	32772	35956	
1173	0	32797	32796	35952	
1174	0	32784	32807	35964	
1175	0	32860	32752	35944	
1176	0	32793	32852	35935	
1177	0	32728	32920	35937	
1178	0	32804	32904	35969	
1179	0	32768	33009	35960	
1180	0	32780	32949	35969	
1181	0	32752	32921	35967	
1182	0	32696	32984	35943	
1183	0	32712	32884	35938	
1184	0	32688	32808	35958	
1185	0	32724	32820	35966	
1186	0	32772	32807	35973	
1187	0	32842	32750	35984	
1188	0	32784	32757	35990	
1189	0	32797	32760	35977	
1190	0	32844	32804	35974	
1191	0	32816	32892	35966	
1192	0	32836	32788	35984	
1193	0	32844	32812	36000	
1194	0	32815	32792	35992	
1195	0	32864	32872	35961	
1196	0	32764	32888	35940	
1197	0	32793	32909	35944	
1198	0	32848	32848	35948	
1199	0	32712	32830	35964	
1200	0	32762	32980	35956	
1201	0	32764	32966	35960	
1202	0	32740	32952	35973	
1203	0	32788	32827	35970	
1204	0	32684	32768	35976	
1205	0	32754	32816	35974	
1206	0	32768	32844	35975	
1207	0	32776	32836	35960	
1208	0	32685	32804	35957	
1209	0	32821	32752	35961	
1210	0	32853	32806	35985	
1211	0	32860	32754	35960	
1212	0	32821	32714	35956	
1213	0	32852	32716	35936	
1214	0	32845	32744	35941	
1215	0	32848	32796	35949	
1216	0	32772	32884	35956	
1217	0	32804	32919	35960	
1218	0	32760	32936	35974	
1219	0	32784	32936	35993	
1220	0	32748	32884	36005	
1221	0	32756	32853	35996	
1222	0	32789	32881	35976	
1223	0	32768	32900	35979	
1224	0	32728	32909	35984	
1225	0	32756	32863	35975	
1226	0	32828	32829	35992	
1227	0	32740	32742	35980	
1228	0	32840	32819	35968	
1229	0	32842	32775	35957	
1230	0	32844	32793	35951	
1231	0	32844	32743	35938	
1232	0	32820	32626	35960	
1233	0	32772	32593	35932	
1234	0	32840	32630	35926	
1235	0	32800	32716	35911	
1236	0	32792	32876	35932	
1237	0	32789	33000	35932	
1238	0	32812	33097	35940	
1239	0	32796	33157	35933	
1240	0	32712	33030	35946	
1241	0	32724	32965	35965	
1242	0	32708	32910	35960	
1243	0	32756	32849	35968	
1244	0	32764	32729	35937	
1245	0	32740	32792	35930	
1246	0	32781	32804	35944	
1247	0	32812	32796	35936	
1248	0	32800	32714	35916	
1249	0	32804	32710	35926	
1250	0	32848	32706	35936	
1251	0	32842	32732	35968	
1252	0	32861	32780	35967	
1253	0	32840	32840	35970	
1254	0	32800	32810	35972	
1255	0	32858	32793	35980	
1256	0	32796	32788	35976	
1257	0	32744	32742	35989	
1258	0	32796	32928	36004	
1259	0	32705	32997	35994	
1260	0	32736	32964	35996	
1261	0	32818	32996	35992	
1262	0	32762	32916	36008	
1263	0	32730	32861	36004	
1264	0	32766	32801	36008	
1265	0	32760	32789	36008	
1266	0	32740	32833	36000	
1267	0	32832	32826	35992	
1268	0	32780	32775	35972	
1269	0	32792	32708	35946	
1270	0	32860	32666	35959	
1271	0	32852	32700	35956	
1272	0	32832	32822	35957	
1273	0	32796	32785	35949	
1274	0	32844	32829	35931	
1275	0	32848	32812	35942	
1276	0	32800	32793	35944	
1277	0	32764	32860	35964	
1278	0	32752	32893	35986	
1279	0	32832	32890	35984	
1280	0	32756	32980	35996	
1281	0	32740	32936	35973	
1282	0	32692	32960	36001	
1283	0	32736	32900	35997	
1284	0	32772	32860	35972	
1285	0	32720	32910	35992	
1286	0	32724	32837	35998	
1287	0	32748	32775	35968	
1288	0	32824	32696	35928	
1289	0	32813	32792	35936	
1290	0	32785	32728	35948	
1291	0	32796	32775	35945	
1292	0	32839	32752	35950	
1293	0	32792	32775	35942	
1294	0	32817	32810	35956	
1295	0	32832	32774	35946	
1296	0	32852	32761	35949	
1297	0	32882	32774	35972	
1298	0	32788	32936	35950	
1299	0	32792	32949	35978	
1300	0	32728	32984	35977	
1301	0	32720	32972	35973	
1302	0	32744	32893	35978	
1303	0	32764	32905	35973	
1304	0	32768	32913	35984	
1305	0	32648	32808	35976	
1306	0	32777	32707	35981	
1307	0	32728	32775	35986	
1308	0	32820	32817	35998	
1309	0	32816	32766	36012	
1310	0	32868	32704	35996	
1311	0	32824	32772	35988	
1312	0	32812	32773	35986	
1313	0	32876	32894	35981	
1314	0	32854	32824	35975	
1315	0	32812	32807	35964	
1316	0	32815	32793	35967	
1317	0	32760	32856	35976	
1318	0	32828	32902	35976	
1319	0	32744	32893	35969	
1320	0	32757	32970	35962	
1321	0	32750	32872	35978	
1322	0	32748	32942	35988	
1323	0	32736	32878	35986	
1324	0	32716	32925	35966	
1325	0	32788	32868	35982	
1326	0	32716	32856	35972	
1327	0	32776	32872	35973	
1328	0	32812	32692	35960	
1329	0	32800	32646	35976	
1330	0	32824	32671	35964	
1331	0	32848	32740	35952	
1332	0	32876	32712	35942	
1333	0	32820	32816	35956	
1334	0	32796	32916	35973	
1335	0	32848	32905	35964	
1336	0	32752	33036	35948	
1337	0	32800	32860	35960	
1338	0	32835	32900	35949	
1339	0	32702	32834	35937	
1340	0	32750	32932	35975	
1341	0	32720	32832	35996	
1342	0	32684	32856	35985	
1343	0	32708	32912	35984	
1344	0	32772	32792	35976	
1345	0	32728	32848	35973	
1346	0	32756	32783	36000	
1347	0	32812	32745	35976	
1348	0	32736	32796	35964	
1349	0	32780	32688	35956	
1350	0	32808	32720	35932	
1351	0	32852	32783	35943	
1352	0	32816	32762	35953	
1353	0	32892	32764	35956	
1354	0	32820	32730	35964	
1355	0	32868	32964	35958	
1356	0	32828	32952	35969	
1357	0	32808	32652	35966	
1358	0	32782	32422	35950	
1359	0	32744	33014	35970	
1360	0	32688	33167	35989	
1361	0	32732	33216	35982	
1362	0	32740	32982	35980	
1363	0	32740	32775	35988	
1364	0	32752	32804	35985	
1365	0	32780	32736	35994	
1366	0	32740	32718	35964	
1367	0	32832	32720	35968	
1368	0	32772	32797	35964	
1369	0	32770	32710	35956	
1370	0	32828	32721	35957	
1371	0	32816	32796	35944	
1372	0	32848	32774	35980	
1373	0	32826	32911	35972	
1374	0	32812	32765	35961	
1375	0	32813	32829	35944	
1376	0	32792	32804	35937	
1377	0	32800	32804	35974	
1378	0	32804	32895	35972	
1379	0	32754	32948	35976	
1380	0	32728	32964	35988	
1381	0	32756	32920	35988	
1382	0	32748	32876	35968	
1383	0	32708	33056	35988	
1384	0	32752	32974	35982	
1385	0	32720	32790	35977	
1386	0	32680	32788	35973	
1387	0	32768	32759	35975	
1388	0	32772	32823	35972	
1389	0	32860	32812	35949	
1390	0	32868	32680	35951	
1391	0	32801	32768	35970	
1392	0	32832	32852	35958	
1393	0	32824	32753	35964	
1394	0	32792	32728	35975	
1395	0	32816	32689	35968	
1396	0	32784	32780	35954	
1397	0	32818	32908	35944	
1398	0	32798	32791	35967	
1399	0	32810	32802	35982	
1400	0	32817	33012	35990	
1401	0	32769	32927	35988	
1402	0	32760	32928	35978	
1403	0	32732	32928	35968	
1404	0	32720	32871	35964	
1405	0	32753	32799	35974	
1406	0	32724	32864	35972	
1407	0	32752	32838	35982	
1408	0	32752	32801	35968	
1409	0	32812	32705	35976	
1410	0	32849	32671	35964	
1411	0	32857	32713	35991	
1412	0	32776	32726	35988	
1413	0	32908	32814	35986	
1414	0	32838	32880	35980	
1415	0	32830	32848	35972	
1416	0	32801	32857	35980	
1417	0	32785	32870	35975	
1418	0	32808	32975	35970	
1419	0	32745	32882	35984	
1420	0	32736	32916	36005	
1421	0	32748	32918	36001	
1422	0	32756	32960	35982	
1423	0	32772	32990	35992	
1424	0	32756	32876	35984	
1425	0	32696	32815	35973	
1426	0	32764	32787	35976	
1427	0	32752	32748	35962	
1428	0	32808	32706	35964	
1429	0	32812	32752	35956	
1430	0	32860	32782	35957	
1431	0	32834	32778	35948	
1432	0	32852	32761	35930	
1433	0	32796	32767	35918	
1434	0	32780	32721	35928	
1435	0	32822	32720	35912	
1436	0	32808	32788	35920	
1437	0	32820	32841	35936	
1438	0	32746	32913	35927	
1439	0	32796	32966	35952	
1440	0	32762	32932	35972	
1441	0	32680	32920	35980	
1442	0	32720	32888	35992	
1443	0	32776	32876	35946	
1444	0	32752	32808	35977	
1445	0	32716	32837	35980	
1446	0	32781	32828	35966	
1447	0	32812	32776	35967	
1448	0	32840	32774	35975	
1449	0	32776	32789	35977	
1450	0	32808	32767	35964	
1451	0	32856	32686	35975	
1452	0	32834	32728	35957	
1453	0	32911	32768	35960	
1454	0	32768	32806	35958	
1455	0	32836	32768	35956	
1456	0	32808	32774	35964	
1457	0	32772	32900	35956	
1458	0	32764	32916	35957	
1459	0	32774	32868	35952	
1460	0	32748	32932	35966	
1461	0	32696	32960	35988	
1462	0	32708	32884	35980	
1463	0	32736	32921	35974	
1464	0	32725	32911	35980	
1465	0	32708	32830	36001	
1466	0	32748	32797	36017	
1467	0	32808	32794	36006	
1468	0	32826	32695	36004	
1469	0	32842	32732	35986	
1470	0	32812	32809	35972	
1471	0	32840	32772	35978	
1472	0	32884	32745	35969	
1473	0	32852	32741	35940	
1474	0	32784	32816	35948	
1475	0	32766	32843	35935	
1476	0	32800	32857	35936	
1477	0	32764	32885	35932	
1478	0	32846	32840	35958	
1479	0	32812	32917	35974	
1480	0	32732	32963	35992	
1481	0	32718	32972	36016	
1482	0	32750	32917	36001	
1483	0	32748	32878	36012	
1484	0	32724	32863	35974	
1485	0	32784	32828	35986	
1486	0	32796	32816	35993	
1487	0	32800	32801	35992	
1488	0	32812	32732	36004	
1489	0	32764	32784	35982	
1490	0	32813	32772	35976	
1491	0	32809	32723	35970	
1492	0	32844	32750	35932	
1493	0	32818	32823	35940	
1494	0	32852	32764	35957	
1495	0	32812	32772	35975	
1496	0	32780	32784	35952	
1497	0	32808	32841	35966	
1498	0	32804	32926	35953	
1499	0	32732	32900	35964	
1500	0	32732	32961	35974	
1501	0	32780	32953	36006	
1502	0	32749	32959	36013	
1503	0	32720	32984	36000	
1504	0	32764	32888	36007	
1505	0	32774	32770	36012	
1506	0	32768	32767	35992	
1507	0	32828	32817	35984	
1508	0	32804	32774	35974	
1509	0	32842	32720	35988	
1510	0	32884	32564	35976	
1511	0	32788	32660	35982	
1512	0	32880	32724	35943	
1513	0	32842	32690	35936	
1514	0	32804	32786	35952	
1515	0	32880	32932	35962	
1516	0	32825	32953	35972	
1517	0	32740	32933	35975	
1518	0	32756	32896	35996	
1519	0	32832	32880	35988	
1520	0	32776	32936	35984	
1521	0	32740	32940	35990	
1522	0	32696	32910	35998	
1523	0	32680	32817	35997	
1524	0	32756	32868	36002	
1525	0	32768	32824	35990	
1526	0	32792	32760	35980	
1527	0	32776	32748	35968	
1528	0	32812	32733	35965	
1529	0	32812	32775	35964	
1530	0	32804	32796	35950	
1531	0	32842	32736	35976	
1532	0	32808	32775	35992	
1533	0	32800	32712	35956	
1534	0	32816	32716	35948	
1535	0	32840	32753	35948	
1536	0	32824	32820	35944	
1537	0	32728	32828	35954	
1538	0	32720	32917	35937	
1539	0	32736	32888	35952	
1540	0	32750	32988	35949	
1541	0	32764	32961	35954	
1542	0	32760	32964	35984	
1543	0	32748	32965	35972	
1544	0	32784	32900	35996	
1545	0	32758	32857	35980	
1546	0	32732	32761	35980	
1547	0	32764	32800	35972	
1548	0	32804	32800	35972	
1549	0	32788	32775	35978	
1550	0	32808	32746	35975	
1551	0	32876	32858	35950	
1552	0	32852	32813	35946	
1553	0	32804	32789	35936	
1554	0	32781	32798	35913	
1555	0	32808	32769	35924	
1556	0	32848	32824	35941	
1557	0	32724	32820	35937	
1558	0	32804	32764	35956	
1559	0	32704	32956	35951	
1560	0	32740	32868	35964	
1561	0	32740	32870	35953	
1562	0	32712	32861	35984	
1563	0	32772	32840	35992	
1564	0	32748	32844	36000	
1565	0	32812	32783	35952	
1566	0	32709	32800	35973	
1567	0	32848	32864	35984	
1568	0	32816	32710	35992	
1569	0	32772	32704	35968	
1570	0	32800	32656	35956	
1571	0	32836	32666	35961	
1572	0	32808	32737	35948	
1573	0	32884	32730	35946	
1574	0	32780	32853	35951	
1575	0	32806	32798	35964	
1576	0	32732	32834	35957	
1577	0	32741	32836	35980	
1578	0	32752	32895	35980	
1579	0	32812	32898	35960	
1580	0	32772	32960	35978	
1581	0	32816	32876	35988	
1582	0	32732	32948	35998	
1583	0	32728	32869	35985	
1584	0	32740	32813	35992	
1585	0	32764	32824	36009	
1586	0	32736	32850	36012	
1587	0	32800	32761	35982	
1588	0	32781	32767	35981	
1589	0	32820	32772	35990	
1590	0	32844	32633	35956	
1591	0	32828	32752	35944	
1592	0	32856	32680	35962	
1593	0	32874	32860	35956	
1594	0	32777	32897	35946	
1595	0	32816	32956	35964	
1596	0	32800	32900	35965	
1597	0	32812	33011	35957	
1598	0	32864	32964	35974	
1599	0	32740	32881	35956	
1600	0	32792	32920	35982	
1601	0	32741	32952	35996	
1602	0	32724	32944	35996	
1603	0	32734	32872	35989	
1604	0	32746	32777	35992	
1605	0	32729	32868	35982	
1606	0	32748	32784	35988	
1607	0	32784	32813	35976	
1608	0	32780	32775	35968	
1609	0	32820	32866	35992	
1610	0	32805	32812	35984	
1611	0	32809	32788	35976	
1612	0	32828	32745	35968	
1613	0	32808	32781	35972	
1614	0	32789	32802	35952	
1615	0	32865	32801	35954	
1616	0	32805	32809	35960	
1617	0	32828	32908	35984	
1618	0	32764	32840	35972	
1619	0	32724	32820	35972	
1620	0	32808	32884	35964	
1621	0	32800	32908	35968	
1622	0	32736	32904	35967	
1623	0	32768	32924	35966	
1624	0	32677	32911	35996	
1625	0	32728	32852	35978	
1626	0	32756	32838	35969	
1627	0	32728	32764	35977	
1628	0	32788	32757	35973	
1629	0	32768	32732	35977	
1630	0	32844	32775	35974	
1631	0	32836	32758	35974	
1632	0	32780	32768	35982	
1633	0	32888	32656	35960	
1634	0	32864	32832	35926	
1635	0	32796	32791	35948	
1636	0	32800	32799	35924	
1637	0	32774	32876	35952	
1638	0	32750	32916	35976	
1639	0	32812	32921	35984	
1640	0	32738	32892	36004	
1641	0	32760	32974	36004	
1642	0	32784	32912	36028	
1643	0	32716	32904	36016	
1644	0	32752	32816	36004	
1645	0	32682	32775	36013	
1646	0	32764	32804	35972	
1647	0	32796	32736	35988	
1648	0	32736	32696	35982	
1649	0	32853	32821	35960	
1650	0	32780	32804	35963	
1651	0	32808	32708	35957	
1652	0	32904	32738	35964	
1653	0	32816	32820	35952	
1654	0	32824	32781	35960	
1655	0	32817	32841	35944	
1656	0	32724	32806	35964	
1657	0	32772	32846	35969	
1658	0	32784	32849	35962	
1659	0	32803	32865	35969	
1660	0	32780	33014	35964	
1661	0	32764	32969	35986	
1662	0	32713	32895	36000	
1663	0	32760	33012	36009	
1664	0	32788	32828	35996	
1665	0	32768	32760	35990	
1666	0	32796	32796	35995	
1667	0	32796	32756	35976	
1668	0	32760	32838	35980	
1669	0	32834	32870	35984	
1670	0	32828	32852	35988	
1671	0	32840	32820	35970	
1672	0	32845	32668	35967	
1673	0	32836	32676	35968	
1674	0	32828	32717	35964	
1675	0	32830	32844	35962	
1676	0	32841	32865	35957	
1677	0	32796	32860	35961	
1678	0	32846	32917	35975	
1679	0	32728	32952	35979	
1680	0	32778	32948	35992	
1681	0	32740	32941	35992	
1682	0	32744	32884	36004	
1683	0	32772	32908	36004	
1684	0	32696	32876	36008	
1685	0	32760	32903	35996	
1686	0	32736	32959	36004	
1687	0	32788	32792	35998	
1688	0	32780	32729	35984	
1689	0	32784	32697	35974	
1690	0	32892	32708	35984	
1691	0	32856	32812	35976	
1692	0	32844	32696	35993	
1693	0	32828	32673	35998	
1694	0	32820	32808	36004	
1695	0	32809	32742	35984	
1696	0	32812	32860	35978	
1697	0	32794	32932	35984	
1698	0	32846	32908	35984	
1699	0	32737	32906	36009	
1700	0	32754	32869	36012	
1701	0	32786	32988	36005	
1702	0	32756	32960	36004	
1703	0	32708	33010	36008	
1704	0	32760	32836	36011	
1705	0	32768	32796	36006	
1706	0	32748	32937	35996	
1707	0	32780	32792	35994	
1708	0	32733	32828	35997	
1709	0	32856	32712	36004	
1710	0	32832	32766	35989	
1711	0	32832	32761	35992	
1712	0	32820	32742	35964	
1713	0	32808	32800	35964	
1714	0	32736	32740	35937	
1715	0	32786	32764	35945	
1716	0	32840	32888	35952	
1717	0	32838	32845	35964	
1718	0	32804	32877	35965	
1719	0	32808	32877	35972	
1720	0	32736	32985	35964	
1721	0	32676	32936	35992	
1722	0	32776	32927	35982	
1723	0	32764	32964	35979	
1724	0	32750	32828	35992	
1725	0	32704	32794	35998	
1726	0	32744	32711	35996	
1727	0	32800	32766	35996	
1728	0	32812	32716	35996	
1729	0	32792	32773	36012	
1730	0	32856	32809	36004	
1731	0	32844	32824	35978	
1732	0	32800	32733	35966	
1733	0	32800	32775	35950	
1734	0	32824	32832	35942	
1735	0	32821	32905	35949	
1736	0	32860	32848	35940	
1737	0	32820	32881	35964	
1738	0	32758	32868	35972	
1739	0	32784	32917	35974	
1740	0	32796	32999	35973	
1741	0	32728	32917	35993	
1742	0	32708	32837	35980	
1743	0	32748	32813	35984	
1744	0	32746	32816	35976	
1745	0	32760	32868	35968	
1746	0	32736	32775	35967	
1747	0	32720	32665	35964	
1748	0	32800	32768	35965	
1749	0	32775	32764	35956	
1750	0	32816	32757	35941	
1751	0	32866	32668	35964	
1752	0	32848	32730	35975	
1753	0	32832	32716	35988	
1754	0	32824	32801	35964	
1755	0	32800	32786	35964	
1756	0	32791	32824	35958	
1757	0	32824	32842	35976	
1758	0	32764	32862	35988	
1759	0	32736	32836	35980	
1760	0	32740	32945	36000	
1761	0	32704	32980	35998	
1762	0	32734	33009	36016	
1763	0	32740	32956	36014	
1764	0	32752	32841	35988	
1765	0	32752	32756	36012	
1766	0	32722	32847	36009	
1767	0	32788	32784	36014	
1768	0	32752	32740	35999	
1769	0	32808	32744	35999	
1770	0	32820	32794	35980	
1771	0	32892	32804	35974	
1772	0	32900	32830	35988	
1773	0	32857	32804	35957	
1774	0	32776	32818	35966	
1775	0	32820	32812	35949	
1776	0	32824	32858	35948	
1777	0	32754	32825	35988	
1778	0	32804	32894	36000	
1779	0	32773	32880	36008	
1780	0	32780	32980	36005	
1781	0	32786	32943	35998	
1782	0	32720	32926	36004	
1783	0	32736	32901	35993	
1784	0	32812	32872	35980	
1785	0	32716	32820	35980	
1786	0	32690	32890	35974	
1787	0	32760	32792	35965	
1788	0	32792	32775	35972	
1789	0	32842	32731	35981	
1790	0	32820	32712	35982	
1791	0	32880	32810	35981	
1792	0	32813	32853	35965	
1793	0	32800	32735	35984	
1794	0	32852	32590	35993	
1795	0	32800	32836	35984	
1796	0	32830	32764	35977	
1797	0	32776	32882	35988	
1798	0	32788	32966	35988	
1799	0	32761	33006	35996	
1800	0	32780	33038	36004	
1801	0	32744	32988	35986	
1802	0	32724	32869	35976	
1803	0	32696	32808	35980	
1804	0	32752	32868	35975	
1805	0	32748	32840	35984	
1806	0	32728	32881	35996	
1807	0	32793	32824	36000	
1808	0	32792	32753	36005	
1809	0	32804	32664	35998	
1810	0	32848	32723	35988	
1811	0	32797	32788	35988	
1812	0	32836	32792	35975	
1813	0	32806	32706	35969	
1814	0	32854	32812	35964	
1815	0	32808	32738	35972	
1816	0	32818	32804	35951	
1817	0	32837	32860	35948	
1818	0	32816	32916	35954	
1819	0	32780	32892	35964	
1820	0	32728	32912	35975	
1821	0	32772	32956	35978	
1822	0	32796	32965	35988	
1823	0	32772	33000	36020	
1824	0	32800	32881	36009	
1825	0	32740	32876	36010	
1826	0	32716	32824	35997	
1827	0	32728	32751	35988	
1828	0	32772	32880	35976	
1829	0	32733	32712	35956	
1830	0	32836	32760	35940	
1831	0	32872	32708	35945	
1832	0	32821	32734	35936	
1833	0	32808	32848	35968	
1834	0	32852	32816	35948	
1835	0	32852	32828	35946	
1836	0	32852	32782	35956	
1837	0	32762	32870	35952	
1838	0	32784	32892	35948	
1839	0	32716	32826	35952	
1840	0	32798	32885	35974	
1841	0	32772	32852	35984	
1842	0	32660	32913	35994	
1843	0	32772	32852	36012	
1844	0	32736	32868	35988	
1845	0	32744	32871	35990	
1846	0	32818	32852	35990	
1847	0	32764	32768	35964	
1848	0	32773	32873	35938	
1849	0	32788	32756	35935	
1850	0	32840	32636	35947	
1851	0	32832	32758	35944	
1852	0	32852	32775	35948	
1853	0	32932	32809	35952	
1854	0	32848	32836	35960	
1855	0	32845	32861	35956	
1856	0	32828	32905	35956	
1857	0	32784	32960	35956	
1858	0	32748	32982	35969	
1859	0	32744	32847	35984	
1860	0	32764	32945	35988	
1861	0	32776	32897	36004	
1862	0	32756	32872	36021	
1863	0	32722	32832	36012	
1864	0	32745	32884	36006	
1865	0	32744	32849	35994	
1866	0	32740	32713	35992	
1867	0	32740	32781	35992	
1868	0	32804	32798	35964	
1869	0	32797	32678	35976	
1870	0	32852	32742	35980	
1871	0	32824	32804	35948	
1872	0	32824	32725	35956	
1873	0	32852	32765	35974	
1874	0	32784	32753	35969	
1875	0	32820	32834	35967	
1876	0	32800	32854	35948	
1877	0	32768	32792	35944	
1878	0	32806	32884	35957	
1879	0	32776	32964	35951	
1880	0	32788	32862	35950	
1881	0	32798	32928	35968	
1882	0	32760	32919	35949	
1883	0	32784	33010	35978	
1884	0	32714	32910	35991	
1885	0	32668	32847	36004	
1886	0	32736	32820	36015	
1887	0	32744	32697	36016	
1888	0	32752	32797	36008	
1889	0	32748	32775	36000	
1890	0	32800	32688	35994	
1891	0	32832	32807	35980	
1892	0	32824	32820	35967	
1893	0	32856	32814	35972	
1894	0	32848	32784	35973	
1895	0	32802	32792	35988	
1896	0	32848	32824	35972	
1897	0	32828	32757	35965	
1898	0	32764	32892	35953	
1899	0	32842	32921	35974	
1900	0	32808	32961	35974	
1901	0	32768	33012	35968	
1902	0	32737	32929	35994	
1903	0	32686	32966	35984	
1904	0	32745	32908	35970	
1905	0	32676	32820	35959	
1906	0	32693	32895	35965	
1907	0	32768	32775	35980	
1908	0	32760	32816	35996	
1909	0	32744	32696	35976	
1910	0	32844	32681	35967	
1911	0	32869	32710	35996	
1912	0	32836	32705	35976	
1913	0	32908	32734	35972	
1914	0	32836	32625	35968	
1915	0	32796	32670	35976	
1916	0	32786	32780	35977	
1917	0	32840	32805	35969	
1918	0	32793	32861	35975	
1919	0	32773	32928	35965	
1920	0	32784	33076	35956	
1921	0	32759	33098	35980	
1922	0	32781	32941	36004	
1923	0	32788	32970	36014	
1924	0	32720	32780	35998	
1925	0	32732	32796	35984	
1926	0	32754	32766	35969	
1927	0	32848	32744	35960	
1928	0	32780	32732	35967	
1929	0	32778	32712	35967	
1930	0	32716	32676	35978	
1931	0	32856	32826	35973	
1932	0	32856	32754	35968	
1933	0	32871	32749	35965	
1934	0	32848	32732	35972	
1935	0	32800	32824	35986	
1936	0	32804	32862	35968	
1937	0	32757	32848	35980	
1938	0	32796	32948	35972	
1939	0	32782	32934	35975	
1940	0	32756	32906	35993	
1941	0	32744	32913	36013	
1942	0	32740	32920	36033	
1943	0	32740	32956	36004	
1944	0	32792	32928	36000	
1945	0	32742	32839	35993	
1946	0	32813	32816	35989	
1947	0	32740	32775	35975	
1948	0	32774	32895	35967	
1949	0	32768	32719	35958	
1950	0	32825	32688	35959	
1951	0	32800	32728	35942	
1952	0	32812	32837	35945	
1953	0	32892	32813	35944	
1954	0	32852	32761	35936	
1955	0	32788	32790	35940	
1956	0	32845	32825	35940	
1957	0	32785	32852	35966	
1958	0	32798	32852	35972	
1959	0	32764	32912	35988	
1960	0	32767	32952	35984	
1961	0	32808	32838	35970	
1962	0	32777	32923	35992	
1963	0	32764	32917	35998	
1964	0	32720	32838	36004	
1965	0	32764	32897	36006	
1966	0	32724	32900	36001	
1967	0	32745	32766	36004	
1968	0	32744	32732	35997	
1969	0	32748	32747	35988	
1970	0	32801	32733	36008	
1971	0	32852	32768	35988	
1972	0	32845	32769	35985	
1973	0	32854	32797	35984	
1974	0	32854	32712	35960	
1975	0	32888	32754	35962	
1976	0	32840	32820	35943	
1977	0	32740	32745	35968	
1978	0	32813	32838	35958	
1979	0	32788	32868	35956	
1980	0	32766	33006	35971	
1981	0	32788	33008	36004	
1982	0	32728	32964	36012	
1983	0	32688	32936	36018	
1984	0	32724	32898	36000	
1985	0	32760	32856	35997	
1986	0	32764	32780	35992	
1987	0	32784	32782	35972	
1988	0	32780	32756	35969	
1989	0	32801	32712	35960	
1990	0	32764	32813	35984	
1991	0	32832	32804	35970	
1992	0	32880	32728	35984	
1993	0	32824	32864	36004	
1994	0	32784	32780	35992	
1995	0	32834	32832	35993	
1996	0	32784	32772	35980	
1997	0	32832	32816	35988	
1998	0	32804	32960	35980	
1999	0	32768	32910	35983	
2000	0	32726	33069	35976	
2001	0	32818	32904	35980	
2002	0	32724	33044	35988	
2003	0	32752	33056	36004	
2004	0	32804	32926	35984	
2005	0	32736	32920	36004	
2006	0	32756	32781	35976	
2007	0	32752	32784	35962	
2008	0	32776	32772	35949	
2009	0	32832	32728	35964	
2010	0	32784	32744	35964	
2011	0	32828	32688	35960	
2012	0	32844	32697	35948	
2013	0	32844	32879	35932	
2014	0	32838	32552	35951	
2015	0	32836	32756	35970	
2016	0	32788	32824	35988	
2017	0	32728	32708	35976	
2018	0	32800	32938	35991	
2019	0	32770	32973	35975	
2020	0	32748	33126	35975	
2021	0	32756	33048	35998	
2022	0	32700	32970	36002	
2023	0	32832	32984	36000	
2024	0	32792	32863	35984	
2025	0	32688	32752	35973	
2026	0	32758	32752	35957	
2027	0	32760	32712	35952	
2028	0	32769	32760	35962	
2029	0	32832	32730	35956	
2030	0	32861	32716	35954	
2031	0	32749	32712	35965	
2032	0	32872	32712	35956	
2033	0	32840	32766	35954	
2034	0	32884	32773	35948	
2035	0	32796	32825	35946	
2036	0	32840	32810	35952	
2037	0	32788	32844	35952	
2038	0	32792	32977	35972	
2039	0	32752	32868	35996	
2040	0	32798	32916	36018	
2041	0	32694	32996	36024	
2042	0	32768	32968	36017	
2043	0	32720	32956	36016	
2044	0	32760	32844	36016	
2045	0	32717	32820	36008	
2046	0	32760	32846	36006	
2047	0	32740	32888	36014	
2048	0	32828	32902	36000	
2049	0	32876	32772	36006	
2050	0	32808	32820	35984	
2051	0	32792	32778	35984	
2052	0	32832	32744	35968	
2053	0	32918	32750	35975	
2054	0	32861	32684	35956	
2055	0	32784	32752	35940	
2056	0	32824	32839	35944	
2057	0	32796	32850	35960	
2058	0	32732	32925	35980	
2059	0	32821	32884	35980	
2060	0	32736	32901	36021	
2061	0	32708	32889	36012	
2062	0	32728	32954	35998	
2063	0	32796	32888	35972	
2064	0	32725	32792	35976	
2065	0	32705	32926	35984	
2066	0	32824	32790	36020	
2067	0	32804	32770	36008	
2068	0	32772	32736	35988	
2069	0	32820	32740	35976	
2070	0	32760	32756	35974	
2071	0	32784	32773	35980	
2072	0	32868	32828	35987	
2073	0	32846	32724	35965	
2074	0	32828	32772	35940	
2075	0	32820	32805	35952	
2076	0	32824	32833	35958	
2077	0	32804	32988	35980	
2078	0	32804	32896	35980	
2079	0	32756	32888	36002	
2080	0	32768	32948	36001	
2081	0	32741	32937	36004	
2082	0	32764	32864	36021	
2083	0	32752	32836	36012	
2084	0	32708	32808	36000	
2085	0	32665	32816	35998	
2086	0	32736	32891	36014	
2087	0	32828	32708	36005	
2088	0	32772	32764	35975	
2089	0	32778	32748	35969	
2090	0	32796	32705	35934	
2091	0	32784	32761	35954	
2092	0	32808	32836	35992	
2093	0	32820	32808	35982	
2094	0	32904	32792	35978	
2095	0	32804	32789	35964	
2096	0	32844	32750	35961	
2097	0	32769	32853	35956	
2098	0	32852	32908	35992	
2099	0	32836	32859	35976	
2100	0	32772	32961	36006	
2101	0	32800	32924	35988	
2102	0	32720	32885	35977	
2103	0	32693	32916	35988	
2104	0	32748	32919	35967	
2105	0	32776	32821	35970	
2106	0	32760	32817	35988	
2107	0	32744	32868	35988	
2108	0	32765	32784	35976	
2109	0	32788	32742	35972	
2110	0	32825	32834	35964	
2111	0	32808	32740	35976	
2112	0	32812	32687	35967	
2113	0	32906	32721	35964	
2114	0	32882	32716	35972	
2115	0	32772	32860	35964	
2116	0	32796	32769	35953	
2117	0	32722	32842	35961	
2118	0	32784	32896	35980	
2119	0	32816	32818	35985	
2120	0	32800	32878	35988	
2121	0	32772	32940	35983	
2122	0	32760	32900	36018	
2123	0	32726	33014	36020	
2124	0	32752	32954	36014	
2125	0	32756	32860	36018	
2126	0	32724	32812	36012	
2127	0	32752	32672	36000	
2128	0	32809	32713	35988	
2129	0	32828	32740	35975	
2130	0	32814	32652	35969	
2131	0	32762	32805	35948	
2132	0	32864	32910	35956	
2133	0	32836	32936	35961	
2134	0	32832	32958	35953	
2135	0	32822	32785	35967	
2136	0	32864	32862	35968	
2137	0	32736	32818	35960	
2138	0	32775	32868	35948	
2139	0	32828	32852	35976	
2140	0	32756	32964	35988	
2141	0	32744	32932	35990	
2142	0	32692	32870	35984	
2143	0	32721	32878	35986	
2144	0	32816	32864	35972	
2145	0	32736	32772	35988	
2146	0	32768	32824	35980	
2147	0	32768	32782	35988	
2148	0	32824	32775	35976	
2149	0	32774	32772	35998	
2150	0	32772	32707	35993	
2151	0	32817	32753	35982	
2152	0	32836	32677	35980	
2153	0	32872	32792	35960	
2154	0	32824	32736	35956	
2155	0	32900	32872	35960	
2156	0	32817	32876	35962	
2157	0	32793	32941	35952	
2158	0	32808	32852	35942	
2159	0	32798	32828	35956	
2160	0	32752	32840	35980	
2161	0	32766	32910	35999	
2162	0	32756	33068	35972	
2163	0	32756	33092	36004	
2164	0	32775	32952	36004	
2165	0	32788	32828	35980	
2166	0	32772	32812	35975	
2167	0	32776	32775	35968	
2168	0	32736	32846	35940	
2169	0	32800	32804	35944	
2170	0	32816	32745	35940	
2171	0	32861	32678	35940	
2172	0	32894	32742	35952	
2173	0	32872	32770	35944	
2174	0	32847	32728	35948	
2175	0	32804	32720	35974	
2176	0	32808	32756	35980	
2177	0	32817	32804	35974	
2178	0	32783	32873	35977	
2179	0	32736	32941	35980	
2180	0	32740	32920	35988	
2181	0	32744	32872	35999	
2182	0	32822	32972	35994	
2183	0	32744	33010	35996	
2184	0	32798	32934	35997	
2185	0	32716	32812	35993	
2186	0	32764	32726	36004	
2187	0	32792	32760	35996	
2188	0	32796	32764	35990	
2189	0	32780	32775	35974	
2190	0	32868	32868	35956	
2191	0	32776	32769	35940	
2192	0	32836	32753	35936	
2193	0	32792	32697	35944	
2194	0	32848	32656	35974	
2195	0	32846	32760	35966	
2196	0	32832	32828	35964	
2197	0	32840	32869	35940	
2198	0	32792	32876	35959	
2199	0	32780	32814	35952	
2200	0	32740	32912	35984	
2201	0	32780	32984	36009	
2202	0	32681	33019	36016	
2203	0	32692	32972	36008	
2204	0	32728	32860	36009	
2205	0	32722	32789	36012	
2206	0	32732	32880	36004	
2207	0	32796	32784	36000	
2208	0	32756	32785	35996	
2209	0	32805	32758	35980	
2210	0	32820	32716	35986	
2211	0	32876	32764	35972	
2212	0	32818	32712	35992	
2213	0	32861	32761	35997	
2214	0	32816	32848	35964	
2215	0	32793	32792	35960	
2216	0	32809	32860	35972	
2217	0	32780	32847	35968	
2218	0	32800	32865	35973	
2219	0	32768	32912	35969	
2220	0	32702	32876	36000	
2221	0	32796	32908	36004	
2222	0	32768	32898	36005	
2223	0	32780	32991	36018	
2224	0	32697	32888	36008	
2225	0	32769	32777	36016	
2226	0	32744	32820	36020	
2227	0	32733	32775	36005	
2228	0	32804	32830	35989	
2229	0	32800	32752	35988	
2230	0	32816	32722	35992	
2231	0	32836	32868	36000	
2232	0	32804	32756	36000	
2233	0	32848	32720	35974	
2234	0	32824	32756	35980	
2235	0	32801	32809	35964	
2236	0	32850	32836	35964	
2237	0	32804	32845	35946	
2238	0	32904	32869	35951	
2239	0	32736	32924	35972	
2240	0	32784	32992	35980	
2241	0	32796	32944	36000	
2242	0	32688	32999	36016	
2243	0	32722	32992	36017	
2244	0	32756	32941	35998	
2245	0	32813	32788	36006	
2246	0	32752	32756	35988	
2247	0	32764	32835	35984	
2248	0	32736	32810	35952	
2249	0	32744	32756	35950	
2250	0	32784	32732	35950	
2251	0	32848	32650	35974	
2252	0	32828	32690	35964	
2253	0	32873	32768	35973	
2254	0	32826	32748	35956	
2255	0	32845	32764	35961	
2256	0	32785	32780	35948	
2257	0	32734	32786	35969	
2258	0	32760	32976	35962	
2259	0	32788	32946	35941	
2260	0	32792	32876	35951	
2261	0	32784	32890	35948	
2262	0	32724	32820	35968	
2263	0	32712	32888	35976	
2264	0	32768	32890	35973	
2265	0	32740	32872	35956	
2266	0	32752	32831	35984	
2267	0	32768	32750	35975	
2268	0	32752	32668	35971	
2269	0	32806	32765	35960	
2270	0	32837	32799	35956	
2271	0	32764	32790	35948	
2272	0	32833	32761	35949	
2273	0	32877	32740	35937	
2274	0	32864	32732	35943	
2275	0	32846	32868	35943	
2276	0	32800	32828	35944	
2277	0	32788	32836	35952	
2278	0	32748	32954	35964	
2279	0	32764	32903	35964	
2280	0	32728	33044	35985	
2281	0	32728	32903	36000	
2282	0	32780	32900	36002	
2283	0	32708	32892	35992	
2284	0	32816	32872	35996	
2285	0	32780	32804	35988	
2286	0	32700	32824	36004	
2287	0	32760	32727	35996	
2288	0	32822	32687	36006	
2289	0	32816	32740	35988	
2290	0	32820	32766	35988	
2291	0	32808	32750	35968	
2292	0	32816	32690	35965	
2293	0	32804	32812	35969	
2294	0	32804	32780	35984	
2295	0	32816	32788	35972	
2296	0	32828	32784	35996	
2297	0	32788	32812	35972	
2298	0	32772	32964	35988	
2299	0	32848	32937	35996	
2300	0	32732	32866	35999	
2301	0	32712	32916	35992	
2302	0	32703	33012	36004	
2303	0	32756	32924	36009	
2304	0	32768	32896	36002	
2305	0	32805	32860	35996	
2306	0	32712	32884	35992	
2307	0	32794	32780	35984	
2308	0	32784	32708	35988	
2309	0	32712	32789	35982	
2310	0	32816	32864	36000	
2311	0	32789	32759	36001	
2312	0	32840	32775	35972	
2313	0	32840	32724	35981	
2314	0	32888	32782	35991	
2315	0	32892	32798	35988	
2316	0	32796	32745	35972	
2317	0	32792	32708	35964	
2318	0	32780	32828	35956	
2319	0	32828	32741	35982	
2320	0	32744	32910	35980	
2321	0	32790	33009	36012	
2322	0	32696	33052	36008	
2323	0	32772	32997	36020	
2324	0	32722	32914	36030	
2325	0	32742	32869	36012	
2326	0	32720	32868	36012	
2327	0	32784	32818	36000	
2328	0	32792	32825	36020	
2329	0	32785	32804	36040	
2330	0	32860	32712	36020	
2331	0	32792	32764	35985	
2332	0	32792	32712	35970	
2333	0	32841	32775	35968	
2334	0	32820	32750	35958	
2335	0	32864	32746	35973	
2336	0	32788	32716	35968	
2337	0	32784	32788	35976	
2338	0	32784	32932	35984	
2339	0	32864	32958	35996	
2340	0	32713	32980	35992	
2341	0	32768	32973	35982	
2342	0	32788	32933	35978	
2343	0	32716	32936	35984	
2344	0	32837	32964	35980	
2345	0	32745	32864	35984	
2346	0	32732	32821	35989	
2347	0	32760	32774	35975	
2348	0	32744	32796	35960	
2349	0	32792	32716	35974	
2350	0	32756	32749	35980	
2351	0	32852	32641	35972	
2352	0	32832	32705	35954	
2353	0	32858	32676	35930	
2354	0	32800	32808	35917	
2355	0	32820	32844	35940	
2356	0	32800	32881	35956	
2357	0	32837	32917	35960	
2358	0	32764	32933	35964	
2359	0	32776	32894	35964	
2360	0	32776	32932	35965	
2361	0	32756	32980	35968	
2362	0	32720	32984	36000	
2363	0	32744	32904	35996	
2364	0	32768	32872	35992	
2365	0	32712	32840	36002	
2366	0	32756	32698	35992	
2367	0	32728	32775	36004	
2368	0	32801	32741	35982	
2369	0	32825	32718	35968	
2370	0	32825	32756	35968	
2371	0	32784	32783	35965	
2372	0	32792	32828	35962	
2373	0	32850	32788	35942	
2374	0	32813	32820	35940	
2375	0	32896	32850	35956	
2376	0	32846	32864	35962	
2377	0	32836	32908	35986	
2378	0	32824	32888	35975	
2379	0	32844	32872	35980	
2380	0	32801	32854	35981	
2381	0	32716	32958	35996	
2382	0	32776	32892	35996	
2383	0	32736	32946	35989	
2384	0	32704	32864	36010	
2385	0	32718	32769	36012	
2386	0	32738	32852	36000	
2387	0	32824	32764	36033	
2388	0	32800	32728	36020	
2389	0	32804	32775	36000	
2390	0	32780	32728	35988	
2391	0	32844	32747	36008	
2392	0	32820	32828	36008	
2393	0	32848	32760	36000	
2394	0	32860	32792	35992	
2395	0	32808	32793	35982	
2396	0	32800	32740	35951	
2397	0	32854	32870	35956	
2398	0	32772	32848	35976	
2399	0	32836	32860	35980	
2400	0	32740	32892	35984	
2401	0	32772	32905	35994	
2402	0	32760	32960	36001	
2403	0	32724	32901	35984	
2404	0	32736	32951	35996	
2405	0	32748	32852	35976	
2406	0	32788	32838	35992	
2407	0	32740	32812	36000	
2408	0	32753	32788	35994	
2409	0	32770	32872	36004	
2410	0	32826	32775	35992	
2411	0	32804	32721	35991	
2412	0	32848	32653	35980	
2413	0	32832	32768	35990	
2414	0	32873	32904	35972	
2415	0	32792	32775	35964	
2416	0	32812	32732	35960	
2417	0	32848	32823	35928	
2418	0	32788	32893	35953	
2419	0	32780	32988	35998	
2420	0	32800	32977	35998	
2421	0	32750	32901	35984	
2422	0	32769	32998	36001	
2423	0	32812	33009	36028	
2424	0	32760	32954	36006	
2425	0	32792	32887	35996	
2426	0	32736	32773	35982	
2427	0	32724	32695	35973	
2428	0	32748	32748	35960	
2429	0	32812	32763	35964	
2430	0	32836	32756	35952	
2431	0	32840	32804	35964	
2432	0	32852	32759	35972	
2433	0	32904	32702	35946	
2434	0	32836	32807	35948	
2435	0	32844	32814	35941	
2436	0	32816	32782	35930	
2437	0	32798	32775	35944	
2438	0	32740	32774	35964	
2439	0	32856	32913	35956	
2440	0	32760	32856	35952	
2441	0	32728	32737	35968	
2442	0	32774	32932	35982	
2443	0	32740	32980	35992	
2444	0	32752	32840	35988	
2445	0	32772	32926	35964	
2446	0	32716	32924	35962	
2447	0	32696	32988	35956	
2448	0	32780	32932	35957	
2449	0	32780	32912	35957	
2450	0	32780	32738	35943	
2451	0	32864	32806	35944	
2452	0	32866	32813	35964	
2453	0	32852	32760	35948	
2454	0	32805	32716	35953	
2455	0	32837	32716	35948	
2456	0	32828	32773	35932	
2457	0	32861	32794	35943	
2458	0	32768	32768	35943	
2459	0	32800	32848	35968	
2460	0	32776	32922	35961	
2461	0	32774	32926	35984	
2462	0	32744	32913	36002	
2463	0	32656	32872	35984	
2464	0	32666	32892	35984	
2465	0	32796	32854	35999	
2466	0	32736	32760	35996	
2467	0	32820	32791	36004	
2468	0	32778	32793	35974	
2469	0	32756	32741	35972	
2470	0	32812	32762	35968	
2471	0	32840	32765	35964	
2472	0	32832	32696	35964	
2473	0	32812	32676	35973	
2474	0	32849	32837	35965	
2475	0	32776	32824	35957	
2476	0	32800	32765	35957	
2477	0	32837	32716	35964	
2478	0	32752	32903	35972	
2479	0	32748	32925	35958	
2480	0	32752	32988	35964	
2481	0	32749	32969	35956	
2482	0	32780	32972	35965	
2483	0	32760	32964	35956	
2484	0	32788	32868	35984	
2485	0	32734	32884	35982	
2486	0	32804	32844	35991	
2487	0	32740	32852	35988	
2488	0	32788	32775	35980	
2489	0	32783	32745	36000	
2490	0	32801	32764	35996	
2491	0	32801	32814	35988	
2492	0	32752	32671	35968	
2493	0	32880	32745	35972	
2494	0	32868	32745	35980	
2495	0	32765	32788	35989	
2496	0	32808	32841	35989	
2497	0	32796	32876	35980	
2498	0	32778	32834	35972	
2499	0	32785	32892	35975	
2500	0	32768	32880	35968	
2501	0	32744	33032	35976	
2502	0	32728	32925	35960	
2503	0	32684	32921	35974	
2504	0	32804	33044	35968	
2505	0	32728	32878	35969	
2506	0	32736	32839	35984	
2507	0	32802	32796	35997	
2508	0	32720	32724	35972	
2509	0	32792	32708	35952	
2510	0	32876	32728	35944	
2511	0	32765	32714	35941	
2512	0	32796	32764	35948	
2513	0	32816	32757	35964	
2514	0	32876	32804	35964	
2515	0	32804	32812	35964	
2516	0	32832	32804	35956	
2517	0	32732	32812	35965	
2518	0	32760	32929	35974	
2519	0	32796	32887	35992	
2520	0	32732	32884	35988	
2521	0	32756	32896	35968	
2522	0	32780	33024	35985	
2523	0	32744	32952	35988	
2524	0	32772	32863	35969	
2525	0	32750	32785	35996	
2526	0	32768	32819	36009	
2527	0	32774	32805	36016	
2528	0	32722	32736	35993	
2529	0	32770	32761	35996	
2530	0	32830	32804	35996	
2531	0	32766	32846	35985	
2532	0	32840	32798	35976	
2533	0	32852	32740	35973	
2534	0	32848	32726	35972	
2535	0	32832	32688	35968	
2536	0	32836	32794	35972	
2537	0	32828	32838	35990	
2538	0	32768	32957	36004	
2539	0	32728	32901	36013	
2540	0	32756	32925	36001	
2541	0	32778	32888	35992	
2542	0	32734	32913	36003	
2543	0	32769	32991	36004	
2544	0	32760	33014	36010	
2545	0	32740	32852	36014	
2546	0	32778	32808	35995	
2547	0	32776	32836	36009	
2548	0	32682	32768	36005	
2549	0	32788	32734	36002	
2550	0	32844	32732	36012	
2551	0	32780	32826	36008	
2552	0	32804	32775	35996	
2553	0	32840	32838	35984	
2554	0	32840	32756	35972	
2555	0	32908	32784	35941	
2556	0	32820	32773	35936	
2557	0	32804	32828	35941	
2558	0	32817	32856	35950	
2559	0	32804	32836	35969	
2560	0	32736	32932	35961	
2561	0	32760	32909	35967	
2562	0	32776	32902	35964	
2563	0	32752	32848	35972	
2564	0	32748	32932	35997	
2565	0	32713	32816	35982	
2566	0	32774	32817	35992	
2567	0	32804	32812	35989	
2568	0	32780	32696	36004	
2569	0	32800	32731	36000	
2570	0	32777	32768	35996	
2571	0	32805	32794	35977	
2572	0	32816	32836	35986	
2573	0	32788	32788	35979	
2574	0	32868	32796	35988	
2575	0	32858	32807	35995	
2576	0	32776	32805	35972	
2577	0	32812	32856	35976	
2578	0	32797	32902	35980	
2579	0	32748	32852	35982	
2580	0	32773	32929	35985	
2581	0	32720	32969	36012	
2582	0	32720	32878	35988	
2583	0	32698	32953	35988	
2584	0	32745	32908	35984	
2585	0	32748	32909	35980	
2586	0	32769	32820	35972	
2587	0	32784	32752	36000	
2588	0	32748	32697	35992	
2589	0	32840	32693	35964	
2590	0	32792	32742	35976	
2591	0	32840	32652	35985	
2592	0	32896	32784	35969	
2593	0	32813	32751	35943	
2594	0	32826	32724	35975	
2595	0	32816	32832	35964	
2596	0	32798	32765	35948	
2597	0	32708	32804	35956	
2598	0	32760	32839	35974	
2599	0	32760	32853	35975	
2600	0	32780	32933	35980	
2601	0	32705	32914	35978	
2602	0	32748	32933	35999	
2603	0	32736	32903	35996	
2604	0	32740	32872	36009	
2605	0	32748	32903	36004	
2606	0	32729	32925	35988	
2607	0	32804	32704	35982	
2608	0	32776	32785	35974	
2609	0	32808	32831	35966	
2610	0	32784	32768	35949	
2611	0	32800	32760	35968	
2612	0	32824	32816	35952	
2613	0	32860	32780	35942	
2614	0	32832	32807	35915	
2615	0	32804	32784	35935	
2616	0	32917	32816	35941	
2617	0	32820	32838	35944	
2618	0	32744	32857	35956	
2619	0	32752	32908	35949	
2620	0	32756	32925	35964	
2621	0	32784	32941	35984	
2622	0	32760	32934	36016	
2623	0	32728	32977	35988	
2624	0	32774	32908	35996	
2625	0	32735	32814	36008	
2626	0	32726	32840	35969	
2627	0	32748	32870	35976	
2628	0	32748	32827	35944	
2629	0	32802	32741	35968	
2630	0	32813	32721	35962	
2631	0	32808	32764	35975	
2632	0	32806	32793	35968	
2633	0	32856	32796	35956	
2634	0	32836	32756	35956	
2635	0	32806	32756	35936	
2636	0	32794	32836	35941	
2637	0	32820	32873	35937	
2638	0	32774	32924	35947	
2639	0	32834	32900	35956	
2640	0	32744	32906	35983	
2641	0	32736	32860	35972	
2642	0	32792	32806	35984	
2643	0	32772	32870	35988	
2644	0	32788	32952	35989	
2645	0	32740	32865	35980	
2646	0	32746	32804	35979	
2647	0	32730	32760	35974	
2648	0	32701	32783	35962	
2649	0	32852	32752	35978	
2650	0	32778	32722	35968	
2651	0	32801	32820	35956	
2652	0	32772	32824	35960	
2653	0	32840	32818	35936	
2654	0	32866	32798	35949	
2655	0	32836	32772	35958	
2656	0	32832	32792	35948	
2657	0	32824	32806	35924	
2658	0	32756	32916	35934	
2659	0	32768	32834	35948	
2660	0	32788	32928	35941	
2661	0	32752	32953	35982	
2662	0	32748	32954	35991	
2663	0	32718	32928	36000	
2664	0	32720	32902	35966	
2665	0	32832	32860	35969	
2666	0	32714	32830	35964	
2667	0	32724	32768	35960	
2668	0	32740	32766	35956	
2669	0	32816	32772	35956	
2670	0	32816	32737	35938	
2671	0	32821	32712	35944	
2672	0	32801	32701	35956	
2673	0	32804	32792	35972	
2674	0	32824	32772	35949	
2675	0	32800	32812	35940	
2676	0	32840	32775	35948	
2677	0	32840	32796	35964	
2678	0	32804	32893	35977	
2679	0	32808	32900	35976	
2680	0	32752	32910	35972	
2681	0	32736	32992	36000	
2682	0	32752	32996	35988	
2683	0	32791	32914	35997	
2684	0	32756	32888	36004	
2685	0	32720	32826	36006	
2686	0	32734	32904	35984	
2687	0	32775	32815	35964	
2688	0	32792	32884	35966	
2689	0	32780	32806	35992	
2690	0	32768	32724	35988	
2691	0	32832	32652	35994	
2692	0	32742	32746	35985	
2693	0	32776	32821	35996	
2694	0	32832	32804	35972	
2695	0	32880	32807	35973	
2696	0	32802	32822	35972	
2697	0	32842	32748	35956	
2698	0	32805	32785	35968	
2699	0	32817	32884	35992	
2700	0	32766	33002	35980	
2701	0	32760	32900	35976	
2702	0	32745	33005	35988	
2703	0	32800	32936	35993	
2704	0	32804	32906	35988	
2705	0	32698	32916	35992	
2706	0	32744	32822	36006	
2707	0	32796	32762	35976	
2708	0	32760	32826	35973	
2709	0	32776	32729	35972	
2710	0	32788	32724	35948	
2711	0	32844	32724	35944	
2712	0	32780	32828	35952	
2713	0	32884	32868	35940	
2714	0	32804	32786	35940	
2715	0	32788	32708	35937	
2716	0	32768	32734	35940	
2717	0	32836	32828	35949	
2718	0	32796	32900	35956	
2719	0	32832	32874	35965	
2720	0	32784	32838	35953	
2721	0	32765	32884	35978	
2722	0	32776	32912	35956	
2723	0	32768	32884	35996	
2724	0	32760	32844	35992	
2725	0	32698	32865	35980	
2726	0	32808	32830	35964	
2727	0	32736	32827	35964	
2728	0	32796	32812	35964	
2729	0	32776	32724	35972	
2730	0	32812	32724	35952	
2731	0	32812	32775	35940	
2732	0	32816	32800	35950	
2733	0	32792	32764	35954	
2734	0	32804	32814	35941	
2735	0	32760	32744	35933	
2736	0	32836	32780	35928	
2737	0	32806	32833	35940	
2738	0	32849	32876	35956	
2739	0	32822	32925	35956	
2740	0	32808	32964	35960	
2741	0	32776	32906	35968	
2742	0	32768	32864	35976	
2743	0	32768	32906	35989	
2744	0	32728	32934	35996	
2745	0	32788	32892	35968	
2746	0	32676	32806	35974	
2747	0	32748	32826	35980	
2748	0	32752	32783	35976	
2749	0	32824	32740	35994	
2750	0	32756	32752	35986	
2751	0	32832	32780	35985	
2752	0	32784	32772	35965	
2753	0	32852	32709	35975	
2754	0	32798	32684	35960	
2755	0	32834	32758	35964	
2756	0	32816	32856	35964	
2757	0	32834	32852	35966	
2758	0	32784	32863	35950	
2759	0	32740	32858	35963	
2760	0	32796	32915	35988	
2761	0	32812	32913	36002	
2762	0	32744	32996	35984	
2763	0	32708	32877	35996	
2764	0	32724	32974	36021	
2765	0	32776	32868	36024	
2766	0	32664	32932	36008	
2767	0	32732	32812	36000	
2768	0	32674	32689	35996	
2769	0	32777	32801	36020	
2770	0	32785	32757	36002	
2771	0	32812	32776	36025	
2772	0	32820	32737	35988	
2773	0	32836	32764	35981	
2774	0	32804	32742	35991	
2775	0	32844	32772	35980	
2776	0	32828	32775	35972	
2777	0	32856	32826	35961	
2778	0	32865	32888	35959	
2779	0	32796	32834	35989	
2780	0	32761	32896	36000	
2781	0	32722	32986	36020	
2782	0	32784	32869	36017	
2783	0	32785	32964	36012	
2784	0	32788	32865	36020	
2785	0	32724	32856	36000	
2786	0	32752	32860	36002	
2787	0	32753	32780	35997	
2788	0	32772	32764	35985	
2789	0	32714	32798	35998	
2790	0	32824	32796	35976	
2791	0	32816	32793	35969	
2792	0	32820	32858	35972	
2793	0	32764	32800	35969	
2794	0	32856	32736	35952	
2795	0	32788	32763	35949	
2796	0	32849	32841	35948	
2797	0	32749	32756	35943	
2798	0	32808	32841	35964	
2799	0	32804	32853	36004	
2800	0	32786	32905	36002	
2801	0	32712	32940	35998	
2802	0	32844	32878	35996	
2803	0	32804	32852	36014	
2804	0	32812	32869	35989	
2805	0	32788	32814	36008	
2806	0	32804	32788	36000	
2807	0	32772	32857	36000	
2808	0	32700	32808	36006	
2809	0	32792	32822	36001	
2810	0	32764	32768	35988	
2811	0	32820	32793	35972	
2812	0	32772	32745	35962	
2813	0	32824	32719	35952	
2814	0	32788	32751	35970	
2815	0	32812	32768	35952	
2816	0	32776	32794	35948	
2817	0	32774	32772	35956	
2818	0	32789	32860	35941	
2819	0	32805	32909	35948	
2820	0	32772	32893	35982	
2821	0	32824	32977	35996	
2822	0	32860	32953	36001	
2823	0	32836	32917	36004	
2824	0	32825	32976	35997	
2825	0	32844	32842	36000	
2826	0	32768	32782	36008	
2827	0	32740	32836	36014	
2828	0	32716	32794	36024	
2829	0	32720	32740	35996	
2830	0	32737	32841	35988	
2831	0	32780	32716	35974	
2832	0	32740	32768	35972	
2833	0	32780	32788	35967	
2834	0	32837	32758	35970	
2835	0	32794	32713	35958	
2836	0	32836	32708	35964	
2837	0	32760	32816	35951	
2838	0	32724	32871	35976	
2839	0	32848	32876	35987	
2840	0	32792	32957	36004	
2841	0	32862	32872	36000	
2842	0	32866	33020	36013	
2843	0	32884	32924	36016	
2844	0	32792	33025	36028	
2845	0	32768	32948	35998	
2846	0	32770	32920	35996	
2847	0	32756	32865	36013	
2848	0	32840	32925	36002	
2849	0	32737	32762	35980	
2850	0	32792	32806	35970	
2851	0	32828	32692	35974	
2852	0	32745	32676	35971	
2853	0	32700	32701	35976	
2854	0	32732	32760	35956	
2855	0	32736	32873	35954	
2856	0	32760	32697	35960	
2857	0	32801	32812	35936	
2858	0	32788	32813	35945	
2859	0	32885	32852	35952	
2860	0	32840	32820	35968	
2861	0	32862	33000	35981	
2862	0	32804	32952	35995	
2863	0	32764	32957	36002	
2864	0	32872	32908	36012	
2865	0	32804	32824	36016	
2866	0	32770	32796	35990	
2867	0	32692	32780	35984	
2868	0	32726	32784	36004	
2869	0	32744	32746	35996	
2870	0	32824	32741	35985	
2871	0	32708	32712	35990	
2872	0	32794	32684	35988	
2873	0	32776	32769	35964	
2874	0	32724	32780	35968	
2875	0	32752	32736	35962	
2876	0	32736	32809	35984	
2877	0	32796	32909	35956	
2878	0	32804	32828	35970	
2879	0	32872	32828	35969	
2880	0	32832	32846	35968	
2881	0	32801	33004	35972	
2882	0	32876	33037	35996	
2883	0	32892	32924	36004	
2884	0	32868	32948	36004	
2885	0	32796	32859	35985	
2886	0	32704	32912	35988	
2887	0	32748	32868	35977	
2888	0	32720	32752	35980	
2889	0	32692	32730	36000	
2890	0	32728	32718	36005	
2891	0	32770	32775	35985	
2892	0	32828	32732	35956	
2893	0	32796	32689	35961	
2894	0	32828	32661	35972	
2895	0	32714	32756	35956	
2896	0	32796	32852	35949	
2897	0	32796	32768	35969	
2898	0	32856	32803	35974	
2899	0	32829	32812	35973	
2900	0	32848	32870	35980	
2901	0	32844	32960	36001	
2902	0	32840	32956	35997	
2903	0	32785	33031	35994	
2904	0	32872	32964	36006	
2905	0	32800	32958	35999	
2906	0	32768	32856	36005	
2907	0	32776	32892	36012	
2908	0	32760	32780	36021	
2909	0	32760	32772	36000	
2910	0	32744	32792	35984	
2911	0	32756	32738	35960	
2912	0	32791	32792	35956	
2913	0	32792	32796	35962	
2914	0	32744	32708	35968	
2915	0	32733	32744	35974	
2916	0	32796	32802	35968	
2917	0	32772	32788	35968	
2918	0	32812	32823	35974	
2919	0	32864	32911	35969	
2920	0	32876	32865	35980	
2921	0	32812	32920	35967	
2922	0	32896	33040	35988	
2923	0	32784	32992	35972	
2924	0	32820	32917	36001	
2925	0	32853	32953	35983	
2926	0	32784	32821	35972	
2927	0	32720	32836	35974	
2928	0	32724	32870	35990	
2929	0	32728	32752	35962	
2930	0	32738	32740	35945	
2931	0	32734	32716	35932	
2932	0	32736	32768	35944	
2933	0	32772	32721	35929	
2934	0	32792	32680	35940	
2935	0	32776	32819	35946	
2936	0	32800	32760	35937	
2937	0	32746	32764	35956	
2938	0	32824	32842	35974	
2939	0	32837	32890	35989	
2940	0	32784	32840	36008	
2941	0	32736	33000	35984	
2942	0	32816	32892	35976	
2943	0	32824	32944	35984	
2944	0	32804	33009	35980	
2945	0	32820	32823	35976	
2946	0	32773	32856	35996	
2947	0	32756	32873	35972	
2948	0	32744	32717	35970	
2949	0	32793	32775	35956	
2950	0	32724	32789	35956	
2951	0	32750	32730	35948	
2952	0	32714	32772	35924	
2953	0	32804	32835	35932	
2954	0	32832	32793	35900	
2955	0	32837	32744	35892	
2956	0	32808	32748	35886	
2957	0	32772	32742	35884	
2958	0	32764	32830	35908	
2959	0	32826	32869	35920	
2960	0	32791	32888	35929	
2961	0	32788	32997	35961	
2962	0	32853	32892	35954	
2963	0	32785	32917	35964	
2964	0	32832	32940	35973	
2965	0	32818	32919	35972	
2966	0	32722	32911	35986	
2967	0	32792	32844	35997	
2968	0	32744	32828	35980	
2969	0	32764	32775	35965	
2970	0	32749	32704	35964	
2971	0	32726	32732	35964	
2972	0	32730	32732	35964	
2973	0	32776	32803	35969	
2974	0	32756	32863	35964	
2975	0	32742	32792	35952	
2976	0	32758	32788	35948	
2977	0	32820	32745	35944	
2978	0	32825	32884	35952	
2979	0	32792	32898	35953	
2980	0	32838	32933	35952	
2981	0	32800	32916	35974	
2982	0	32804	32906	35977	
2983	0	32824	32897	35988	
2984	0	32828	32892	35988	
2985	0	32836	32906	35988	
2986	0	32751	32808	35986	
2987	0	32740	32796	35992	
2988	0	32752	32824	35996	
2989	0	32660	32772	36000	
2990	0	32776	32732	35989	
2991	0	32804	32712	35993	
2992	0	32732	32672	35966	
2993	0	32813	32775	35968	
2994	0	32820	32741	35944	
2995	0	32764	32794	35928	
2996	0	32788	32919	35936	
2997	0	32732	32757	35944	
2998	0	32762	32836	35968	
2999	0	32812	32917	35974	
3000	0	32828	32876	35991	
3001	0	32836	32964	35992	
3002	0	32800	32996	35996	
3003	0	32812	32964	36006	
3004	0	32912	32924	35981	
3005	0	32785	32933	35981	
3006	0	32784	32922	35984	
3007	0	32760	32845	35966	
3008	0	32746	32732	35956	
3009	0	32736	32673	35958	
3010	0	32744	32816	35948	
3011	0	32742	32708	35948	
3012	0	32740	32681	35929	
3013	0	32800	32795	35957	
3014	0	32788	32772	35975	
3015	0	32749	32736	35957	
3016	0	32797	32749	35960	
3017	0	32829	32802	35940	
3018	0	32800	32884	35948	
3019	0	32833	32884	35976	
3020	0	32772	32954	35977	
3021	0	32810	32920	35980	
3022	0	32820	32945	35990	
3023	0	32808	32929	36012	
3024	0	32836	32985	35996	
3025	0	32784	32921	35980	
3026	0	32779	32828	35988	
3027	0	32768	32796	35994	
3028	0	32760	32737	35984	
3029	0	32784	32774	35988	
3030	0	32730	32846	36004	
3031	0	32759	32736	36004	
3032	0	32765	32652	35988	
3033	0	32796	32693	35973	
3034	0	32822	32816	35958	
3035	0	32810	32830	35981	
3036	0	32734	32774	35978	
3037	0	32760	32756	35972	
3038	0	32816	32880	35975	
3039	0	32782	32916	35960	
3040	0	32832	32928	35956	
3041	0	32808	32972	35968	
3042	0	32836	32933	35986	
3043	0	32837	32976	36006	
3044	0	32810	33000	36009	
3045	0	32800	32961	36024	
3046	0	32808	32903	36048	
3047	0	32696	32814	36040	
3048	0	32728	32854	36020	
3049	0	32788	32832	35999	
3050	0	32716	32800	36010	
3051	0	32765	32740	36004	
3052	0	32768	32708	35993	
3053	0	32764	32712	35992	
3054	0	32800	32794	35984	
3055	0	32749	32697	35946	
3056	0	32704	32746	35948	
3057	0	32822	32869	35956	
3058	0	32868	32804	35958	
3059	0	32812	32903	35944	
3060	0	32812	32971	35964	
3061	0	32800	32942	35984	
3062	0	32874	32985	35974	
3063	0	32824	32958	35992	
3064	0	32860	32896	35989	
3065	0	32836	32962	35980	
3066	0	32781	32900	35988	
3067	0	32768	32812	35989	
3068	0	32807	32812	35988	
3069	0	32712	32784	35972	
3070	0	32733	32696	35976	
3071	0	32712	32661	35980	
3072	0	32752	32685	35978	
3073	0	32764	32661	35981	
3074	0	32816	32737	35972	
3075	0	32816	32808	35954	
3076	0	32740	32668	35957	
3077	0	32792	32804	35984	
3078	0	32808	32857	35978	
3079	0	32826	32805	35974	
3080	0	32809	32960	35976	
3081	0	32805	32902	35982	
3082	0	32828	32981	35973	
3083	0	32781	32966	35970	
3084	0	32788	32896	35997	
3085	0	32808	32900	35996	
3086	0	32756	32908	36004	
3087	0	32740	32772	36004	
3088	0	32700	32756	36007	
3089	0	32748	32712	35983	
3090	0	32773	32762	35984	
3091	0	32740	32853	35976	
3092	0	32749	32795	35986	
3093	0	32736	32788	35976	
3094	0	32768	32852	35950	
3095	0	32828	32856	35945	
3096	0	32785	32794	35940	
3097	0	32772	32760	35961	
3098	0	32788	32904	35946	
3099	0	32884	32890	35950	
3100	0	32836	32920	35962	
3101	0	32812	32962	35968	
3102	0	32808	32869	35996	
3103	0	32916	32922	36005	
3104	0	32788	32970	36012	
3105	0	32816	32904	36004	
3106	0	32737	32826	36020	
3107	0	32696	32897	36018	
3108	0	32774	32784	36026	
3109	0	32744	32807	36010	
3110	0	32770	32820	35988	
3111	0	32788	32702	35975	
3112	0	32746	32754	35961	
3113	0	32776	32690	35952	
3114	0	32796	32694	35970	
3115	0	32788	32750	35948	
3116	0	32793	32791	35940	
3117	0	32776	32848	35949	
3118	0	32804	32772	35949	
3119	0	32844	32874	35984	
3120	0	32836	32920	35974	
3121	0	32826	32941	35974	
3122	0	32861	32920	35968	
3123	0	32832	32892	35981	
3124	0	32824	33085	35992	
3125	0	32797	32806	36017	
3126	0	32776	32794	36013	
3127	0	32752	32804	35984	
3128	0	32758	32824	35976	
3129	0	32744	32775	35964	
3130	0	32746	32708	35961	
3131	0	32732	32736	35964	
3132	0	32728	32746	35972	
3133	0	32776	32682	35968	
3134	0	32804	32752	35950	
3135	0	32744	32784	35944	
3136	0	32764	32780	35949	
3137	0	32844	32805	35940	
3138	0	32792	32842	35957	
3139	0	32812	32904	35960	
3140	0	32832	33012	35964	
3141	0	32848	32933	35949	
3142	0	32900	32971	35957	
3143	0	32784	32980	35974	
3144	0	32802	32896	35988	
3145	0	32828	32924	35977	
3146	0	32780	32872	35980	
3147	0	32712	32807	36005	
3148	0	32768	32852	36004	
3149	0	32746	32820	36028	
3150	0	32740	32724	36011	
3151	0	32780	32762	36000	
3152	0	32728	32671	35976	
3153	0	32792	32788	35976	
3154	0	32792	32718	35984	
3155	0	32772	32857	35980	
3156	0	32757	32736	35980	
3157	0	32844	32738	36008	
3158	0	32824	32902	35996	
3159	0	32756	32885	35974	
3160	0	32813	32912	35980	
3161	0	32840	32953	35976	
3162	0	32832	32956	35992	
3163	0	32836	33032	35991	
3164	0	32832	32877	36003	
3165	0	32850	32921	36005	
3166	0	32794	32760	36004	
3167	0	32724	32769	36004	
3168	0	32752	32822	36005	
3169	0	32717	32724	35988	
3170	0	32706	32702	35965	
3171	0	32728	32775	35962	
3172	0	32724	32745	35964	
3173	0	32804	32774	35953	
3174	0	32724	32745	35940	
3175	0	32800	32689	35932	
3176	0	32836	32697	35933	
3177	0	32788	32794	35948	
3178	0	32786	32706	35952	
3179	0	32776	32860	35950	
3180	0	32824	32930	35930	
3181	0	32792	32887	35956	
3182	0	32772	33060	35960	
3183	0	32828	32980	35992	
3184	0	32824	32940	35984	
3185	0	32752	32981	35957	
3186	0	32798	32828	35957	
3187	0	32744	32914	35982	
3188	0	32800	32756	35996	
3189	0	32780	32804	35984	
3190	0	32700	32854	35976	
3191	0	32752	32716	35973	
3192	0	32724	32788	35948	
3193	0	32792	32722	35948	
3194	0	32820	32728	35940	
3195	0	32840	32809	35940	
3196	0	32724	32760	35933	
3197	0	32820	32824	35954	
3198	0	32796	32868	35957	
3199	0	32836	32864	35960	
3200	0	32828	32836	35967	
3201	0	32777	32940	35972	
3202	0	32854	32909	35948	
3203	0	32744	32972	35966	
3204	0	32829	32967	35969	
3205	0	32816	32854	35992	
3206	0	32736	32833	35981	
3207	0	32744	32829	35994	
3208	0	32712	32733	35992	
3209	0	32764	32728	35974	
3210	0	32777	32676	35966	
3211	0	32809	32681	35992	
3212	0	32804	32752	35973	
3213	0	32764	32740	35975	
3214	0	32754	32822	35956	
3215	0	32804	32769	35969	
3216	0	32752	32801	35954	
3217	0	32809	32808	35964	
3218	0	32820	32826	35938	
3219	0	32804	32881	35937	
3220	0	32741	32886	35940	
3221	0	32896	32904	35948	
3222	0	32804	33024	35976	
3223	0	32859	32932	35964	
3224	0	32828	32964	35996	
3225	0	32809	32988	35973	
3226	0	32772	32836	35997	
3227	0	32740	32925	36016	
3228	0	32741	32686	35992	
3229	0	32756	32788	35990	
3230	0	32728	32710	35982	
3231	0	32748	32734	35968	
3232	0	32800	32781	35969	
3233	0	32780	32798	35976	
3234	0	32836	32741	35965	
3235	0	32817	32848	35956	
3236	0	32738	32705	35960	
3237	0	32786	32740	35942	
3238	0	32760	32881	35956	
3239	0	32804	32848	35949	
3240	0	32816	32920	35980	
3241	0	32808	32925	36004	
3242	0	32844	32965	35994	
3243	0	32781	32900	36009	
3244	0	32793	32948	36018	
3245	0	32826	32906	36017	
3246	0	32800	32882	35988	
3247	0	32749	32768	35988	
3248	0	32712	32792	35941	
3249	0	32705	32785	35932	
3250	0	32832	32726	35944	
3251	0	32768	32748	35941	
3252	0	32718	32668	35942	
3253	0	32764	32802	35954	
3254	0	32816	32727	35952	
3255	0	32804	32772	35944	
3256	0	32792	32796	35937	
3257	0	32800	32838	35932	
3258	0	32832	32784	35945	
3259	0	32818	32856	35960	
3260	0	32760	32944	35992	
3261	0	32800	32952	35988	
3262	0	32876	32903	35980	
3263	0	32840	32956	35991	
3264	0	32788	32904	36000	
3265	0	32805	32976	35989	
3266	0	32748	32860	35992	
3267	0	32756	32810	35992	
3268	0	32780	32748	35976	
3269	0	32732	32775	35964	
3270	0	32664	32752	35984	
3271	0	32796	32692	35974	
3272	0	32780	32720	35961	
3273	0	32772	32768	35973	
3274	0	32812	32748	35969	
3275	0	32792	32792	35966	
3276	0	32781	32908	35969	
3277	0	32766	32796	35985	
3278	0	32808	32836	35984	
3279	0	32824	32793	35992	
3280	0	32852	32920	35980	
3281	0	32812	32968	35969	
3282	0	32836	33070	35968	
3283	0	32836	32964	35996	
3284	0	32820	32864	35996	
3285	0	32780	32852	35970	
3286	0	32728	32811	35976	
3287	0	32720	32714	35989	
3288	0	32832	32826	35988	
3289	0	32752	32805	35968	
3290	0	32760	32748	35962	
3291	0	32776	32672	35942	
3292	0	32736	32806	35957	
3293	0	32744	32742	35952	
3294	0	32832	32661	35952	
3295	0	32816	32732	35932	
3296	0	32768	32716	35924	
3297	0	32772	32785	35937	
3298	0	32788	32845	35948	
3299	0	32836	32912	35953	
3300	0	32832	32900	35941	
3301	0	32822	33021	35966	
3302	0	32892	32988	35980	
3303	0	32876	33048	36024	
3304	0	32768	33028	36013	
3305	0	32828	32978	36008	
3306	0	32804	32928	36005	
3307	0	32718	32828	36001	
3308	0	32708	32827	35984	
3309	0	32740	32832	35994	
3310	0	32712	32800	35978	
3311	0	32756	32712	35964	
3312	0	32776	32732	35956	
3313	0	32812	32764	35955	
3314	0	32836	32718	35940	
3315	0	32780	32760	35958	
3316	0	32856	32773	35940	
3317	0	32764	32805	35943	
3318	0	32792	32870	35944	
3319	0	32778	32836	35945	
3320	0	32784	32898	35938	
3321	0	32836	32922	35968	
3322	0	32826	32948	35969	
3323	0	32814	32934	35964	
3324	0	32848	32933	35974	
3325	0	32789	32924	35968	
3326	0	32773	32872	35960	
3327	0	32736	32868	35980	
3328	0	32832	32772	35968	
3329	0	32738	32748	35974	
3330	0	32740	32748	35985	
3331	0	32732	32693	35972	
3332	0	32749	32700	35973	
3333	0	32834	32692	35966	
3334	0	32805	32808	35932	
3335	0	32801	32708	35916	
3336	0	32812	32788	35920	
3337	0	32753	32800	35918	
3338	0	32744	32872	35934	
3339	0	32776	32997	35954	
3340	0	32804	32941	35956	
3341	0	32828	32903	35980	
3342	0	32768	32954	35965	
3343	0	32836	32917	35998	
3344	0	32812	32941	36000	
3345	0	32816	32997	36004	
3346	0	32794	32912	36017	
3347	0	32772	32904	36028	
3348	0	32756	32784	36020	
3349	0	32752	32748	35986	
3350	0	32720	32744	35992	
3351	0	32704	32741	35977	
3352	0	32815	32788	35989	
3353	0	32776	32711	35984	
3354	0	32794	32688	35968	
3355	0	32882	32752	35974	
3356	0	32800	32756	35975	
3357	0	32782	32760	35966	
3358	0	32796	32804	35975	
3359	0	32852	32826	35977	
3360	0	32824	32862	35988	
3361	0	32773	32968	35988	
3362	0	32720	32920	35996	
3363	0	32780	32900	36008	
3364	0	32864	32920	36024	
3365	0	32800	33021	36016	
3366	0	32737	32870	35996	
3367	0	32748	32846	35992	
3368	0	32749	32892	35993	
3369	0	32748	32765	35984	
3370	0	32760	32860	35992	
3371	0	32724	32728	35962	
3372	0	32804	32806	35972	
3373	0	32748	32760	35972	
3374	0	32800	32756	35961	
3375	0	32756	32689	35956	
3376	0	32748	32829	35970	
3377	0	32804	32753	35975	
3378	0	32817	32852	35956	
3379	0	32840	32887	35965	
3380	0	32832	32900	35972	
3381	0	32830	32956	35992	
3382	0	32804	33004	36004	
3383	0	32744	32984	36005	
3384	0	32833	32892	36000	
3385	0	32814	32952	35976	
3386	0	32696	32868	35972	
3387	0	32696	32838	35984	
3388	0	32720	32740	35984	
3389	0	32772	32684	35975	
3390	0	32768	32733	35989	
3391	0	32800	32757	35988	
3392	0	32792	32775	35978	
3393	0	32840	32747	35968	
3394	0	32792	32684	35956	
3395	0	32844	32701	35946	
3396	0	32768	32724	35941	
3397	0	32768	32812	35936	
3398	0	32784	32876	35943	
3399	0	32805	32824	35951	
3400	0	32840	32876	35956	
3401	0	32820	32904	35964	
3402	0	32808	32976	35948	
3403	0	32826	32996	35962	
3404	0	32796	32932	35958	
3405	0	32816	32888	35948	
3406	0	32790	32853	35966	
3407	0	32700	32837	35988	
3408	0	32740	32817	35988	
3409	0	32728	32742	35964	
3410	0	32733	32775	35985	
3411	0	32714	32737	35982	
3412	0	32813	32708	35962	
3413	0	32788	32733	35988	
3414	0	32773	32780	35984	
3415	0	32792	32860	35972	
3416	0	32740	32820	35957	
3417	0	32781	32772	35940	
3418	0	32882	32797	35932	
3419	0	32836	32796	35941	
3420	0	32824	32900	35962	
3421	0	32780	32994	35958	
3422	0	32820	32890	35969	
3423	0	32796	32932	35984	
3424	0	32792	32876	35992	
3425	0	32832	32884	35993	
3426	0	32800	32865	36002	
3427	0	32737	32938	36005	
3428	0	32772	32768	35988	
3429	0	32700	32832	35983	
3430	0	32770	32836	35980	
3431	0	32804	32820	35976	
3432	0	32792	32868	35952	
3433	0	32808	32790	35936	
3434	0	32784	32772	35896	
3435	0	32764	32796	35908	
3436	0	32752	32748	35923	
3437	0	32848	32844	35934	
3438	0	32784	32844	35949	
3439	0	32824	32892	35969	
3440	0	32848	32833	35956	
3441	0	32816	32937	35964	
3442	0	32876	32905	35958	
3443	0	32821	32986	35973	
3444	0	32772	32833	35976	
3445	0	32754	32893	35984	
3446	0	32744	32791	35986	
3447	0	32740	32725	35974	
3448	0	32713	32788	35968	
3449	0	32724	32740	35968	
3450	0	32690	32788	35984	
3451	0	32748	32786	35960	
3452	0	32824	32742	35969	
3453	0	32764	32800	35968	
3454	0	32841	32727	35958	
3455	0	32773	32748	35958	
3456	0	32736	32775	35968	
3457	0	32792	32858	35958	
3458	0	32744	32901	35973	
3459	0	32800	32848	35985	
3460	0	32808	32865	35980	
3461	0	32812	32936	35977	
3462	0	32788	32954	35998	
3463	0	32834	33025	36009	
3464	0	32808	32940	36009	
3465	0	32762	32856	36018	
3466	0	32784	32876	36001	
3467	0	32760	32772	36004	
3468	0	32760	32820	36013	
3469	0	32820	32702	36000	
3470	0	32734	32804	35989	
3471	0	32752	32724	35984	
3472	0	32732	32740	35981	
3473	0	32780	32689	35985	
3474	0	32806	32724	35977	
3475	0	32801	32713	35968	
3476	0	32896	32767	35950	
3477	0	32736	32768	35968	
3478	0	32785	32821	35952	
3479	0	32792	32884	35964	
3480	0	32844	32907	35960	
3481	0	32840	32977	35974	
3482	0	32868	32935	35980	
3483	0	32824	32932	35999	
3484	0	32796	33000	35980	
3485	0	32832	32976	35993	
3486	0	32804	32869	36005	
3487	0	32789	32816	35998	
3488	0	32692	32775	35985	
3489	0	32756	32775	35980	
3490	0	32704	32724	35989	
3491	0	32720	32762	35997	
3492	0	32840	32733	35988	
3493	0	32752	32746	35977	
3494	0	32880	32780	35964	
3495	0	32760	32804	35937	
3496	0	32765	32703	35972	
3497	0	32801	32713	35976	
3498	0	32809	32820	36016	
3499	0	32797	32864	36013	
3500	0	32788	32978	35988	
3501	0	32852	33000	35980	
3502	0	32844	32972	35992	
3503	0	32788	33068	36001	
3504	0	32852	32947	36023	
3505	0	32781	32996	36009	
3506	0	32761	32837	36001	
3507	0	32742	32832	36018	
3508	0	32745	32877	36012	
3509	0	32704	32814	36020	
3510	0	32736	32740	35996	
3511	0	32777	32739	35980	
3512	0	32752	32729	35980	
3513	0	32812	32677	35974	
3514	0	32809	32712	35994	
3515	0	32812	32676	35988	
3516	0	32788	32725	35984	
3517	0	32800	32808	35959	
3518	0	32820	32884	35964	
3519	0	32824	32900	35970	
3520	0	32844	32894	35952	
3521	0	32784	32881	35937	
3522	0	32770	32912	35940	
3523	0	32840	32893	35972	
3524	0	32762	32906	35964	
3525	0	32760	32933	35964	
3526	0	32784	32908	35953	
3527	0	32744	32849	35957	
3528	0	32768	32805	35948	
3529	0	32790	32708	35964	
3530	0	32768	32797	35974	
3531	0	32724	32830	35949	
3532	0	32796	32730	35928	
3533	0	32816	32736	35929	
3534	0	32752	32836	35924	
3535	0	32780	32748	35921	
3536	0	32788	32792	35900	
3537	0	32764	32812	35919	
3538	0	32828	32832	35936	
3539	0	32781	32912	35956	
3540	0	32816	32942	35964	
3541	0	32756	32881	35969	
3542	0	32774	32929	35972	
3543	0	32800	32968	35975	
3544	0	32804	32916	35992	
3545	0	32772	32884	35991	
3546	0	32800	32837	35992	
3547	0	32696	32847	35997	
3548	0	32752	32740	35983	
3549	0	32752	32756	35988	
3550	0	32696	32772	35976	
3551	0	32806	32748	35964	
3552	0	32796	32772	35960	
3553	0	32780	32756	35969	
3554	0	32754	32748	35988	
3555	0	32844	32828	35980	
3556	0	32788	32818	35974	
3557	0	32812	32832	35956	
3558	0	32769	32800	35957	
3559	0	32829	32869	35956	
3560	0	32820	32880	35957	
3561	0	32808	32909	35992	
3562	0	32814	32954	35999	
3563	0	32816	32980	36000	
3564	0	32812	32932	35984	
3565	0	32756	32868	35964	
3566	0	32792	32893	35982	
3567	0	32711	32840	35984	
3568	0	32793	32904	35975	
3569	0	32716	32807	35968	
3570	0	32744	32780	35966	
3571	0	32725	32688	35972	
3572	0	32812	32695	35965	
3573	0	32752	32713	35952	
3574	0	32836	32706	35926	
3575	0	32820	32700	35920	
3576	0	32820	32782	35924	
3577	0	32808	32780	35920	
3578	0	32788	32814	35940	
3579	0	32804	32869	35940	
3580	0	32784	32839	35956	
3581	0	32796	33048	35970	
3582	0	32786	32941	35965	
3583	0	32845	32946	35974	
3584	0	32784	32945	36012	
3585	0	32837	32857	36012	
3586	0	32760	32893	36020	
3587	0	32788	32852	36008	
3588	0	32726	32750	35994	
3589	0	32728	32778	36001	
3590	0	32800	32840	35997	
3591	0	32776	32806	35982	
3592	0	32804	32789	35982	
3593	0	32804	32762	35974	
3594	0	32768	32722	35975	
3595	0	32760	32720	35972	
3596	0	32836	32884	35949	
3597	0	32844	32845	35958	
3598	0	32792	32828	35951	
3599	0	32780	32844	35973	
3600	0	32816	32945	35996	
3601	0	32776	32884	35989	
3602	0	32740	32880	36008	
3603	0	32808	32917	36005	
3604	0	32796	32970	36012	
3605	0	32812	32894	36020	
3606	0	32756	32901	36030	
3607	0	32688	32772	36036	
3608	0	32824	32732	36001	
3609	0	32764	32712	35998	
3610	0	32788	32756	36010	
3611	0	32768	32812	36007	
3612	0	32813	32820	36014	
3613	0	32868	32733	36028	
3614	0	32828	32714	36013	
3615	0	32760	32700	35999	
3616	0	32800	32762	35988	
3617	0	32832	32788	35998	
3618	0	32744	32841	36020	
3619	0	32748	32885	36039	
3620	0	32800	32825	36029	
3621	0	32784	32885	36020	
3622	0	32828	32974	36016	
3623	0	32748	33000	36021	
3624	0	32824	32895	36037	
3625	0	32808	32940	36029	
3626	0	32740	32820	36016	
3627	0	32720	32868	36005	
3628	0	32736	32856	36000	
3629	0	32716	32783	36012	
3630	0	32844	32745	35992	
3631	0	32824	32765	35984	
3632	0	32854	32709	35974	
3633	0	32820	32801	35983	
3634	0	32748	32724	35977	
3635	0	32846	32698	35978	
3636	0	32759	32713	35982	
3637	0	32840	32732	35976	
3638	0	32744	32804	35989	
3639	0	32792	32876	35968	
3640	0	32802	32886	35980	
3641	0	32812	32934	35976	
3642	0	32824	32952	35977	
3643	0	32804	32944	35974	
3644	0	32786	32932	35988	
3645	0	32788	32944	35988	
3646	0	32696	32894	36004	
3647	0	32760	32740	36001	
3648	0	32809	32696	35984	
3649	0	32728	32766	35975	
3650	0	32718	32816	35952	
3651	0	32825	32724	35960	
3652	0	32737	32685	35948	
3653	0	32789	32766	35944	
3654	0	32798	32832	35966	
3655	0	32808	32716	35956	
3656	0	32802	32852	35964	
3657	0	32812	32770	35964	
3658	0	32765	32849	35964	
3659	0	32784	32927	35964	
3660	0	32824	32896	35954	
3661	0	32788	32933	35969	
3662	0	32834	32984	35961	
3663	0	32784	32948	35976	
3664	0	32784	32912	35984	
3665	0	32816	32916	35996	
3666	0	32804	32860	35974	
3667	0	32804	32900	35988	
3668	0	32752	32896	35989	
3669	0	32768	32764	35968	
3670	0	32781	32845	35980	
3671	0	32788	32728	35976	
3672	0	32789	32692	35951	
3673	0	32777	32750	35953	
3674	0	32841	32804	35956	
3675	0	32828	32756	35950	
3676	0	32792	32745	35972	
3677	0	32812	32759	35956	
3678	0	32816	32713	35956	
3679	0	32832	32840	35964	
3680	0	32780	32824	35964	
3681	0	32793	32992	35972	
3682	0	32792	32984	35978	
3683	0	32768	32952	35972	
3684	0	32764	32865	35996	
3685	0	32860	32844	36000	
3686	0	32752	32836	36009	
3687	0	32748	32912	36005	
3688	0	32772	32800	35988	
3689	0	32700	32773	35969	
3690	0	32764	32767	35981	
3691	0	32752	32752	35988	
3692	0	32748	32670	36000	
3693	0	32797	32676	35988	
3694	0	32802	32766	35996	
3695	0	32796	32711	35992	
3696	0	32760	32775	35984	
3697	0	32797	32737	35988	
3698	0	32856	32846	35988	
3699	0	32804	32908	35988	
3700	0	32816	32916	35967	
3701	0	32824	32936	35992	
3702	0	32788	32937	35997	
3703	0	32812	33008	36005	
3704	0	32836	32964	36032	
3705	0	32778	32904	36040	
3706	0	32740	32885	36016	
3707	0	32816	32848	36036	
3708	0	32780	32842	36020	
3709	0	32726	32800	35992	
3710	0	32744	32768	36008	
3711	0	32774	32797	36015	
3712	0	32764	32765	36013	
3713	0	32752	32824	36000	
3714	0	32832	32728	36005	
3715	0	32793	32750	35984	
3716	0	32828	32822	35943	
3717	0	32820	32780	35950	
3718	0	32772	32832	35964	
3719	0	32826	32894	35953	
3720	0	32748	32864	35971	
3721	0	32792	32924	35980	
3722	0	32780	32876	35977	
3723	0	32796	32967	35976	
3724	0	32780	32949	35978	
3725	0	32808	32912	35994	
3726	0	32828	32824	35993	
3727	0	32784	32860	36006	
3728	0	32764	32722	36014	
3729	0	32749	32768	35992	
3730	0	32756	32769	35972	
3731	0	32782	32780	35957	
3732	0	32808	32791	35968	
3733	0	32824	32714	35985	
3734	0	32788	32743	35992	
3735	0	32824	32792	35975	
3736	0	32812	32742	35968	
3737	0	32799	32788	35968	
3738	0	32756	32833	35976	
3739	0	32801	32857	35972	
3740	0	32793	32932	35990	
3741	0	32840	32898	35983	
3742	0	32801	33052	35984	
3743	0	32825	32960	35994	
3744	0	32804	32908	35992	
3745	0	32812	32902	35992	
3746	0	32776	32870	36002	
3747	0	32725	32801	35994	
3748	0	32704	32852	35980	
3749	0	32678	32740	35980	
3750	0	32752	32706	35983	
3751	0	32780	32726	35988	
3752	0	32809	32700	35980	
3753	0	32808	32760	35980	
3754	0	32781	32714	35980	
3755	0	32784	32744	35973	
3756	0	32852	32810	35956	
3757	0	32772	32764	35984	
3758	0	32838	32840	35975	
3759	0	32816	32841	35972	
3760	0	32800	32936	35988	
3761	0	32804	32960	35997	
3762	0	32804	32961	35988	
3763	0	32764	32967	35976	
3764	0	32737	32860	35988	
3765	0	32792	32884	36004	
3766	0	32788	32885	36028	
3767	0	32808	32781	36033	
3768	0	32737	32880	36020	
3769	0	32762	32744	36024	
3770	0	32768	32864	36022	
3771	0	32808	32752	36032	
3772	0	32752	32684	35985	
3773	0	32780	32670	35984	
3774	0	32816	32809	35981	
3775	0	32836	32758	35980	
3776	0	32750	32780	35976	
3777	0	32840	32775	35976	
3778	0	32760	32820	35988	
3779	0	32788	32880	35984	
3780	0	32784	32872	35996	
3781	0	32820	32914	36004	
3782	0	32840	32976	36036	
3783	0	32732	32980	36056	
3784	0	32808	32984	36040	
3785	0	32745	32860	36046	
3786	0	32793	32839	36036	
3787	0	32708	32853	36004	
3788	0	32668	32841	36012	
3789	0	32812	32766	36017	
3790	0	32792	32745	36024	
3791	0	32741	32709	36008	
3792	0	32717	32742	35996	
3793	0	32718	32765	35980	
3794	0	32852	32791	35998	
3795	0	32812	32762	35993	
3796	0	32844	32692	35992	
3797	0	32824	32688	35976	
3798	0	32768	32828	35984	
3799	0	32820	32927	35964	
3800	0	32792	32964	35977	
3801	0	32812	32957	35974	
3802	0	32814	32956	35981	
3803	0	32812	32940	35998	
3804	0	32780	33012	36013	
3805	0	32766	33003	36039	
3806	0	32708	32877	36017	
3807	0	32740	32762	36013	
3808	0	32756	32847	35997	
3809	0	32776	32881	35980	
3810	0	32729	32718	35968	
3811	0	32744	32726	35968	
3812	0	32748	32769	35974	
3813	0	32812	32721	35974	
3814	0	32789	32696	35961	
3815	0	32776	32664	35957	
3816	0	32770	32792	35972	
3817	0	32836	32772	35964	
3818	0	32812	32808	35972	
3819	0	32844	32808	35972	
3820	0	32864	32860	35989	
3821	0	32814	32889	35998	
3822	0	32820	32981	35992	
3823	0	32824	32960	36013	
3824	0	32762	32968	36017	
3825	0	32780	32909	36004	
3826	0	32660	32808	35998	
3827	0	32772	32812	36008	
3828	0	32744	32848	36000	
3829	0	32796	32809	36004	
3830	0	32804	32775	35987	
3831	0	32736	32820	35964	
3832	0	32752	32689	35960	
3833	0	32824	32700	35972	
3834	0	32792	32735	35981	
3835	0	32788	32734	35960	
3836	0	32836	32775	35968	
3837	0	32848	32836	35960	
3838	0	32844	32854	35980	
3839	0	32748	32852	35964	
3840	0	32824	32880	35982	
3841	0	32836	32912	35996	
3842	0	32825	32968	35989	
3843	0	32752	32961	36012	
3844	0	32764	32905	36029	
3845	0	32780	32932	36013	
3846	0	32720	32901	36030	
3847	0	32716	32860	36008	
3848	0	32740	32785	36036	
3849	0	32800	32781	36016	
3850	0	32784	32788	36024	
3851	0	32756	32804	36029	
3852	0	32756	32732	36028	
3853	0	32828	32676	36018	
3854	0	32824	32703	36020	
3855	0	32820	32843	36024	
3856	0	32801	32764	36017	
3857	0	32848	32748	35984	
3858	0	32792	32768	35976	
3859	0	32826	32880	35992	
3860	0	32857	32944	35997	
3861	0	32786	32900	35996	
3862	0	32760	33024	36000	
3863	0	32932	32985	36024	
3864	0	32777	32940	36012	
3865	0	32844	32916	36017	
3866	0	32808	32879	36001	
3867	0	32708	32858	36015	
3868	0	32684	32805	35996	
3869	0	32740	32818	35988	
3870	0	32720	32818	35988	
3871	0	32792	32749	35990	
3872	0	32764	32720	35992	
3873	0	32753	32797	35972	
3874	0	32797	32813	35980	
3875	0	32849	32762	35968	
3876	0	32844	32776	35974	
3877	0	32784	32746	35964	
3878	0	32726	32814	35968	
3879	0	32797	32843	35964	
3880	0	32820	32768	35989	
3881	0	32772	32940	36012	
3882	0	32760	32936	36012	
3883	0	32852	32881	36008	
3884	0	32741	32932	35996	
3885	0	32852	32921	36012	
3886	0	32752	32895	36017	
3887	0	32784	32848	36028	
3888	0	32748	32829	36036	
3889	0	32748	32797	36032	
3890	0	32677	32741	36013	
3891	0	32785	32764	36012	
3892	0	32808	32725	36008	
3893	0	32756	32847	36005	
3894	0	32856	32704	35991	
3895	0	32804	32767	35992	
3896	0	32867	32701	35980	
3897	0	32816	32765	35960	
3898	0	32815	32844	35990	
3899	0	32738	32775	35996	
3900	0	32880	32856	35988	
3901	0	32824	32872	35988	
3902	0	32824	32932	36020	
3903	0	32780	33012	36007	
3904	0	32764	32932	36000	
3905	0	32732	32872	36009	
3906	0	32721	32856	36016	
3907	0	32740	32874	36015	
3908	0	32728	32905	35997	
3909	0	32708	32789	35996	
3910	0	32756	32824	35996	
3911	0	32792	32812	35978	
3912	0	32780	32800	35966	
3913	0	32804	32692	35940	
3914	0	32848	32720	35936	
3915	0	32788	32676	35948	
3916	0	32828	32768	35940	
3917	0	32742	32837	35940	
3918	0	32768	32734	35940	
3919	0	32820	32830	35952	
3920	0	32784	32904	35953	
3921	0	32760	32933	35972	
3922	0	32842	33004	35980	
3923	0	32816	33028	36002	
3924	0	32766	32924	36000	
3925	0	32824	32927	35996	
3926	0	32752	32881	35994	
3927	0	32764	32825	36018	
3928	0	32676	32796	36038	
3929	0	32796	32772	36013	
3930	0	32768	32788	36024	
3931	0	32780	32828	36034	
3932	0	32752	32669	36016	
3933	0	32840	32754	36004	
3934	0	32824	32769	35992	
3935	0	32797	32772	35980	
3936	0	32852	32805	35993	
3937	0	32828	32752	35982	
3938	0	32752	32809	35976	
3939	0	32804	32838	35967	
3940	0	32813	32897	35975	
3941	0	32813	32908	35996	
3942	0	32801	32974	35998	
3943	0	32768	32916	36005	
3944	0	32736	32952	36012	
3945	0	32848	32932	36012	
3946	0	32764	32762	35982	
3947	0	32704	32785	35992	
3948	0	32764	32850	36001	
3949	0	32782	32748	35982	
3950	0	32724	32708	35989	
3951	0	32756	32796	35996	
3952	0	32768	32787	36012	
3953	0	32808	32843	35988	
3954	0	32812	32750	35980	
3955	0	32740	32785	35956	
3956	0	32796	32765	35968	
3957	0	32844	32800	35948	
3958	0	32828	32775	35976	
3959	0	32762	32846	35996	
3960	0	32828	32876	35988	
3961	0	32806	32897	35988	
3962	0	32801	33020	36000	
3963	0	32788	33020	36016	
3964	0	32768	32913	35996	
3965	0	32828	32890	36016	
3966	0	32816	32799	36028	
3967	0	32712	32852	36027	
3968	0	32776	32885	36032	
3969	0	32704	32800	35997	
3970	0	32749	32775	35981	
3971	0	32776	32692	35993	
3972	0	32714	32650	35980	
3973	0	32798	32746	35996	
3974	0	32812	32804	36020	
3975	0	32817	32736	36013	
3976	0	32780	32740	35981	
3977	0	32852	32725	35993	
3978	0	32756	32780	35996	
3979	0	32800	32924	35980	
3980	0	32788	32886	35985	
3981	0	32876	32948	36008	
3982	0	32806	32912	36028	
3983	0	32826	32924	36039	
3984	0	32768	33000	36029	
3985	0	32852	32941	36015	
3986	0	32732	32838	35996	
3987	0	32702	32837	35992	
3988	0	32756	32898	36008	
3989	0	32756	32808	36024	
3990	0	32750	32708	36004	
3991	0	32784	32692	36021	
3992	0	32768	32756	36009	
3993	0	32748	32748	35979	
3994	0	32816	32702	35973	
3995	0	32842	32774	35950	
3996	0	32826	32879	35964	
3997	0	32808	32783	35953	
3998	0	32804	32816	35962	
3999	0	32844	32892	35988	
4000	0	32704	32789	35980	
4001	0	32780	32945	35996	
4002	0	32796	32884	35988	
4003	0	32760	32998	36020	
4004	0	32825	32966	36024	
4005	0	32768	32944	36036	
4006	0	32738	32798	36012	
4007	0	32712	32865	36020	
4008	0	32764	32892	36009	
4009	0	32812	32789	36020	
4010	0	32756	32730	36016	
4011	0	32764	32709	36008	
4012	0	32794	32793	36005	
4013	0	32832	32767	36013	
4014	0	32888	32830	35996	
4015	0	32794	32705	35993	
4016	0	32774	32724	35976	
4017	0	32740	32740	35972	
4018	0	32796	32800	35988	
4019	0	32816	32774	35988	
4020	0	32792	32844	35992	
4021	0	32837	32892	35997	
4022	0	32808	32966	36004	
4023	0	32840	32932	36038	
4024	0	32780	32892	36036	
4025	0	32756	32948	36031	
4026	0	32764	32920	36028	
4027	0	32800	32852	36024	
4028	0	32758	32824	36009	
4029	0	32728	32860	35978	
4030	0	32756	32854	36000	
4031	0	32789	32732	35988	
4032	0	32740	32676	35978	
4033	0	32804	32736	35983	
4034	0	32884	32844	35974	
4035	0	32812	32737	35989	
4036	0	32832	32697	35992	
4037	0	32836	32740	35976	
4038	0	32824	32816	35974	
4039	0	32836	32809	35989	
4040	0	32760	32838	36013	
4041	0	32817	32895	36014	
4042	0	32820	33001	36018	
4043	0	32808	33010	36018	
4044	0	32892	32904	36024	
4045	0	32737	32992	36012	
4046	0	32774	32859	36006	
4047	0	32764	32874	36009	
4048	0	32832	32798	36017	
4049	0	32720	32703	36017	
4050	0	32704	32788	36013	
4051	0	32776	32740	36014	
4052	0	32837	32671	36006	
4053	0	32764	32748	36017	
4054	0	32800	32720	36016	
4055	0	32832	32801	35996	
4056	0	32805	32798	35990	
4057	0	32804	32775	35990	
4058	0	32752	32800	36000	
4059	0	32740	32832	36000	
4060	0	32888	32905	36000	
4061	0	32765	32854	36012	
4062	0	32800	32932	36016	
4063	0	32801	32948	36010	
4064	0	32800	32940	36020	
4065	0	32765	32880	36029	
4066	0	32793	32911	36040	
4067	0	32776	32876	36029	
4068	0	32712	32832	36025	
4069	0	32752	32817	36017	
4070	0	32736	32808	36012	
4071	0	32832	32816	36012	
4072	0	32790	32676	36000	
4073	0	32820	32721	36004	
4074	0	32772	32714	36000	
4075	0	32800	32740	36003	
4076	0	32764	32840	35990	
4077	0	32828	32806	36004	
4078	0	32832	32777	35996	
4079	0	32836	32902	35957	
4080	0	32778	32902	35964	
4081	0	32780	32945	35996	
4082	0	32829	33072	35973	
4083	0	32768	32934	35980	
4084	0	32792	33072	35992	
4085	0	32776	33017	35993	
4086	0	32732	32905	35994	
4087	0	32740	32824	36006	
4088	0	32712	32768	36032	
4089	0	32724	32840	36020	
4090	0	32756	32705	36024	
4091	0	32764	32717	36015	
4092	0	32806	32685	36021	
4093	0	32816	32797	36024	
4094	0	32796	32775	36016	
4095	0	32840	32791	36016	
4096	0	32832	32700	36010	
4097	0	32888	32817	35994	
4098	0	32782	32853	35964	
4099	0	32808	32792	35976	
4100	0	32774	32806	35977	
4101	0	32752	32852	35968	
4102	0	32830	32980	35989	
4103	0	32784	32960	35985	
4104	0	32720	32905	36004	
4105	0	32740	33009	36009	
4106	0	32836	32884	36012	
4107	0	32788	32840	36008	
4108	0	32708	32812	36008	
4109	0	32796	32788	36008	
4110	0	32780	32772	35968	
4111	0	32736	32812	35975	
4112	0	32805	32820	35956	
4113	0	32766	32777	35958	
4114	0	32806	32692	35960	
4115	0	32780	32757	35974	
4116	0	32760	32817	35965	
4117	0	32820	32790	35956	
4118	0	32844	32764	35964	
4119	0	32865	32761	35976	
4120	0	32808	32824	35986	
4121	0	32816	32925	35988	
4122	0	32801	32919	35996	
4123	0	32813	32980	36024	
4124	0	32792	33014	36036	
4125	0	32769	32917	36024	
4126	0	32744	32820	36028	
4127	0	32772	32789	36052	
4128	0	32782	32806	36036	
4129	0	32808	32820	36032	
4130	0	32740	32734	36024	
4131	0	32752	32734	35992	
4132	0	32821	32775	35992	
4133	0	32728	32743	35984	
4134	0	32784	32774	35974	
4135	0	32804	32776	36000	
4136	0	32780	32792	36005	
4137	0	32832	32828	36004	
4138	0	32812	32770	36004	
4139	0	32784	32836	36005	
4140	0	32752	32960	36000	
4141	0	32817	32956	35993	
4142	0	32812	32951	35994	
4143	0	32792	33006	35997	
4144	0	32840	32988	36004	
4145	0	32756	32991	36018	
4146	0	32780	32884	36030	
4147	0	32736	32782	36012	
4148	0	32736	32844	36008	
4149	0	32684	32792	36041	
4150	0	32745	32764	36040	
4151	0	32812	32692	36028	
4152	0	32741	32709	36033	
4153	0	32832	32756	36017	
4154	0	32744	32756	36010	
4155	0	32796	32714	36006	
4156	0	32777	32728	36016	
4157	0	32796	32825	36018	
4158	0	32824	32873	36007	
4159	0	32828	32828	36018	
4160	0	32780	32844	36005	
4161	0	32780	32900	36009	
4162	0	32784	32966	36036	
4163	0	32800	32996	36012	
4164	0	32776	32912	36010	
4165	0	32768	32937	36024	
4166	0	32772	32895	36036	
4167	0	32720	32956	36028	
4168	0	32738	32904	36046	
4169	0	32760	32776	36044	
4170	0	32756	32731	36044	
4171	0	32757	32775	36021	
4172	0	32776	32787	36014	
4173	0	32816	32805	36028	
4174	0	32812	32768	36020	
4175	0	32760	32733	36018	
4176	0	32840	32806	36012	
4177	0	32828	32768	35988	
4178	0	32816	32780	35988	
4179	0	32792	32769	36000	
4180	0	32804	32832	36008	
4181	0	32748	32961	36012	
4182	0	32816	32940	36008	
4183	0	32848	32934	36004	
4184	0	32808	32935	36034	
4185	0	32764	32956	36028	
4186	0	32768	32944	36016	
4187	0	32804	32809	36024	
4188	0	32708	32896	36016	
4189	0	32736	32773	36020	
4190	0	32764	32752	36028	
4191	0	32788	32790	36017	
4192	0	32712	32724	36016	
4193	0	32736	32746	36011	
4194	0	32800	32781	35997	
4195	0	32796	32868	35992	
4196	0	32777	32733	35976	
4197	0	32801	32750	35956	
4198	0	32848	32814	35956	
4199	0	32784	32868	35964	
4200	0	32820	32886	35988	
4201	0	32836	32940	36004	
4202	0	32781	32898	36009	
4203	0	32816	32916	36000	
4204	0	32752	32916	36008	
4205	0	32808	32964	35988	
4206	0	32792	32853	35984	
4207	0	32712	32830	35996	
4208	0	32724	32790	35980	
4209	0	32780	32754	35990	
4210	0	32756	32698	36005	
4211	0	32780	32768	36006	
4212	0	32820	32737	35996	
4213	0	32784	32836	36000	
4214	0	32836	32692	35997	
4215	0	32812	32703	36001	
4216	0	32844	32810	35976	
4217	0	32800	32848	35972	
4218	0	32840	32820	35988	
4219	0	32812	32797	35980	
4220	0	32780	32864	35978	
4221	0	32824	32898	35964	
4222	0	32832	32936	35980	
4223	0	32832	32888	36004	
4224	0	32788	32910	36004	
4225	0	32800	32948	36025	
4226	0	32788	32916	36021	
4227	0	32782	32856	36052	
4228	0	32728	32804	36054	
4229	0	32712	32884	36052	
4230	0	32812	32813	36056	
4231	0	32764	32708	36044	
4232	0	32756	32720	36044	
4233	0	32728	32750	36032	
4234	0	32809	32769	36025	
4235	0	32849	32708	36022	
4236	0	32832	32742	35988	
4237	0	32818	32788	35984	
4238	0	32794	32836	35986	
4239	0	32813	32860	36006	
4240	0	32772	32956	35988	
4241	0	32812	32924	36006	
4242	0	32752	32964	36016	
4243	0	32764	32965	36037	
4244	0	32788	32961	36052	
4245	0	32780	32924	36044	
4246	0	32768	32889	36046	
4247	0	32732	32797	36040	
4248	0	32788	32908	36044	
4249	0	32756	32828	36028	
4250	0	32780	32694	36004	
4251	0	32716	32759	36012	
4252	0	32762	32736	36001	
4253	0	32788	32736	35982	
4254	0	32802	32773	35994	
4255	0	32796	32762	35986	
4256	0	32768	32704	35966	
4257	0	32856	32751	35961	
4258	0	32828	32784	35968	
4259	0	32812	32852	35957	
4260	0	32796	32852	35966	
4261	0	32797	32938	35988	
4262	0	32840	32945	36000	
4263	0	32828	32929	36016	
4264	0	32726	33020	36040	
4265	0	32802	32945	36054	
4266	0	32828	32853	36057	
4267	0	32776	32890	36032	
4268	0	32824	32772	36020	
4269	0	32800	32693	36008	
4270	0	32780	32656	35997	
4271	0	32724	32780	36012	
4272	0	32824	32798	35984	
4273	0	32816	32859	35980	
4274	0	32784	32756	35986	
4275	0	32836	32732	35972	
4276	0	32773	32746	35990	
4277	0	32770	32836	35992	
4278	0	32809	32812	35989	
4279	0	32788	32782	35984	
4280	0	32828	32808	35981	
4281	0	32828	32964	35976	
4282	0	32776	32964	35980	
4283	0	32828	32900	35990	
4284	0	32816	32924	36000	
4285	0	32768	32906	36015	
4286	0	32774	32902	36012	
4287	0	32744	32964	36016	
4288	0	32746	32961	36036	
4289	0	32816	32770	36033	
4290	0	32840	32701	36036	
4291	0	32792	32712	36020	
4292	0	32737	32637	36009	
4293	0	32884	32721	36008	
4294	0	32788	32772	36013	
4295	0	32778	32752	35981	
4296	0	32788	32780	35968	
4297	0	32721	32758	35967	
4298	0	32861	32775	35964	
4299	0	32808	32903	35975	
4300	0	32768	32914	35978	
4301	0	32796	32924	35992	
4302	0	32840	32868	36001	
4303	0	32736	32948	36021	
4304	0	32775	32974	36044	
4305	0	32792	32993	36041	
4306	0	32736	32826	36024	
4307	0	32736	32873	36024	
4308	0	32744	32822	36032	
4309	0	32750	32841	36026	
4310	0	32773	32815	36009	
4311	0	32716	32767	36000	
4312	0	32812	32692	36009	
4313	0	32757	32663	36005	
4314	0	32821	32688	36000	
4315	0	32824	32709	35975	
4316	0	32812	32768	35996	
4317	0	32801	32762	35965	
4318	0	32791	32793	35988	
4319	0	32756	32768	35993	
4320	0	32768	32924	35972	
4321	0	32813	33040	35992	
4322	0	32793	32980	36020	
4323	0	32836	33012	36032	
4324	0	32829	32916	36024	
4325	0	32792	32854	36022	
4326	0	32772	32869	36008	
4327	0	32796	32817	36004	
4328	0	32742	32752	36000	
4329	0	32772	32744	36010	
4330	0	32712	32824	35986	
4331	0	32757	32724	36014	
4332	0	32760	32672	36007	
4333	0	32789	32756	35993	
4334	0	32748	32772	35973	
4335	0	32816	32701	35972	
4336	0	32788	32743	35952	
4337	0	32772	32780	35975	
4338	0	32818	32750	35969	
4339	0	32726	32804	35980	
4340	0	32840	32800	35992	
4341	0	32848	32925	36005	
4342	0	32840	33021	36024	
4343	0	32808	32997	36032	
4344	0	32820	32936	36040	
4345	0	32752	33041	36055	
4346	0	32756	32912	36025	
4347	0	32728	32825	36026	
4348	0	32726	32829	36020	
4349	0	32752	32821	36016	
4350	0	32721	32752	36004	
4351	0	32764	32704	35990	
4352	0	32784	32749	35988	
4353	0	32816	32774	35988	
4354	0	32764	32737	36001	
4355	0	32820	32824	36008	
4356	0	32732	32793	35977	
4357	0	32844	32733	35978	
4358	0	32828	32788	35976	
4359	0	32814	32792	35975	
4360	0	32784	32864	35965	
4361	0	32848	32925	35996	
4362	0	32805	32916	36005	
4363	0	32780	32977	36016	
4364	0	32796	32936	36021	
4365	0	32708	32956	36032	
4366	0	32750	32896	36025	
4367	0	32824	32878	36000	
4368	0	32742	32942	36008	
4369	0	32736	32774	35978	
4370	0	32748	32813	35969	
4371	0	32812	32714	35999	
4372	0	32780	32788	35977	
4373	0	32808	32723	35967	
4374	0	32748	32769	35948	
4375	0	32804	32708	35956	
4376	0	32822	32772	35957	
4377	0	32836	32737	35940	
4378	0	32765	32820	35968	
4379	0	32740	32812	35983	
4380	0	32764	32965	35981	
4381	0	32832	32868	35984	
4382	0	32788	32869	35996	
4383	0	32844	32997	36012	
4384	0	32822	32909	36020	
4385	0	32780	33010	36031	
4386	0	32772	32940	36032	
4387	0	32780	32908	36040	
4388	0	32752	32821	36028	
4389	0	32706	32708	36020	
4390	0	32789	32698	36016	
4391	0	32788	32729	36024	
4392	0	32792	32783	36044	
4393	0	32821	32768	36045	
4394	0	32778	32784	36052	
4395	0	32780	32671	36020	
4396	0	32824	32790	36004	
4397	0	32756	32768	35993	
4398	0	32848	32748	36007	
4399	0	32756	32772	36024	
4400	0	32804	32854	36012	
4401	0	32856	32937	36000	
4402	0	32792	33033	36020	
4403	0	32852	32940	36024	
4404	0	32744	32934	36079	
4405	0	32792	32996	36088	
4406	0	32736	32898	36072	
4407	0	32696	32841	36066	
4408	0	32728	32866	36049	
4409	0	32796	32824	36020	
4410	0	32772	32780	36012	
4411	0	32800	32797	36034	
4412	0	32768	32734	36012	
4413	0	32737	32679	36007	
4414	0	32868	32684	36006	
4415	0	32808	32729	36009	
4416	0	32788	32886	36020	
4417	0	32756	32768	35996	
4418	0	32796	32804	36000	
4419	0	32804	32808	36012	
4420	0	32856	32844	36017	
4421	0	32842	32945	36013	
4422	0	32812	32886	36024	
4423	0	32808	32964	36008	
4424	0	32742	32917	36009	
4425	0	32820	32859	36020	
4426	0	32764	32884	36009	
4427	0	32828	32796	36024	
4428	0	32736	32852	36017	
4429	0	32730	32812	36005	
4430	0	32720	32794	35996	
4431	0	32756	32773	35985	
4432	0	32752	32774	35994	
4433	0	32758	32727	36000	
4434	0	32784	32737	35980	
4435	0	32812	32686	35982	
4436	0	32802	32738	35977	
4437	0	32832	32802	35960	
4438	0	32772	32762	35972	
4439	0	32774	32820	35996	
4440	0	32797	32838	36002	
4441	0	32814	32873	36009	
4442	0	32740	33008	36038	
4443	0	32820	32954	36026	
4444	0	32780	32998	36046	
4445	0	32781	32999	36044	
4446	0	32800	32912	36036	
4447	0	32788	32847	36009	
4448	0	32798	32836	36015	
4449	0	32770	32864	36014	
4450	0	32761	32764	36000	
4451	0	32772	32708	35994	
4452	0	32793	32708	36007	
4453	0	32785	32759	35992	
4454	0	32816	32804	36000	
4455	0	32796	32792	35994	
4456	0	32832	32772	35992	
4457	0	32788	32752	35998	
4458	0	32832	32728	36001	
4459	0	32824	32807	36020	
4460	0	32836	32869	36025	
4461	0	32788	32872	36020	
4462	0	32765	32888	36005	
4463	0	32798	32984	36025	
4464	0	32788	32929	36043	
4465	0	32796	33046	36032	
4466	0	32797	33010	36065	
4467	0	32764	32868	36048	
4468	0	32736	32796	36048	
4469	0	32801	32728	36036	
4470	0	32800	32733	36009	
4471	0	32729	32788	36008	
4472	0	32708	32734	35988	
4473	0	32812	32652	35983	
4474	0	32840	32724	35969	
4475	0	32841	32733	35960	
4476	0	32837	32829	35949	
4477	0	32860	32774	35956	
4478	0	32788	32821	35952	
4479	0	32754	32799	35956	
4480	0	32813	32856	35972	
4481	0	32808	32966	35993	
4482	0	32794	32912	35988	
4483	0	32848	32890	36006	
4484	0	32720	32900	36004	
4485	0	32840	32956	36014	
4486	0	32784	32978	36039	
4487	0	32712	32936	36020	
4488	0	32737	32820	36004	
4489	0	32752	32752	36020	
4490	0	32752	32820	36012	
4491	0	32757	32773	36024	
4492	0	32730	32750	36012	
4493	0	32828	32789	36005	
4494	0	32816	32808	36004	
4495	0	32817	32762	35982	
4496	0	32812	32797	35992	
4497	0	32808	32751	36028	
4498	0	32824	32854	36009	
4499	0	32848	32773	35989	
4500	0	32890	32852	35975	
4501	0	32832	32965	35999	
4502	0	32820	32965	36016	
4503	0	32756	32944	36012	
4504	0	32743	32917	36017	
4505	0	32788	33028	36020	
4506	0	32812	32960	36020	
4507	0	32680	32911	36008	
4508	0	32780	32845	36010	
4509	0	32672	32788	36008	
4510	0	32805	32832	36008	
4511	0	32728	32775	36005	
4512	0	32772	32669	36000	
4513	0	32817	32712	36017	
4514	0	32784	32703	36013	
4515	0	32818	32673	36029	
4516	0	32856	32656	36016	
4517	0	32785	32778	35994	
4518	0	32801	32804	36000	
4519	0	32812	32752	36000	
4520	0	32737	32791	36007	
4521	0	32804	32962	36016	
4522	0	32792	32861	36008	
4523	0	32780	32943	36008	
4524	0	32785	32948	36028	
4525	0	32784	32896	36039	
4526	0	32860	32873	36016	
4527	0	32752	32836	36018	
4528	0	32694	32828	35999	
4529	0	32752	32848	36002	
4530	0	32768	32856	36002	
4531	0	32768	32768	35978	
4532	0	32760	32744	35985	
4533	0	32756	32824	35975	
4534	0	32852	32754	35972	
4535	0	32836	32746	35988	
4536	0	32774	32700	36000	
4537	0	32813	32800	36005	
4538	0	32812	32756	35986	
4539	0	32848	32802	36006	
4540	0	32828	32903	36012	
4541	0	32804	32944	36016	
4542	0	32800	32908	36026	
4543	0	32820	32992	36018	
4544	0	32800	33024	36036	
4545	0	32808	32911	36040	
4546	0	32800	32932	36036	
4547	0	32684	32889	36020	
4548	0	32701	32775	35997	
4549	0	32774	32844	36004	
4550	0	32752	32695	35992	
4551	0	32804	32752	35982	
4552	0	32776	32765	35990	
4553	0	32765	32696	35991	
4554	0	32836	32704	35982	
4555	0	32864	32749	36008	
4556	0	32832	32808	36006	
4557	0	32776	32788	35996	
4558	0	32752	32754	35972	
4559	0	32840	32837	35992	
4560	0	32744	32897	35989	
4561	0	32812	32925	36012	
4562	0	32744	32908	36026	
4563	0	32804	33004	36024	
4564	0	32812	32964	36028	
4565	0	32776	32989	36026	
4566	0	32764	32898	36022	
4567	0	32720	32820	36029	
4568	0	32725	32881	36045	
4569	0	32708	32800	36025	
4570	0	32736	32750	36040	
4571	0	32740	32740	36020	
4572	0	32820	32784	36012	
4573	0	32800	32762	35992	
4574	0	32794	32768	36004	
4575	0	32880	32740	36001	
4576	0	32828	32680	36000	
4577	0	32804	32789	35984	
4578	0	32813	32748	35964	
4579	0	32804	32789	35964	
4580	0	32732	32884	35960	
4581	0	32868	32900	35984	
4582	0	32797	32868	35992	
4583	0	32816	32956	36016	
4584	0	32816	32874	36036	
4585	0	32756	32933	36042	
4586	0	32774	32816	36041	
4587	0	32744	32829	36032	
4588	0	32680	32887	36008	
4589	0	32800	32848	36005	
4590	0	32792	32746	36000	
4591	0	32741	32775	35996	
4592	0	32786	32802	35998	
4593	0	32752	32708	35996	
4594	0	32828	32798	35996	
4595	0	32870	32775	35986	
4596	0	32780	32732	35972	
4597	0	32780	32750	35968	
4598	0	32740	32832	35961	
4599	0	32780	32807	35975	
4600	0	32812	32856	35996	
4601	0	32797	32941	35988	
4602	0	32796	32885	36001	
4603	0	32836	32908	36007	
4604	0	32772	32954	35989	
4605	0	32840	32984	36020	
4606	0	32820	32863	36028	
4607	0	32796	32824	36032	
4608	0	32716	32849	36040	
4609	0	32754	32834	36017	
4610	0	32692	32766	36008	
4611	0	32752	32814	36028	
4612	0	32792	32762	36049	
4613	0	32752	32689	36008	
4614	0	32808	32792	36002	
4615	0	32800	32768	35978	
4616	0	32809	32748	35984	
4617	0	32793	32732	35988	
4618	0	32824	32837	35976	
4619	0	32761	32888	36005	
4620	0	32780	32847	35992	
4621	0	32881	32908	36008	
4622	0	32789	32920	36000	
4623	0	32716	32972	36004	
4624	0	32730	32980	36000	
4625	0	32712	32932	36020	
4626	0	32812	32893	36023	
4627	0	32824	32880	36006	
4628	0	32808	32774	35995	
4629	0	32708	32712	36004	
4630	0	32773	32775	35998	
4631	0	32804	32792	36000	
4632	0	32784	32736	35994	
