# OpenSignals Text File Format
# {"00:07:80:4D:2E:AD": {"sensor": ["EMG", "EMG", "XYZ"], "device name": "00:07:80:4D:2E:AD", "column": ["nSeq", "DI", "CH1", "CH2", "CH3"], "sync interval": 2, "time": "15:30:28.921", "comments": "paper | ch1_flexor_digitorum_superficialis ch2_aductor_policis ch3_acc_z [trial 1]", "device connection": "BTH00:07:80:4D:2E:AD", "channels": [1, 2, 3], "keywords": "", "mode": 0, "digital IO": [0, 1], "firmware version": 773, "device": "biosignalsplux", "position": 0, "sampling rate": 1000, "label": ["CH1", "CH2", "CH3"], "resolution": [16, 16, 16], "date": "2019-1-23", "special": [{}, {}, {}]}}
# EndOfHeader
0	0	32936	32770	35796	
1	0	32924	32725	35788	
2	0	32932	32868	35808	
3	0	32908	32840	35813	
4	0	32880	32772	35820	
5	0	32756	32804	35828	
6	0	32768	32908	35825	
7	0	32676	32916	35828	
8	0	32645	32878	35812	
9	0	32649	32840	35838	
10	0	32650	32962	35844	
11	0	32654	32812	35840	
12	0	32668	32770	35844	
13	0	32705	32772	35844	
14	0	32708	32744	35840	
15	0	32765	32748	35840	
16	0	32808	32716	35828	
17	0	32932	32646	35812	
18	0	32868	32774	35805	
19	0	32912	32832	35812	
20	0	32968	32761	35796	
21	0	32932	32842	35776	
22	0	32876	32800	35792	
23	0	32868	32808	35804	
24	0	32845	32808	35801	
25	0	32813	32874	35812	
26	0	32800	32934	35832	
27	0	32748	33044	35828	
28	0	32672	33009	35824	
29	0	32660	32987	35822	
30	0	32644	32928	35824	
31	0	32664	32997	35812	
32	0	32682	32973	35812	
33	0	32676	32788	35804	
34	0	32688	32809	35825	
35	0	32802	32769	35840	
36	0	32848	32764	35825	
37	0	32836	32789	35836	
38	0	32860	32704	35823	
39	0	32908	32770	35808	
40	0	32964	32768	35796	
41	0	32920	32669	35792	
42	0	32928	32692	35782	
43	0	32876	32768	35806	
44	0	32854	32832	35812	
45	0	32824	32842	35823	
46	0	32740	32935	35821	
47	0	32740	33016	35821	
48	0	32640	33041	35812	
49	0	32677	33144	35836	
50	0	32621	32982	35840	
51	0	32684	32896	35828	
52	0	32656	32906	35816	
53	0	32736	32925	35814	
54	0	32730	32751	35812	
55	0	32764	32800	35800	
56	0	32888	32805	35800	
57	0	32832	32718	35806	
58	0	32908	32733	35801	
59	0	32917	32768	35812	
60	0	32925	32760	35792	
61	0	32940	32708	35797	
62	0	32844	32716	35792	
63	0	32876	32724	35807	
64	0	32804	32838	35793	
65	0	32792	32756	35794	
66	0	32672	32896	35806	
67	0	32656	32865	35817	
68	0	32660	32834	35796	
69	0	32680	32886	35808	
70	0	32676	32864	35798	
71	0	32669	32877	35808	
72	0	32665	32804	35804	
73	0	32692	32768	35804	
74	0	32708	32832	35799	
75	0	32765	32720	35798	
76	0	32833	32712	35800	
77	0	32892	32846	35775	
78	0	32874	32913	35757	
79	0	32908	32785	35768	
80	0	32896	32728	35789	
81	0	32954	32797	35785	
82	0	32908	32909	35772	
83	0	32886	32896	35793	
84	0	32814	32876	35800	
85	0	32838	32888	35790	
86	0	32733	33019	35796	
87	0	32704	33072	35801	
88	0	32644	33028	35804	
89	0	32634	32901	35812	
90	0	32684	32943	35812	
91	0	32628	32905	35790	
92	0	32608	32864	35784	
93	0	32696	32809	35784	
94	0	32757	32730	35776	
95	0	32789	32756	35757	
96	0	32848	32773	35758	
97	0	32826	32784	35756	
98	0	32880	32768	35773	
99	0	32900	32662	35780	
100	0	33009	32676	35792	
101	0	32957	32650	35770	
102	0	32904	32700	35772	
103	0	32852	32668	35773	
104	0	32836	32820	35793	
105	0	32788	32925	35800	
106	0	32724	32871	35817	
107	0	32752	32968	35829	
108	0	32708	33030	35822	
109	0	32684	33057	35822	
110	0	32668	32932	35804	
111	0	32676	32854	35805	
112	0	32638	32858	35790	
113	0	32664	32821	35797	
114	0	32730	32800	35788	
115	0	32752	32772	35793	
116	0	32820	32804	35782	
117	0	32872	32809	35764	
118	0	32876	32912	35768	
119	0	32964	32812	35740	
120	0	32880	32740	35752	
121	0	32980	32705	35764	
122	0	32932	32769	35760	
123	0	32848	32911	35778	
124	0	32792	32974	35768	
125	0	32832	32943	35800	
126	0	32762	32968	35783	
127	0	32660	32918	35782	
128	0	32652	32876	35818	
129	0	32680	32891	35824	
130	0	32696	33012	35804	
131	0	32648	32815	35784	
132	0	32644	32805	35796	
133	0	32670	32804	35808	
134	0	32662	32813	35812	
135	0	32740	32684	35809	
136	0	32821	32704	35813	
137	0	32888	32824	35796	
138	0	32924	32756	35781	
139	0	32968	32747	35778	
140	0	32936	32647	35775	
141	0	32984	32762	35790	
142	0	32960	32769	35773	
143	0	32896	32728	35797	
144	0	32872	32852	35810	
145	0	32932	33029	35796	
146	0	32808	32966	35802	
147	0	32752	32938	35829	
148	0	32594	32964	35822	
149	0	32613	33012	35808	
150	0	32636	32949	35808	
151	0	32612	32820	35820	
152	0	32692	32809	35807	
153	0	32657	32832	35794	
154	0	32696	32781	35801	
155	0	32736	32746	35801	
156	0	32866	32660	35808	
157	0	32816	32848	35813	
158	0	32917	32844	35808	
159	0	32854	32768	35808	
160	0	32924	32708	35794	
161	0	32984	32780	35804	
162	0	32872	32792	35818	
163	0	32848	32749	35815	
164	0	32849	32775	35836	
165	0	32840	32825	35833	
166	0	32751	32876	35823	
167	0	32780	32884	35817	
168	0	32644	33076	35824	
169	0	32612	32932	35828	
170	0	32710	32964	35829	
171	0	32584	32968	35816	
172	0	32688	32816	35792	
173	0	32660	32847	35814	
174	0	32700	32794	35801	
175	0	32732	32721	35806	
176	0	32836	32785	35796	
177	0	32896	32852	35780	
178	0	32864	32886	35776	
179	0	32932	32836	35772	
180	0	32948	32692	35769	
181	0	32904	32756	35765	
182	0	32872	32726	35736	
183	0	32881	32764	35761	
184	0	32824	32749	35788	
185	0	32828	32876	35792	
186	0	32775	32856	35800	
187	0	32688	32986	35805	
188	0	32696	32972	35816	
189	0	32668	32996	35828	
190	0	32680	32888	35821	
191	0	32604	32760	35832	
192	0	32642	32777	35816	
193	0	32684	32812	35809	
194	0	32740	32701	35808	
195	0	32788	32816	35812	
196	0	32812	32740	35816	
197	0	32885	32858	35791	
198	0	32909	32926	35796	
199	0	32940	32817	35785	
200	0	32892	32760	35800	
201	0	32892	32806	35783	
202	0	32848	32809	35796	
203	0	32912	32841	35796	
204	0	32848	32751	35804	
205	0	32784	32799	35799	
206	0	32756	32940	35796	
207	0	32684	32924	35808	
208	0	32700	32962	35814	
209	0	32648	32868	35828	
210	0	32632	32806	35833	
211	0	32650	32768	35825	
212	0	32756	32737	35830	
213	0	32648	32802	35804	
214	0	32728	32812	35809	
215	0	32700	32832	35804	
216	0	32896	32932	35804	
217	0	32856	32940	35815	
218	0	32864	32822	35815	
219	0	32960	32728	35784	
220	0	32832	32705	35782	
221	0	32864	32772	35781	
222	0	32944	32892	35777	
223	0	32940	32813	35781	
224	0	32840	32834	35804	
225	0	32834	32833	35800	
226	0	32708	32881	35813	
227	0	32736	32908	35809	
228	0	32676	32997	35828	
229	0	32668	33017	35825	
230	0	32728	33010	35820	
231	0	32636	32909	35844	
232	0	32644	32784	35828	
233	0	32703	32732	35828	
234	0	32712	32794	35810	
235	0	32768	32820	35838	
236	0	32858	32712	35837	
237	0	32828	32696	35828	
238	0	32865	32672	35828	
239	0	32902	32682	35820	
240	0	32928	32700	35812	
241	0	32877	32860	35788	
242	0	32912	32872	35781	
243	0	32836	32816	35768	
244	0	32936	32868	35782	
245	0	32800	32903	35812	
246	0	32736	32776	35836	
247	0	32744	32851	35831	
248	0	32728	32954	35847	
249	0	32608	33003	35852	
250	0	32644	32836	35836	
251	0	32632	32796	35830	
252	0	32600	32740	35824	
253	0	32673	32733	35784	
254	0	32736	32752	35813	
255	0	32741	32891	35801	
256	0	32828	32849	35828	
257	0	32904	32825	35804	
258	0	32872	32868	35780	
259	0	32877	32808	35768	
260	0	32964	32848	35769	
261	0	32916	32684	35779	
262	0	32906	32769	35768	
263	0	32912	32857	35796	
264	0	32865	32940	35798	
265	0	32874	32972	35824	
266	0	32728	32868	35822	
267	0	32669	33044	35814	
268	0	32608	33040	35809	
269	0	32632	32929	35804	
270	0	32664	32841	35820	
271	0	32680	32878	35808	
272	0	32692	32808	35780	
273	0	32660	32775	35797	
274	0	32692	32804	35808	
275	0	32752	32698	35813	
276	0	32864	32760	35809	
277	0	32902	32689	35824	
278	0	32896	32743	35828	
279	0	32916	32800	35816	
280	0	32997	32764	35817	
281	0	32908	32670	35824	
282	0	32940	32708	35792	
283	0	32864	32828	35800	
284	0	32864	32889	35805	
285	0	32876	32758	35812	
286	0	32774	32864	35832	
287	0	32678	32996	35850	
288	0	32684	33056	35853	
289	0	32668	33012	35822	
290	0	32644	32932	35818	
291	0	32644	32860	35832	
292	0	32677	32868	35836	
293	0	32736	32705	35840	
294	0	32764	32729	35817	
295	0	32757	32782	35824	
296	0	32768	32638	35816	
297	0	32800	32623	35808	
298	0	32920	32840	35799	
299	0	32937	32728	35798	
300	0	32912	32768	35804	
301	0	32932	32708	35793	
302	0	32880	32749	35805	
303	0	32896	32904	35805	
304	0	32868	32904	35796	
305	0	32872	32933	35812	
306	0	32724	33020	35821	
307	0	32660	32997	35826	
308	0	32700	33000	35820	
309	0	32652	32924	35840	
310	0	32672	32873	35817	
311	0	32656	32840	35836	
312	0	32661	32775	35820	
313	0	32744	32872	35817	
314	0	32676	32830	35825	
315	0	32761	32712	35815	
316	0	32796	32784	35812	
317	0	32902	32765	35792	
318	0	32936	32726	35782	
319	0	32952	32648	35812	
320	0	32964	32823	35820	
321	0	32896	32740	35799	
322	0	32948	32772	35800	
323	0	32872	32849	35823	
324	0	32898	32871	35828	
325	0	32852	33010	35830	
326	0	32684	32974	35846	
327	0	32696	33073	35844	
328	0	32640	32950	35819	
329	0	32685	32916	35847	
330	0	32644	32860	35844	
331	0	32632	32888	35842	
332	0	32655	32754	35836	
333	0	32709	32781	35837	
334	0	32745	32782	35836	
335	0	32768	32870	35832	
336	0	32764	32740	35812	
337	0	32880	32681	35808	
338	0	32892	32709	35796	
339	0	32932	32801	35792	
340	0	32920	32730	35805	
341	0	32952	32775	35800	
342	0	32868	32765	35797	
343	0	32848	32759	35792	
344	0	32848	32853	35804	
345	0	32848	32978	35824	
346	0	32724	32924	35828	
347	0	32730	33069	35812	
348	0	32628	32966	35816	
349	0	32646	32896	35803	
350	0	32664	32852	35812	
351	0	32652	32876	35820	
352	0	32686	32820	35806	
353	0	32728	32850	35790	
354	0	32696	32770	35764	
355	0	32820	32701	35792	
356	0	32748	32712	35792	
357	0	32876	32792	35808	
358	0	32848	32828	35781	
359	0	32936	32736	35784	
360	0	32876	32680	35762	
361	0	32956	32692	35761	
362	0	32916	32745	35776	
363	0	32920	32696	35799	
364	0	32824	32786	35812	
365	0	32840	32881	35807	
366	0	32681	32965	35799	
367	0	32788	32988	35814	
368	0	32636	32916	35817	
369	0	32628	32952	35828	
370	0	32692	32857	35817	
371	0	32652	32920	35834	
372	0	32700	32920	35837	
373	0	32689	32902	35812	
374	0	32720	32932	35825	
375	0	32772	32828	35829	
376	0	32812	32753	35829	
377	0	32816	32756	35820	
378	0	32836	32810	35812	
379	0	32936	32696	35805	
380	0	32892	32708	35797	
381	0	32928	32748	35790	
382	0	32905	32740	35782	
383	0	32860	32846	35790	
384	0	32844	32882	35804	
385	0	32880	32884	35830	
386	0	32688	32896	35821	
387	0	32738	32860	35848	
388	0	32732	33009	35829	
389	0	32600	32928	35840	
390	0	32672	32905	35846	
391	0	32660	32836	35844	
392	0	32616	32829	35833	
393	0	32653	32768	35824	
394	0	32696	32804	35821	
395	0	32740	32836	35810	
396	0	32876	32729	35800	
397	0	32896	32800	35804	
398	0	32904	32862	35791	
399	0	32918	32772	35812	
400	0	32973	32732	35805	
401	0	32912	32722	35796	
402	0	32969	32785	35757	
403	0	32888	32836	35770	
404	0	32880	32860	35772	
405	0	32798	32900	35772	
406	0	32740	32867	35788	
407	0	32712	32972	35789	
408	0	32700	33069	35804	
409	0	32640	33016	35828	
410	0	32664	32968	35837	
411	0	32664	32812	35841	
412	0	32664	32860	35830	
413	0	32689	32797	35840	
414	0	32720	32816	35847	
415	0	32768	32792	35841	
416	0	32816	32772	35812	
417	0	32876	32764	35807	
418	0	32908	32769	35812	
419	0	32936	32708	35816	
420	0	32937	32690	35796	
421	0	32924	32764	35784	
422	0	32896	32632	35784	
423	0	32860	32740	35781	
424	0	32778	32910	35780	
425	0	32864	33004	35802	
426	0	32769	32932	35808	
427	0	32700	32924	35828	
428	0	32736	32984	35845	
429	0	32640	32980	35832	
430	0	32632	33044	35814	
431	0	32660	32921	35812	
432	0	32677	32844	35807	
433	0	32724	32775	35808	
434	0	32781	32708	35801	
435	0	32722	32808	35805	
436	0	32789	32714	35800	
437	0	32818	32676	35793	
438	0	32888	32640	35814	
439	0	32944	32782	35804	
440	0	32926	32756	35815	
441	0	32904	32728	35804	
442	0	32920	32748	35816	
443	0	32893	32790	35816	
444	0	32897	32912	35812	
445	0	32828	32828	35828	
446	0	32773	32996	35829	
447	0	32744	32914	35837	
448	0	32682	32900	35847	
449	0	32620	33027	35876	
450	0	32682	32948	35854	
451	0	32629	32869	35854	
452	0	32604	32780	35856	
453	0	32732	32932	35846	
454	0	32732	32852	35836	
455	0	32760	32776	35805	
456	0	32836	32821	35808	
457	0	32793	32856	35806	
458	0	32900	32785	35804	
459	0	32916	32676	35809	
460	0	32860	32652	35792	
461	0	32860	32624	35785	
462	0	32854	32666	35788	
463	0	32871	32708	35788	
464	0	32840	32829	35812	
465	0	32836	32829	35828	
466	0	32708	32852	35824	
467	0	32772	32932	35828	
468	0	32708	32989	35826	
469	0	32629	32900	35833	
470	0	32605	32862	35828	
471	0	32698	32796	35830	
472	0	32664	32748	35815	
473	0	32752	32829	35808	
474	0	32818	32783	35812	
475	0	32756	32864	35828	
476	0	32813	32764	35800	
477	0	32828	32769	35804	
478	0	32916	32767	35810	
479	0	32836	32844	35821	
480	0	32944	32804	35808	
481	0	32932	32833	35783	
482	0	32928	32742	35800	
483	0	32928	32804	35808	
484	0	32880	32944	35792	
485	0	32820	32916	35797	
486	0	32728	33060	35804	
487	0	32707	33038	35815	
488	0	32664	32996	35801	
489	0	32660	32966	35812	
490	0	32670	32996	35815	
491	0	32676	32900	35844	
492	0	32692	32800	35829	
493	0	32740	32736	35816	
494	0	32732	32876	35821	
495	0	32749	32824	35809	
496	0	32799	32756	35801	
497	0	32834	32844	35808	
498	0	32924	32805	35812	
499	0	32897	32735	35806	
500	0	32918	32720	35804	
501	0	32948	32748	35802	
502	0	32900	32800	35800	
503	0	32876	32792	35806	
504	0	32792	32820	35800	
505	0	32872	32881	35796	
506	0	32704	32967	35828	
507	0	32692	33060	35820	
508	0	32728	33016	35839	
509	0	32604	32869	35852	
510	0	32616	32884	35847	
511	0	32689	32940	35844	
512	0	32632	32840	35821	
513	0	32680	32775	35836	
514	0	32708	32764	35828	
515	0	32781	32726	35804	
516	0	32824	32726	35818	
517	0	32856	32712	35797	
518	0	32909	32785	35824	
519	0	32932	32647	35812	
520	0	32928	32697	35805	
521	0	32968	32694	35814	
522	0	32900	32762	35801	
523	0	32860	32752	35817	
524	0	32885	32804	35812	
525	0	32844	32794	35816	
526	0	32796	32893	35837	
527	0	32752	32892	35853	
528	0	32664	32952	35841	
529	0	32596	32869	35832	
530	0	32654	32936	35839	
531	0	32624	32856	35839	
532	0	32670	32861	35814	
533	0	32740	32797	35805	
534	0	32712	32797	35790	
535	0	32684	32863	35788	
536	0	32834	32769	35800	
537	0	32842	32835	35816	
538	0	32904	32809	35821	
539	0	32912	32856	35817	
540	0	32908	32744	35808	
541	0	33014	32708	35810	
542	0	32917	32825	35818	
543	0	32860	32852	35840	
544	0	32900	32852	35831	
545	0	32900	32927	35824	
546	0	32752	32992	35836	
547	0	32704	32980	35821	
548	0	32676	32965	35824	
549	0	32573	32968	35822	
550	0	32668	32952	35841	
551	0	32697	32908	35857	
552	0	32632	32898	35829	
553	0	32728	32717	35830	
554	0	32754	32798	35821	
555	0	32756	32829	35841	
556	0	32760	32736	35832	
557	0	32852	32792	35812	
558	0	32873	32775	35788	
559	0	32908	32784	35774	
560	0	32890	32660	35776	
561	0	32920	32676	35764	
562	0	32945	32788	35780	
563	0	32864	32820	35796	
564	0	32856	32813	35805	
565	0	32892	32850	35802	
566	0	32816	32898	35814	
567	0	32736	32984	35808	
568	0	32684	33056	35820	
569	0	32613	32945	35836	
570	0	32672	32924	35838	
571	0	32644	32900	35834	
572	0	32636	32933	35828	
573	0	32632	32902	35814	
574	0	32732	32940	35809	
575	0	32812	32832	35836	
576	0	32810	32794	35828	
577	0	32866	32752	35800	
578	0	32874	32736	35788	
579	0	32916	32710	35766	
580	0	32948	32664	35782	
581	0	32957	32820	35785	
582	0	32928	32716	35774	
583	0	32852	32765	35792	
584	0	32900	32775	35780	
585	0	32792	32924	35778	
586	0	32744	32844	35804	
587	0	32748	32925	35807	
588	0	32656	32920	35830	
589	0	32612	32984	35832	
590	0	32612	33005	35826	
591	0	32640	32850	35804	
592	0	32676	32812	35810	
593	0	32712	32903	35797	
594	0	32785	32736	35786	
595	0	32769	32740	35792	
596	0	32768	32785	35802	
597	0	32872	32825	35796	
598	0	32902	32698	35791	
599	0	32868	32694	35804	
600	0	32822	32735	35772	
601	0	32868	32725	35757	
602	0	32954	32696	35762	
603	0	32857	32810	35776	
604	0	32864	32893	35812	
605	0	32892	32918	35816	
606	0	32828	32999	35836	
607	0	32784	33036	35828	
608	0	32692	33015	35822	
609	0	32632	32972	35847	
610	0	32625	33036	35852	
611	0	32644	32970	35844	
612	0	32637	32892	35836	
613	0	32701	32839	35795	
614	0	32701	32800	35773	
615	0	32736	32806	35784	
616	0	32800	32808	35782	
617	0	32852	32758	35768	
618	0	32856	32913	35766	
619	0	32992	32831	35764	
620	0	32868	32716	35777	
621	0	32936	32924	35750	
622	0	32917	32758	35759	
623	0	32893	32697	35756	
624	0	32888	32783	35768	
625	0	32864	32848	35770	
626	0	32718	32873	35789	
627	0	32725	32860	35792	
628	0	32611	33001	35801	
629	0	32644	32948	35811	
630	0	32676	32976	35812	
631	0	32585	32952	35804	
632	0	32644	32844	35815	
633	0	32712	32764	35817	
634	0	32720	32784	35812	
635	0	32732	32799	35819	
636	0	32844	32732	35802	
637	0	32912	32636	35813	
638	0	32936	32786	35814	
639	0	32952	32645	35808	
640	0	32938	32612	35824	
641	0	32878	32748	35815	
642	0	32980	32728	35805	
643	0	32838	32714	35796	
644	0	32896	32760	35796	
645	0	32844	32807	35812	
646	0	32705	32824	35808	
647	0	32641	32968	35802	
648	0	32610	32921	35819	
649	0	32632	32953	35844	
650	0	32644	32852	35836	
651	0	32641	32860	35821	
652	0	32626	32925	35830	
653	0	32636	32832	35828	
654	0	32644	32704	35836	
655	0	32742	32796	35844	
656	0	32824	32648	35852	
657	0	32920	32752	35840	
658	0	33020	32909	35846	
659	0	33116	32913	35840	
660	0	33040	32856	35840	
661	0	32973	32757	35840	
662	0	32964	32824	35840	
663	0	32892	32756	35828	
664	0	32860	32804	35828	
665	0	32812	32861	35836	
666	0	32756	32872	35844	
667	0	32656	32817	35857	
668	0	32584	32924	35884	
669	0	32592	32940	35871	
670	0	32624	32864	35864	
671	0	32680	32730	35856	
672	0	32576	32721	35874	
673	0	32637	32789	35892	
674	0	32630	32865	35872	
675	0	32800	32861	35845	
676	0	32786	32644	35828	
677	0	32833	32818	35814	
678	0	32860	32834	35817	
679	0	33028	32729	35807	
680	0	32952	32852	35782	
681	0	32834	33030	35756	
682	0	32920	32964	35748	
683	0	32880	33004	35752	
684	0	32942	32900	35754	
685	0	32984	32781	35764	
686	0	32916	32816	35735	
687	0	32772	32952	35736	
688	0	32604	33089	35725	
689	0	32537	32700	35728	
690	0	32640	32416	35724	
691	0	32568	32515	35740	
692	0	32596	32445	35721	
693	0	32642	32682	35717	
694	0	32784	32797	35704	
695	0	32752	32820	35713	
696	0	32784	32870	35704	
697	0	32800	32948	35694	
698	0	32880	33029	35656	
699	0	32876	33055	35629	
700	0	32940	32896	35629	
701	0	32864	32775	35648	
702	0	32896	32848	35684	
703	0	32842	32865	35801	
704	0	32865	33013	35820	
705	0	32824	32958	35790	
706	0	32888	32864	35805	
707	0	32896	32754	35816	
708	0	32820	32805	35860	
709	0	32576	32936	35894	
710	0	32620	33028	35845	
711	0	32716	32892	35824	
712	0	32752	32958	35828	
713	0	32768	32877	35838	
714	0	32800	32828	35862	
715	0	32792	32676	35896	
716	0	32756	32669	35924	
717	0	32860	32638	35918	
718	0	32822	32519	35888	
719	0	32868	32544	35844	
720	0	32880	32585	35830	
721	0	32888	32637	35813	
722	0	32844	32633	35776	
723	0	32915	32580	35792	
724	0	32840	32872	35797	
725	0	32764	33056	35788	
726	0	32704	33232	35780	
727	0	32813	33384	35773	
728	0	32783	33524	35790	
729	0	32661	33516	35816	
730	0	32664	33445	35812	
731	0	32630	32956	35816	
732	0	32624	32757	35805	
733	0	32636	32543	35832	
734	0	32708	32488	35832	
735	0	32774	32533	35831	
736	0	32814	32361	35916	
737	0	32900	32252	35968	
738	0	32932	32332	35920	
739	0	32993	32628	35887	
740	0	32901	32786	35834	
741	0	32876	32989	35813	
742	0	32909	33108	35846	
743	0	32892	33168	35900	
744	0	32836	33031	35940	
745	0	32764	32676	35964	
746	0	32666	32504	36005	
747	0	32679	32817	36025	
748	0	32616	32956	36010	
749	0	32592	33060	36028	
750	0	32684	32964	36008	
751	0	32544	32628	35956	
752	0	32630	32636	35940	
753	0	32668	32754	35975	
754	0	32630	32748	36048	
755	0	32900	32538	36025	
756	0	32848	32577	35948	
757	0	32864	32937	35884	
758	0	32944	33055	35781	
759	0	33006	32870	35696	
760	0	33032	32753	35688	
761	0	33025	32904	35721	
762	0	32932	33024	35811	
763	0	32920	32968	35928	
764	0	32813	33092	36008	
765	0	32856	33152	36144	
766	0	32750	33230	36266	
767	0	32720	33152	36376	
768	0	32624	33006	36493	
769	0	32692	33092	36638	
770	0	32620	33300	36788	
771	0	32624	33317	36871	
772	0	32606	32885	36933	
773	0	32669	32548	37001	
774	0	32552	32569	37088	
775	0	32660	32894	37223	
776	0	32808	32956	37248	
777	0	32808	33113	37204	
778	0	32824	32935	37125	
779	0	32904	32768	37102	
780	0	32980	32485	37062	
781	0	33072	32297	37074	
782	0	32932	32052	37170	
783	0	32804	31789	37232	
784	0	32732	31840	37252	
785	0	32864	32242	37280	
786	0	32860	32725	37280	
787	0	32808	32958	37301	
788	0	32652	33663	37316	
789	0	32620	34261	37313	
790	0	32589	33808	37300	
791	0	32621	33328	37284	
792	0	32609	33052	37301	
793	0	32776	32604	37347	
794	0	32848	32367	37420	
795	0	32849	31989	37461	
796	0	32846	31480	37501	
797	0	32808	31221	37532	
798	0	32884	31448	37602	
799	0	32944	32140	37684	
800	0	33136	32630	37796	
801	0	33028	33124	37879	
802	0	32940	33394	37940	
803	0	32720	33445	38033	
804	0	32708	33270	38170	
805	0	32804	33292	38202	
806	0	32752	33206	38174	
807	0	32592	33143	38129	
808	0	32472	33257	38066	
809	0	32500	32648	37985	
810	0	32792	33048	37880	
811	0	32580	33324	37774	
812	0	32412	33084	37668	
813	0	32908	32985	37532	
814	0	33164	32909	37428	
815	0	32962	32722	37329	
816	0	33024	31920	37282	
817	0	33116	31936	37256	
818	0	33320	32222	37324	
819	0	33444	32356	37393	
820	0	33369	32844	37463	
821	0	32372	33024	37536	
822	0	32312	33220	37617	
823	0	32504	33086	37741	
824	0	32500	32720	37820	
825	0	32968	32724	37920	
826	0	32960	33088	37980	
827	0	33236	33020	38000	
828	0	33004	32625	38060	
829	0	32593	32922	38093	
830	0	32048	33040	38084	
831	0	31728	32458	38069	
832	0	31584	32300	38073	
833	0	32452	32664	38057	
834	0	32844	32570	38038	
835	0	32750	32407	38020	
836	0	32816	32372	38008	
837	0	33118	32454	37982	
838	0	33444	32685	37924	
839	0	33624	32549	37852	
840	0	33352	32619	37790	
841	0	33332	32528	37716	
842	0	33400	32100	37628	
843	0	33288	32308	37538	
844	0	33628	32631	37399	
845	0	33092	33040	37252	
846	0	33052	33678	37140	
847	0	32356	34132	36996	
848	0	32388	34222	36820	
849	0	32217	34201	36652	
850	0	32444	33956	36469	
851	0	32705	33448	36294	
852	0	32988	33232	36112	
853	0	32784	32903	35944	
854	0	32340	32664	35796	
855	0	31732	32248	35670	
856	0	32412	32002	35530	
857	0	33037	32050	35424	
858	0	33136	32304	35321	
859	0	33096	32488	35236	
860	0	33200	33269	35175	
861	0	32996	33980	35152	
862	0	32628	34079	35156	
863	0	32542	33880	35191	
864	0	32932	33593	35256	
865	0	33258	32688	35369	
866	0	33980	31980	35512	
867	0	34472	31365	35680	
868	0	33585	31216	35901	
869	0	32608	31148	36140	
870	0	32396	31642	36391	
871	0	32716	32528	36664	
872	0	32936	32818	36942	
873	0	31449	32865	37192	
874	0	31296	33077	37436	
875	0	32056	32880	37649	
876	0	32868	33084	37854	
877	0	33406	33584	38068	
878	0	33668	33642	38276	
879	0	33456	33688	38464	
880	0	33024	33712	38654	
881	0	33148	33268	38848	
882	0	33412	33080	39012	
883	0	33517	34145	39166	
884	0	33640	34164	39417	
885	0	32892	33380	39701	
886	0	31748	32452	39744	
887	0	31742	31513	39847	
888	0	32356	31876	40013	
889	0	31912	31988	40176	
890	0	31688	32088	40321	
891	0	31006	32580	40388	
892	0	32252	33001	40428	
893	0	34102	33892	40455	
894	0	34000	34046	40502	
895	0	33296	33948	40588	
896	0	33544	33633	40516	
897	0	32968	32605	40488	
898	0	32686	32106	40464	
899	0	32924	31824	40468	
900	0	32241	31689	40469	
901	0	31828	31840	40516	
902	0	31529	32266	40516	
903	0	32748	32630	40484	
904	0	33568	32918	40474	
905	0	33482	33412	40476	
906	0	33496	33765	40516	
907	0	32676	33537	40586	
908	0	32496	33060	40652	
909	0	32684	32882	40736	
910	0	31928	32772	40772	
911	0	32272	32597	40853	
912	0	33280	32685	40912	
913	0	32976	32588	40960	
914	0	31524	32263	40976	
915	0	31380	32188	40958	
916	0	31704	32290	40877	
917	0	32748	32869	40756	
918	0	32774	33103	40549	
919	0	32133	32784	40296	
920	0	32820	32840	40004	
921	0	33618	32642	39642	
922	0	33848	32677	39240	
923	0	33672	32800	38760	
924	0	33512	32710	38238	
925	0	33308	32705	37697	
926	0	33124	32604	37164	
927	0	32632	32533	36624	
928	0	31730	32808	36080	
929	0	31328	32345	35550	
930	0	31324	32302	35060	
931	0	31580	32804	34645	
932	0	32202	32688	34273	
933	0	32568	32216	33949	
934	0	32965	32596	33684	
935	0	33332	32957	33510	
936	0	33284	33164	33428	
937	0	33553	32896	33220	
938	0	33628	32796	33148	
939	0	34116	32942	33097	
940	0	34384	33240	33122	
941	0	34220	32912	33158	
942	0	33940	32648	33232	
943	0	33308	32534	33326	
944	0	32420	33217	33421	
945	0	31632	33470	33580	
946	0	31808	32812	33620	
947	0	31824	32432	33728	
948	0	32400	32791	33918	
949	0	31272	32888	34158	
950	0	30692	32421	34431	
951	0	30932	32459	34705	
952	0	31268	32889	35002	
953	0	31592	32648	35268	
954	0	32232	32798	35480	
955	0	32647	32878	35719	
956	0	33508	32758	36008	
957	0	35680	32640	35960	
958	0	34790	32892	35937	
959	0	34454	33172	35950	
960	0	33932	33436	35952	
961	0	32872	33608	35908	
962	0	33316	33753	35760	
963	0	33392	33676	35632	
964	0	32504	33312	35465	
965	0	31664	32960	35324	
966	0	31077	32876	35160	
967	0	31556	32852	34984	
968	0	32388	33145	34808	
969	0	32072	32861	34592	
970	0	32144	32984	34374	
971	0	32168	32892	34134	
972	0	33188	32706	33904	
973	0	33668	32700	33660	
974	0	34172	32961	33416	
975	0	33336	33308	33186	
976	0	33128	33473	33066	
977	0	32776	33026	32774	
978	0	32389	33108	32452	
979	0	32700	33445	32268	
980	0	32920	33188	32108	
981	0	33456	32986	32007	
982	0	35176	32796	31897	
983	0	35384	32500	31821	
984	0	33769	32574	31756	
985	0	32084	32393	31764	
986	0	31860	32809	31758	
987	0	31920	32884	31706	
988	0	32312	32892	31613	
989	0	31369	32913	31492	
990	0	31604	32772	31382	
991	0	33196	33264	31300	
992	0	33260	33378	31239	
993	0	32676	33025	31188	
994	0	34012	32830	31102	
995	0	32468	32256	31024	
996	0	31784	32047	30946	
997	0	31272	32484	30844	
998	0	31689	32634	30752	
999	0	32400	32740	30652	
1000	0	33812	32812	30549	
1001	0	34524	33048	30469	
1002	0	33712	32976	30391	
1003	0	32672	32868	30376	
1004	0	33320	32897	30354	
1005	0	32742	33144	30380	
1006	0	32198	33044	30439	
1007	0	31884	33052	30537	
1008	0	31488	32988	30676	
1009	0	32008	32775	30884	
1010	0	32792	32788	31332	
1011	0	32704	32967	31306	
1012	0	32864	33069	31528	
1013	0	33232	32912	31849	
1014	0	33432	32808	32233	
1015	0	33189	32972	32620	
1016	0	32844	33061	33044	
1017	0	33216	32716	33456	
1018	0	33144	32782	33892	
1019	0	33084	33000	34338	
1020	0	33120	32463	34756	
1021	0	33756	32540	35148	
1022	0	33200	32524	35616	
1023	0	32761	32720	35929	
1024	0	32450	32914	36056	
1025	0	32608	33048	36244	
1026	0	32288	32844	36484	
1027	0	32196	32837	36679	
1028	0	32616	32663	36860	
1029	0	32604	32449	36957	
1030	0	32410	32364	37041	
1031	0	32400	32749	37108	
1032	0	32536	32828	37124	
1033	0	32393	32860	37105	
1034	0	32524	33172	37082	
1035	0	32696	33268	37039	
1036	0	32896	33065	36996	
1037	0	32972	32856	36950	
1038	0	32848	32764	36917	
1039	0	33029	32320	36860	
1040	0	33880	32336	36812	
1041	0	34426	32420	36783	
1042	0	34264	32894	36742	
1043	0	34536	33064	36743	
1044	0	33792	33300	36809	
1045	0	32646	33710	36684	
1046	0	29824	33486	36668	
1047	0	29748	33550	36622	
1048	0	31332	32993	36628	
1049	0	31884	32686	36592	
1050	0	32116	31562	36552	
1051	0	32329	30944	36492	
1052	0	32756	31981	36400	
1053	0	32932	32415	36308	
1054	0	32769	32508	36208	
1055	0	32908	32657	36104	
1056	0	33580	32988	35988	
1057	0	33695	33047	35876	
1058	0	33532	32909	35777	
1059	0	33508	32904	35694	
1060	0	33557	33287	35620	
1061	0	33444	33342	35552	
1062	0	33010	33504	35516	
1063	0	32990	33248	35492	
1064	0	32888	33114	35504	
1065	0	32648	32885	35492	
1066	0	32424	32747	35476	
1067	0	32549	32620	35484	
1068	0	32264	32552	35508	
1069	0	32100	32736	35528	
1070	0	32160	32796	35556	
1071	0	32396	33050	35560	
1072	0	32612	33111	35596	
1073	0	32602	33005	35598	
1074	0	32356	33020	35644	
1075	0	32789	33096	35684	
1076	0	33040	32964	35712	
1077	0	33112	32766	35756	
1078	0	33412	32616	35800	
1079	0	33485	32580	35840	
1080	0	33248	32672	35904	
1081	0	33236	32708	35952	
1082	0	33010	32849	36012	
1083	0	32954	32908	36096	
1084	0	32608	32860	36230	
1085	0	32676	32820	36332	
1086	0	33109	32837	36480	
1087	0	32680	32884	36630	
1088	0	32580	33120	36796	
1089	0	32596	33004	36936	
1090	0	32344	33049	37069	
1091	0	32104	32716	37176	
1092	0	32297	32696	37276	
1093	0	33031	32805	37340	
1094	0	32918	32644	37402	
1095	0	32868	32881	37434	
1096	0	33076	33188	37444	
1097	0	33265	33384	37434	
1098	0	32957	32956	37437	
1099	0	32660	32902	37417	
1100	0	32702	32840	37409	
1101	0	33288	32552	37404	
1102	0	33325	32177	37393	
1103	0	33732	32340	37392	
1104	0	33828	32202	37413	
1105	0	33116	32337	37460	
1106	0	32804	32492	37529	
1107	0	32381	33100	37588	
1108	0	31756	33473	37677	
1109	0	30802	33392	37792	
1110	0	32393	33084	37908	
1111	0	33360	32658	38013	
1112	0	32676	32084	38140	
1113	0	31024	31760	38228	
1114	0	31266	31796	38340	
1115	0	32498	32690	38424	
1116	0	33482	32988	38512	
1117	0	33028	33049	38600	
1118	0	33596	32846	38692	
1119	0	33492	33064	38746	
1120	0	33357	33052	38824	
1121	0	33362	32904	38874	
1122	0	32640	33041	38936	
1123	0	32332	33207	38974	
1124	0	32940	33154	39016	
1125	0	33308	33209	39024	
1126	0	33176	33110	39060	
1127	0	33076	32890	39092	
1128	0	32928	32484	39076	
1129	0	32386	32456	39056	
1130	0	31820	32668	39044	
1131	0	32534	32600	39002	
1132	0	32399	32728	38948	
1133	0	32100	32860	38903	
1134	0	32644	32952	38860	
1135	0	33137	32813	38804	
1136	0	33589	32796	38724	
1137	0	33129	32993	38656	
1138	0	32948	32960	38592	
1139	0	33576	33053	38504	
1140	0	33320	32912	38430	
1141	0	32960	32764	38341	
1142	0	33108	32784	38260	
1143	0	32872	32900	38160	
1144	0	32980	32772	38073	
1145	0	32560	32812	37988	
1146	0	31944	32948	37908	
1147	0	32436	33121	37844	
1148	0	32636	33044	37760	
1149	0	32844	32879	37692	
1150	0	32597	32933	37616	
1151	0	31752	33060	37540	
1152	0	31810	32788	37476	
1153	0	32108	32677	37432	
1154	0	33588	32716	37382	
1155	0	33460	32917	37300	
1156	0	33356	32950	37248	
1157	0	33194	32789	37188	
1158	0	32944	32598	37100	
1159	0	32676	33004	37006	
1160	0	31924	33006	36925	
1161	0	31913	32830	36815	
1162	0	32445	32856	36701	
1163	0	33280	32981	36612	
1164	0	34278	32884	36518	
1165	0	34029	32945	36420	
1166	0	33352	32864	36309	
1167	0	32973	32896	36200	
1168	0	32704	32836	36116	
1169	0	32216	32916	36034	
1170	0	32080	32976	35953	
1171	0	32081	32700	35898	
1172	0	32388	32505	35840	
1173	0	32776	32445	35768	
1174	0	32908	32484	35704	
1175	0	32936	32716	35650	
1176	0	33056	32768	35585	
1177	0	33056	33012	35567	
1178	0	32372	33164	35534	
1179	0	32376	33269	35530	
1180	0	32556	33216	35535	
1181	0	32999	32860	35558	
1182	0	32969	32768	35604	
1183	0	33788	32800	35643	
1184	0	34332	32581	35688	
1185	0	33896	32324	35712	
1186	0	32616	32504	35719	
1187	0	31680	32958	35734	
1188	0	31920	33237	35737	
1189	0	32256	32748	35738	
1190	0	32464	32684	35714	
1191	0	32312	32620	35693	
1192	0	31956	32430	35672	
1193	0	32608	32720	35664	
1194	0	33562	32860	35624	
1195	0	33656	32776	35644	
1196	0	33400	32864	35665	
1197	0	32852	33130	35692	
1198	0	32424	33260	35708	
1199	0	32244	33246	35776	
1200	0	32652	33096	35840	
1201	0	32740	32982	35924	
1202	0	32448	32760	36000	
1203	0	32968	32816	36136	
1204	0	32910	32788	36245	
1205	0	33133	32704	36328	
1206	0	33400	32908	36444	
1207	0	33328	32950	36532	
1208	0	32956	32848	36664	
1209	0	32042	32822	36756	
1210	0	31884	32592	36829	
1211	0	32652	32308	36906	
1212	0	33264	32361	36968	
1213	0	32537	32618	37026	
1214	0	31636	32854	37113	
1215	0	31796	33048	37183	
1216	0	33112	33260	37232	
1217	0	33407	33166	37276	
1218	0	32808	33002	37320	
1219	0	33085	32953	37370	
1220	0	32270	32832	37401	
1221	0	32933	32886	37460	
1222	0	33476	32773	37489	
1223	0	33268	32608	37517	
1224	0	33060	32653	37540	
1225	0	32816	32693	37566	
1226	0	32444	32392	37592	
1227	0	32368	32484	37614	
1228	0	33000	32782	37617	
1229	0	32720	32788	37600	
1230	0	32596	32846	37583	
1231	0	32608	32838	37566	
1232	0	32976	32840	37548	
1233	0	33140	32844	37516	
1234	0	32680	32768	37498	
1235	0	32664	32864	37461	
1236	0	32796	32952	37424	
1237	0	32886	32822	37383	
1238	0	33084	33094	37328	
1239	0	32737	33160	37312	
1240	0	32720	33044	37292	
1241	0	32909	32793	37260	
1242	0	33065	32791	37220	
1243	0	33164	32866	37200	
1244	0	33438	32864	37229	
1245	0	33408	32976	37210	
1246	0	32968	33094	37204	
1247	0	32406	32892	37221	
1248	0	31980	32616	37188	
1249	0	31372	32581	37160	
1250	0	31561	32796	37141	
1251	0	32428	32768	37032	
1252	0	33004	32686	36964	
1253	0	33360	32640	36865	
1254	0	33660	32526	36766	
1255	0	33444	32798	36660	
1256	0	32901	33144	36532	
1257	0	32836	32724	36416	
1258	0	32838	32998	36261	
1259	0	32792	32940	36130	
1260	0	32792	32964	36007	
1261	0	33168	32868	35866	
1262	0	32944	32932	35728	
1263	0	32780	33036	35613	
1264	0	32701	33075	35512	
1265	0	32636	32976	35404	
1266	0	32662	33020	35288	
1267	0	33092	32832	35204	
1268	0	33540	32852	35132	
1269	0	32360	32961	35060	
1270	0	31652	32730	35000	
1271	0	31618	32594	34944	
1272	0	32324	32534	34905	
1273	0	32940	32580	34896	
1274	0	33372	32556	34888	
1275	0	33124	32633	34861	
1276	0	32932	33008	34868	
1277	0	32848	33072	34823	
1278	0	33025	33292	34855	
1279	0	33052	33241	34848	
1280	0	33296	33324	34847	
1281	0	33746	32812	34856	
1282	0	33616	32464	34875	
1283	0	33176	32496	34903	
1284	0	32472	32648	34958	
1285	0	32228	32609	34990	
1286	0	31724	32700	35058	
1287	0	31952	32925	35144	
1288	0	32236	32788	35228	
1289	0	31800	32996	35316	
1290	0	32296	33063	35415	
1291	0	32628	33124	35536	
1292	0	32184	33112	35642	
1293	0	32572	32792	35757	
1294	0	33184	32493	35853	
1295	0	34176	32220	35960	
1296	0	34284	32364	36080	
1297	0	33812	32556	36177	
1298	0	33364	32820	36292	
1299	0	31172	32848	36416	
1300	0	31924	32848	36517	
1301	0	32692	32901	36609	
1302	0	32481	32956	36672	
1303	0	33036	32756	36792	
1304	0	33032	32836	36885	
1305	0	33060	33048	36973	
1306	0	32816	32920	37101	
1307	0	33508	32772	37191	
1308	0	33376	32884	37304	
1309	0	32876	32972	37412	
1310	0	32668	32879	37511	
1311	0	32376	32572	37596	
1312	0	31800	32557	37728	
1313	0	31528	32785	37828	
1314	0	31912	32609	37932	
1315	0	32812	32741	38008	
1316	0	33564	32964	38118	
1317	0	33768	33031	38170	
1318	0	33552	33050	38240	
1319	0	33100	32761	38300	
1320	0	32884	32515	38342	
1321	0	32432	32572	38329	
1322	0	32596	32730	38381	
1323	0	32904	32781	38368	
1324	0	32872	32744	38357	
1325	0	32808	32872	38308	
1326	0	32662	33124	38264	
1327	0	32640	33050	38223	
1328	0	32561	32880	38188	
1329	0	32604	32767	38136	
1330	0	32548	32790	38076	
1331	0	32645	32720	38004	
1332	0	32792	32895	37924	
1333	0	33096	33060	37848	
1334	0	33116	33024	37780	
1335	0	33060	32856	37701	
1336	0	32920	32948	37614	
1337	0	32992	33009	37540	
1338	0	32144	32932	37473	
1339	0	31712	32704	37392	
1340	0	32628	32601	37344	
1341	0	33285	32712	37253	
1342	0	33224	32826	37176	
1343	0	33176	32788	37127	
1344	0	33484	32833	37056	
1345	0	33396	32956	36999	
1346	0	32876	32880	36958	
1347	0	32400	32945	36904	
1348	0	32340	32866	36855	
1349	0	32304	32936	36812	
1350	0	32404	33109	36764	
1351	0	32480	32816	36708	
1352	0	32544	32724	36664	
1353	0	32848	32852	36640	
1354	0	32880	32864	36572	
1355	0	32976	32612	36476	
1356	0	32856	32684	36420	
1357	0	32940	32680	36352	
1358	0	32964	32584	36292	
1359	0	32924	32668	36241	
1360	0	32485	32903	36164	
1361	0	32470	32904	36102	
1362	0	32860	33024	36032	
1363	0	33081	33084	35952	
1364	0	33468	33040	35900	
1365	0	33984	32844	35825	
1366	0	33484	32785	35748	
1367	0	32236	32932	35677	
1368	0	31716	32894	35600	
1369	0	32156	32928	35532	
1370	0	32504	33076	35496	
1371	0	32640	33024	35452	
1372	0	33024	32956	35394	
1373	0	33292	32766	35347	
1374	0	32912	32772	35312	
1375	0	32704	32800	35314	
1376	0	32604	32744	35306	
1377	0	32996	32705	35316	
1378	0	33436	32881	35335	
1379	0	32952	33088	35364	
1380	0	32336	32959	35420	
1381	0	32568	33133	35464	
1382	0	33120	32850	35496	
1383	0	33092	32804	35561	
1384	0	33036	33000	35641	
1385	0	32484	32976	35742	
1386	0	32621	32688	35837	
1387	0	32292	32544	35920	
1388	0	32392	32392	36023	
1389	0	32494	32592	36133	
1390	0	32248	32720	36208	
1391	0	31984	32693	36308	
1392	0	32512	32606	36438	
1393	0	32960	32629	36554	
1394	0	32812	32656	36672	
1395	0	32893	32892	36757	
1396	0	33100	32821	36876	
1397	0	33172	32889	36972	
1398	0	32942	33253	37034	
1399	0	33052	33159	37124	
1400	0	32996	33222	37208	
1401	0	32712	32972	37284	
1402	0	33110	32681	37313	
1403	0	33226	32631	37360	
1404	0	33203	32606	37408	
1405	0	33560	32714	37440	
1406	0	33304	32628	37458	
1407	0	32476	32680	37477	
1408	0	31794	32708	37488	
1409	0	31485	32870	37476	
1410	0	32400	32868	37476	
1411	0	32512	32976	37460	
1412	0	32340	32775	37429	
1413	0	32652	32940	37396	
1414	0	32808	32952	37388	
1415	0	32900	32753	37388	
1416	0	33156	32752	37396	
1417	0	33158	32808	37377	
1418	0	33064	32814	37417	
1419	0	33180	32584	37461	
1420	0	33052	32461	37474	
1421	0	33208	32712	37489	
1422	0	33252	32938	37537	
1423	0	33164	32925	37560	
1424	0	33008	32812	37620	
1425	0	32836	32892	37680	
1426	0	32577	32900	37748	
1427	0	32272	33026	37784	
1428	0	32160	33012	37804	
1429	0	32170	33264	37796	
1430	0	32136	32836	37780	
1431	0	32512	32848	37745	
1432	0	32874	32821	37702	
1433	0	33165	32816	37661	
1434	0	32864	32624	37596	
1435	0	32964	32712	37508	
1436	0	33056	32717	37433	
1437	0	32986	32780	37348	
1438	0	32988	33106	37228	
1439	0	33116	32872	37144	
1440	0	33192	32722	37032	
1441	0	32980	32734	36918	
1442	0	32942	32889	36796	
1443	0	32684	32965	36670	
1444	0	32192	33156	36568	
1445	0	32248	32604	36476	
1446	0	32428	32604	36396	
1447	0	32508	32805	36288	
1448	0	33040	32961	36231	
1449	0	33172	32874	36157	
1450	0	33170	32682	36090	
1451	0	32405	32856	36037	
1452	0	32056	32996	35978	
1453	0	32356	32903	35948	
1454	0	32968	32980	35921	
1455	0	33224	32993	35906	
1456	0	33444	32908	35852	
1457	0	33232	32662	35821	
1458	0	32948	32672	35816	
1459	0	33112	32705	35800	
1460	0	32974	32816	35788	
1461	0	32929	32844	35756	
1462	0	32976	32740	35774	
1463	0	33140	32876	35761	
1464	0	33476	33100	35776	
1465	0	33173	33045	35814	
1466	0	32836	32904	35822	
1467	0	32580	32821	35864	
1468	0	32429	32847	35872	
1469	0	31012	32829	35884	
1470	0	29408	32896	35869	
1471	0	32172	32572	35864	
1472	0	34430	32465	35886	
1473	0	33064	32704	35896	
1474	0	32701	32753	35880	
1475	0	32665	32932	35886	
1476	0	32536	33110	35894	
1477	0	32774	32864	35892	
1478	0	33070	32832	35916	
1479	0	33184	32734	35924	
1480	0	33060	32560	35932	
1481	0	33292	32773	35967	
1482	0	33258	32805	36008	
1483	0	33080	32800	36044	
1484	0	33140	32933	36064	
1485	0	33112	32836	36132	
1486	0	32876	32774	36205	
1487	0	32652	32820	36276	
1488	0	32561	32860	36348	
1489	0	32536	32838	36424	
1490	0	32260	32825	36508	
1491	0	32373	32878	36575	
1492	0	32324	32920	36645	
1493	0	32416	32864	36725	
1494	0	32808	32936	36804	
1495	0	32528	33017	36852	
1496	0	32605	32708	36912	
1497	0	33061	32760	36936	
1498	0	33004	32736	36944	
1499	0	32702	32764	36980	
1500	0	33053	32849	36964	
1501	0	33284	32858	36964	
1502	0	33616	32758	36941	
1503	0	33269	32687	36936	
1504	0	33624	32823	36944	
1505	0	33602	32968	36910	
1506	0	32804	32790	36886	
1507	0	31952	32776	36852	
1508	0	31192	32956	36860	
1509	0	32640	32976	36836	
1510	0	32896	32852	36816	
1511	0	32624	32700	36820	
1512	0	32476	32816	36792	
1513	0	32549	32748	36769	
1514	0	32776	32934	36731	
1515	0	32872	32870	36711	
1516	0	32790	32724	36680	
1517	0	32924	32745	36660	
1518	0	32840	32879	36632	
1519	0	32928	32632	36568	
1520	0	32848	32732	36508	
1521	0	33021	32694	36457	
1522	0	32952	32744	36426	
1523	0	33180	32728	36389	
1524	0	32708	32832	36367	
1525	0	32871	32844	36359	
1526	0	32938	32970	36360	
1527	0	32812	32996	36377	
1528	0	32725	32900	36340	
1529	0	32396	33072	36348	
1530	0	32516	33028	36342	
1531	0	32744	32892	36340	
1532	0	32424	32984	36306	
1533	0	32204	32980	36284	
1534	0	32436	32729	36248	
1535	0	32304	32668	36240	
1536	0	32672	32865	36210	
1537	0	33185	32673	36173	
1538	0	33924	32772	36142	
1539	0	33532	32852	36120	
1540	0	33276	32965	36072	
1541	0	33000	33156	36028	
1542	0	32980	32868	35988	
1543	0	33124	32748	35965	
1544	0	32972	33031	35976	
1545	0	32844	32824	35966	
1546	0	32912	32796	35960	
1547	0	32264	32668	35980	
1548	0	32184	32770	36004	
1549	0	32130	32925	36031	
1550	0	32364	32949	36038	
1551	0	32168	32574	36048	
1552	0	32101	32377	36060	
1553	0	32448	32644	36092	
1554	0	32868	32760	36120	
1555	0	33172	32900	36148	
1556	0	32965	32800	36170	
1557	0	33020	32826	36229	
1558	0	33025	32902	36272	
1559	0	32992	32737	36304	
1560	0	33165	32876	36340	
1561	0	33280	32949	36362	
1562	0	33156	32796	36412	
1563	0	33344	32766	36432	
1564	0	33173	32800	36496	
1565	0	32384	32892	36516	
1566	0	31270	32935	36527	
1567	0	32072	33055	36557	
1568	0	32340	33156	36581	
1569	0	32600	32876	36576	
1570	0	32876	32644	36608	
1571	0	33204	32722	36620	
1572	0	33076	32972	36637	
1573	0	33133	32788	36641	
1574	0	32936	32728	36625	
1575	0	33168	32721	36615	
1576	0	33108	32658	36632	
1577	0	32647	32820	36636	
1578	0	32804	32864	36615	
1579	0	33036	33010	36614	
1580	0	32989	32870	36615	
1581	0	32880	32956	36624	
1582	0	32916	32952	36621	
1583	0	32772	33044	36622	
1584	0	32597	32945	36636	
1585	0	32708	32760	36652	
1586	0	32488	32660	36646	
1587	0	32969	32724	36646	
1588	0	32748	32784	36665	
1589	0	32693	32816	36672	
1590	0	32934	32649	36645	
1591	0	33072	32639	36628	
1592	0	32188	32671	36620	
1593	0	32112	32636	36604	
1594	0	32468	32658	36582	
1595	0	32260	32754	36568	
1596	0	32476	32768	36552	
1597	0	33398	32855	36520	
1598	0	32908	32932	36486	
1599	0	32693	33037	36476	
1600	0	32948	32854	36460	
1601	0	33420	32844	36468	
1602	0	33124	32858	36479	
1603	0	33116	32824	36468	
1604	0	33144	32829	36461	
1605	0	33134	32564	36454	
1606	0	33228	32546	36484	
1607	0	32652	32822	36480	
1608	0	31943	32998	36487	
1609	0	31650	32966	36516	
1610	0	32084	32950	36496	
1611	0	32576	32849	36484	
1612	0	32408	32944	36500	
1613	0	32661	32808	36521	
1614	0	32808	32889	36541	
1615	0	33020	33092	36561	
1616	0	33668	33013	36584	
1617	0	33560	33004	36590	
1618	0	33117	33124	36594	
1619	0	33092	32864	36628	
1620	0	32900	32630	36640	
1621	0	32752	32730	36676	
1622	0	32879	32694	36724	
1623	0	32824	32782	36759	
1624	0	32724	32967	36804	
1625	0	32921	32898	36856	
1626	0	32776	32839	36884	
1627	0	32644	32916	36917	
1628	0	32249	32932	36980	
1629	0	32256	32716	37013	
1630	0	32596	32465	37040	
1631	0	32576	32615	37092	
1632	0	32720	32592	37092	
1633	0	32644	32509	37121	
1634	0	32926	32814	37153	
1635	0	32956	32865	37164	
1636	0	32864	32984	37182	
1637	0	32904	33055	37220	
1638	0	32908	33156	37213	
1639	0	32946	33135	37225	
1640	0	32996	32812	37242	
1641	0	32961	32816	37236	
1642	0	33237	32879	37196	
1643	0	32940	32913	37189	
1644	0	32792	32950	37174	
1645	0	32156	32969	37160	
1646	0	32574	33000	37152	
1647	0	33020	32798	37124	
1648	0	33072	32752	37116	
1649	0	33124	32765	37098	
1650	0	32740	32750	37056	
1651	0	32501	32693	37028	
1652	0	32424	32896	37025	
1653	0	32400	32932	37005	
1654	0	32632	32732	36960	
1655	0	32685	32533	36935	
1656	0	32560	32605	36868	
1657	0	32684	32773	36816	
1658	0	32981	32872	36788	
1659	0	33176	32860	36754	
1660	0	33104	32868	36710	
1661	0	33036	32932	36628	
1662	0	32932	32877	36564	
1663	0	33200	32932	36516	
1664	0	33242	32847	36458	
1665	0	33404	32784	36436	
1666	0	32584	32988	36416	
1667	0	30794	32940	36388	
1668	0	31292	32912	36350	
1669	0	32484	32868	36326	
1670	0	33024	32828	36305	
1671	0	33592	32844	36266	
1672	0	34089	32873	36248	
1673	0	33168	32938	36236	
1674	0	31956	32812	36194	
1675	0	32020	32786	36145	
1676	0	33008	32886	36112	
1677	0	33084	32948	36090	
1678	0	32700	32756	36048	
1679	0	32676	32813	35999	
1680	0	33108	32838	35961	
1681	0	33330	32872	35920	
1682	0	33444	32732	35888	
1683	0	33265	32804	35888	
1684	0	33188	32876	35868	
1685	0	32913	32756	35851	
1686	0	31874	32735	35876	
1687	0	31340	33008	35888	
1688	0	31601	32912	35880	
1689	0	32296	32798	35919	
1690	0	32692	32964	35919	
1691	0	33518	32941	35941	
1692	0	33640	33038	35982	
1693	0	32860	32972	36009	
1694	0	32608	32989	36044	
1695	0	32952	32857	36084	
1696	0	33280	32732	36144	
1697	0	32924	32511	36193	
1698	0	33080	32361	36220	
1699	0	33109	32392	36261	
1700	0	32886	32629	36282	
1701	0	32872	32751	36268	
1702	0	32948	32852	36277	
1703	0	32976	32834	36272	
1704	0	33036	32876	36280	
1705	0	32924	32922	36272	
1706	0	32648	33112	36272	
1707	0	32440	33072	36249	
1708	0	32448	32856	36222	
1709	0	32224	32664	36196	
1710	0	32306	32864	36164	
1711	0	32080	32728	36128	
1712	0	32072	32660	36102	
1713	0	32872	32677	36079	
1714	0	32944	32965	36068	
1715	0	32956	32889	36060	
1716	0	32884	32928	36042	
1717	0	32856	32853	36041	
1718	0	33080	33024	36068	
1719	0	33121	33028	36116	
1720	0	33088	32977	36093	
1721	0	33108	32998	36124	
1722	0	33182	32836	36153	
1723	0	32960	32879	36186	
1724	0	32986	32760	36246	
1725	0	32996	32833	36288	
1726	0	32900	32736	36344	
1727	0	32804	32744	36376	
1728	0	32796	32839	36420	
1729	0	32288	32532	36453	
1730	0	31684	32498	36508	
1731	0	31936	32664	36552	
1732	0	31924	32706	36556	
1733	0	32524	32760	36573	
1734	0	33652	32682	36607	
1735	0	33948	32646	36633	
1736	0	32904	32704	36652	
1737	0	32404	32892	36673	
1738	0	32712	32946	36692	
1739	0	33096	33008	36702	
1740	0	33672	33006	36700	
1741	0	33450	32964	36693	
1742	0	33604	33086	36686	
1743	0	33552	32940	36677	
1744	0	33585	32828	36687	
1745	0	32564	32852	36688	
1746	0	31464	32788	36692	
1747	0	30914	32744	36726	
1748	0	31756	33089	36716	
1749	0	32156	33000	36733	
1750	0	31916	32775	36748	
1751	0	32012	32765	36756	
1752	0	32972	32924	36736	
1753	0	33664	32768	36742	
1754	0	33524	32820	36724	
1755	0	33174	32996	36717	
1756	0	33001	33108	36679	
1757	0	33084	32960	36660	
1758	0	33368	33096	36628	
1759	0	33356	32896	36613	
1760	0	33344	32681	36582	
1761	0	33220	32733	36589	
1762	0	32901	32526	36584	
1763	0	32584	32588	36592	
1764	0	32396	32768	36612	
1765	0	32712	32860	36612	
1766	0	32590	32748	36588	
1767	0	32480	32734	36584	
1768	0	32493	32866	36598	
1769	0	32372	32840	36578	
1770	0	32328	32845	36576	
1771	0	32356	32996	36578	
1772	0	32784	32845	36562	
1773	0	32666	32786	36550	
1774	0	32700	32940	36525	
1775	0	32452	32924	36516	
1776	0	32424	32860	36513	
1777	0	32849	32980	36481	
1778	0	33112	33012	36489	
1779	0	33644	32924	36500	
1780	0	34016	32879	36477	
1781	0	33652	32916	36468	
1782	0	32772	32860	36453	
1783	0	32388	32895	36440	
1784	0	32433	32840	36444	
1785	0	32644	32797	36444	
1786	0	32944	32936	36457	
1787	0	33104	32989	36454	
1788	0	33060	32896	36448	
1789	0	32590	32813	36464	
1790	0	32212	32847	36436	
1791	0	31976	32641	36414	
1792	0	32094	32729	36359	
1793	0	32470	32392	36337	
1794	0	32705	32492	36292	
1795	0	32860	32612	36276	
1796	0	32952	32668	36280	
1797	0	33100	32836	36255	
1798	0	33121	33044	36244	
1799	0	33180	32964	36236	
1800	0	33150	32820	36232	
1801	0	33324	32868	36252	
1802	0	33160	32866	36265	
1803	0	32984	32856	36304	
1804	0	32745	32917	36336	
1805	0	32364	33010	36340	
1806	0	32368	32732	36354	
1807	0	32376	32644	36388	
1808	0	32525	32638	36420	
1809	0	32916	32824	36430	
1810	0	32896	32976	36430	
1811	0	32799	32936	36436	
1812	0	32460	33005	36456	
1813	0	32220	32895	36468	
1814	0	32744	32796	36484	
1815	0	33144	32952	36496	
1816	0	32868	32696	36509	
1817	0	32433	32704	36528	
1818	0	32752	32888	36546	
1819	0	33257	32756	36556	
1820	0	33232	32689	36588	
1821	0	32976	32760	36604	
1822	0	33004	32948	36632	
1823	0	32892	33084	36653	
1824	0	32945	32568	36672	
1825	0	33020	32684	36689	
1826	0	33093	32721	36709	
1827	0	32965	32846	36710	
1828	0	32772	32772	36712	
1829	0	32924	32692	36724	
1830	0	32860	32812	36737	
1831	0	32204	32836	36742	
1832	0	30664	32940	36736	
1833	0	29853	33084	36740	
1834	0	31300	32872	36718	
1835	0	33308	32873	36738	
1836	0	33932	32936	36726	
1837	0	33704	32880	36712	
1838	0	33534	32941	36693	
1839	0	33252	33032	36684	
1840	0	34092	32793	36684	
1841	0	34276	32668	36676	
1842	0	33504	32861	36682	
1843	0	33176	32808	36688	
1844	0	32519	32709	36704	
1845	0	32057	32808	36705	
1846	0	32252	33064	36721	
1847	0	32388	33006	36724	
1848	0	32574	32872	36750	
1849	0	32500	32826	36764	
1850	0	32488	32780	36773	
1851	0	32556	32489	36768	
1852	0	32752	32558	36777	
1853	0	32448	32574	36781	
1854	0	32350	32792	36776	
1855	0	32660	32840	36785	
1856	0	32928	32734	36772	
1857	0	32884	32556	36776	
1858	0	32880	32824	36743	
1859	0	32976	32876	36733	
1860	0	33064	32854	36708	
1861	0	32924	32828	36680	
1862	0	33252	32933	36672	
1863	0	33420	33020	36648	
1864	0	33148	33104	36648	
1865	0	33100	33159	36644	
1866	0	33074	33183	36660	
1867	0	32560	32932	36652	
1868	0	32248	32784	36644	
1869	0	31738	32624	36654	
1870	0	32093	32663	36656	
1871	0	32580	32509	36660	
1872	0	32700	32624	36652	
1873	0	32776	32805	36637	
1874	0	32568	32834	36629	
1875	0	32241	32998	36636	
1876	0	32472	32816	36638	
1877	0	32820	32993	36628	
1878	0	33124	32885	36640	
1879	0	33480	33024	36632	
1880	0	34108	33020	36604	
1881	0	34192	32966	36620	
1882	0	33020	32885	36588	
1883	0	32544	32966	36568	
1884	0	32416	32997	36564	
1885	0	32628	32824	36557	
1886	0	32820	32614	36546	
1887	0	33396	32736	36509	
1888	0	32936	32788	36481	
1889	0	32240	32936	36452	
1890	0	32048	32818	36445	
1891	0	32064	32847	36393	
1892	0	32356	32865	36340	
1893	0	32632	32808	36304	
1894	0	32780	32677	36260	
1895	0	32938	32788	36244	
1896	0	32600	32764	36208	
1897	0	32516	32888	36172	
1898	0	32608	32901	36164	
1899	0	33336	33023	36156	
1900	0	33556	32824	36160	
1901	0	33396	32528	36156	
1902	0	33044	32485	36161	
1903	0	32964	32663	36164	
1904	0	32916	32880	36180	
1905	0	32720	33006	36196	
1906	0	32508	33404	36221	
1907	0	32508	32876	36230	
1908	0	32774	32545	36216	
1909	0	32601	32684	36223	
1910	0	32424	32856	36232	
1911	0	32404	32748	36228	
1912	0	32472	32905	36216	
1913	0	32600	32832	36228	
1914	0	32452	32849	36216	
1915	0	32520	32989	36220	
1916	0	32840	32996	36204	
1917	0	32986	33316	36201	
1918	0	32928	32800	36196	
1919	0	32916	32664	36213	
1920	0	33084	32568	36206	
1921	0	33056	32834	36214	
1922	0	32548	32608	36242	
1923	0	32872	32608	36280	
1924	0	32876	32903	36324	
1925	0	32488	32660	36359	
1926	0	32570	32700	36412	
1927	0	32604	32860	36452	
1928	0	33018	32878	36492	
1929	0	33208	32992	36532	
1930	0	32180	33045	36564	
1931	0	31733	32852	36588	
1932	0	32034	32870	36615	
1933	0	31486	32847	36644	
1934	0	32300	32692	36648	
1935	0	34088	32744	36645	
1936	0	33725	32830	36644	
1937	0	33494	32912	36645	
1938	0	33300	33180	36644	
1939	0	33120	32870	36636	
1940	0	33332	32734	36628	
1941	0	33936	33140	36624	
1942	0	34548	33056	36628	
1943	0	34848	32351	36615	
1944	0	34428	32804	36620	
1945	0	33032	33149	36632	
1946	0	31968	32708	36640	
1947	0	31716	32647	36677	
1948	0	31492	32844	36688	
1949	0	31817	32753	36724	
1950	0	32056	32753	36736	
1951	0	32009	32615	36760	
1952	0	32016	32653	36812	
1953	0	31708	32796	36844	
1954	0	32536	32769	36849	
1955	0	33012	32916	36871	
1956	0	32508	32856	36895	
1957	0	32541	33000	36898	
1958	0	32936	33052	36897	
1959	0	33268	33076	36904	
1960	0	33232	32940	36868	
1961	0	33408	32857	36838	
1962	0	33344	32807	36780	
1963	0	33076	32897	36772	
1964	0	32988	32884	36736	
1965	0	32814	32815	36694	
1966	0	32822	32556	36644	
1967	0	32504	32684	36588	
1968	0	32292	32714	36556	
1969	0	32276	32956	36512	
1970	0	32421	33100	36452	
1971	0	32662	32505	36420	
1972	0	32397	32826	36392	
1973	0	32068	32711	36372	
1974	0	32200	33221	36325	
1975	0	32808	32756	36304	
1976	0	32952	32651	36272	
1977	0	33078	32720	36223	
1978	0	33080	32660	36185	
1979	0	33008	32612	36150	
1980	0	32964	32905	36122	
1981	0	33157	32829	36118	
1982	0	33324	33047	36088	
1983	0	33124	32865	36053	
1984	0	33079	32808	36036	
1985	0	33234	33033	36044	
1986	0	33074	32658	36068	
1987	0	32926	32720	36076	
1988	0	32940	32614	36068	
1989	0	32637	32772	36076	
1990	0	31892	32756	36072	
1991	0	31364	33030	36062	
1992	0	31728	32872	36068	
1993	0	32800	32908	36068	
1994	0	32952	32886	36056	
1995	0	33329	32998	36044	
1996	0	32980	32871	36029	
1997	0	32932	32816	36037	
1998	0	33362	32988	36045	
1999	0	33240	32856	36048	
2000	0	32921	32872	36074	
2001	0	32768	32892	36072	
2002	0	32676	32633	36078	
2003	0	32388	32606	36116	
2004	0	32645	32842	36136	
2005	0	32968	32812	36157	
2006	0	33316	32844	36172	
2007	0	33192	32925	36206	
2008	0	32912	32904	36260	
2009	0	32756	32888	36284	
2010	0	32358	32966	36292	
2011	0	32292	32888	36328	
2012	0	32352	32692	36360	
2013	0	32600	32740	36392	
2014	0	32874	32820	36428	
2015	0	33049	32684	36441	
2016	0	33012	32556	36450	
2017	0	33132	32644	36468	
2018	0	33172	32824	36471	
2019	0	32672	33028	36456	
2020	0	32520	32922	36454	
2021	0	32456	32996	36456	
2022	0	32741	32692	36460	
2023	0	32952	32804	36438	
2024	0	32804	32948	36436	
2025	0	32869	32872	36456	
2026	0	33036	32724	36463	
2027	0	33120	32951	36457	
2028	0	32613	32919	36484	
2029	0	32249	32924	36484	
2030	0	32094	32966	36480	
2031	0	32385	32938	36502	
2032	0	32595	32684	36534	
2033	0	32596	32732	36556	
2034	0	32624	32556	36609	
2035	0	32879	32572	36673	
2036	0	32988	32688	36703	
2037	0	33056	32752	36745	
2038	0	33034	32940	36777	
2039	0	33161	32920	36820	
2040	0	33092	32844	36846	
2041	0	32860	32817	36900	
2042	0	33064	32921	36953	
2043	0	33086	32992	36965	
2044	0	33476	32868	37005	
2045	0	33132	32846	37046	
2046	0	32784	32932	37065	
2047	0	32408	32928	37084	
2048	0	32261	32900	37120	
2049	0	32328	32914	37148	
2050	0	32460	32788	37161	
2051	0	32748	32728	37176	
2052	0	32668	32950	37188	
2053	0	32700	32868	37212	
2054	0	32784	32898	37252	
2055	0	32842	32728	37261	
2056	0	32842	32740	37252	
2057	0	32800	32796	37259	
2058	0	32850	32721	37236	
2059	0	32992	32860	37248	
2060	0	33124	32740	37211	
2061	0	33068	32741	37172	
2062	0	33100	32676	37111	
2063	0	32833	32792	37082	
2064	0	32556	32808	37026	
2065	0	32604	32772	36990	
2066	0	32740	32813	36949	
2067	0	32817	32892	36946	
2068	0	32621	33182	36901	
2069	0	32480	33436	36876	
2070	0	32524	32781	36861	
2071	0	32912	32446	36812	
2072	0	33012	32768	36752	
2073	0	32612	32714	36703	
2074	0	32544	32630	36674	
2075	0	32380	32647	36612	
2076	0	32720	32857	36552	
2077	0	32936	32788	36490	
2078	0	33122	32902	36428	
2079	0	32676	33089	36352	
2080	0	32286	32909	36272	
2081	0	32496	32687	36244	
2082	0	32876	32700	36200	
2083	0	33160	32900	36137	
2084	0	33396	33184	36104	
2085	0	33144	33044	36072	
2086	0	33056	32768	36028	
2087	0	33284	32672	36005	
2088	0	33258	32764	35978	
2089	0	32816	32492	35957	
2090	0	31912	32634	35964	
2091	0	32068	32764	35959	
2092	0	32417	32726	35940	
2093	0	32628	32848	35893	
2094	0	32664	33012	35861	
2095	0	32552	33004	35858	
2096	0	32712	32887	35802	
2097	0	32900	32847	35784	
2098	0	33202	33056	35764	
2099	0	33356	32920	35766	
2100	0	33308	32886	35764	
2101	0	33032	32856	35780	
2102	0	33073	32949	35776	
2103	0	33100	33018	35812	
2104	0	32416	32716	35834	
2105	0	32453	32718	35864	
2106	0	32941	32696	35925	
2107	0	32940	32765	35972	
2108	0	32196	32559	36025	
2109	0	32108	32879	36064	
2110	0	32444	32798	36133	
2111	0	32600	32684	36182	
2112	0	32552	32812	36232	
2113	0	32612	32781	36293	
2114	0	32520	32840	36377	
2115	0	32696	32780	36424	
2116	0	32912	32905	36464	
2117	0	33144	32864	36488	
2118	0	33116	32928	36542	
2119	0	33104	33020	36588	
2120	0	33177	32948	36644	
2121	0	33220	33125	36683	
2122	0	33145	33060	36740	
2123	0	33044	32740	36791	
2124	0	32844	32964	36820	
2125	0	32686	32728	36860	
2126	0	32608	32796	36918	
2127	0	32580	32743	36988	
2128	0	32588	32801	37048	
2129	0	32796	32744	37076	
2130	0	32788	32733	37096	
2131	0	32473	32760	37127	
2132	0	32396	32620	37136	
2133	0	32424	32700	37149	
2134	0	32500	32665	37135	
2135	0	32557	33052	37148	
2136	0	32736	33036	37174	
2137	0	32932	32753	37202	
2138	0	32980	32760	37228	
2139	0	32902	32940	37220	
2140	0	32924	32769	37220	
2141	0	33149	32760	37221	
2142	0	33668	32940	37230	
2143	0	33873	32896	37216	
2144	0	33620	32784	37188	
2145	0	32720	32776	37174	
2146	0	32224	32694	37173	
2147	0	32268	32798	37181	
2148	0	32352	32706	37153	
2149	0	32119	32754	37132	
2150	0	32304	32820	37116	
2151	0	32504	32902	37041	
2152	0	32468	32736	37008	
2153	0	32566	32916	36968	
2154	0	32630	32553	36905	
2155	0	32733	32676	36871	
2156	0	32896	32897	36812	
2157	0	33016	32992	36765	
2158	0	32944	33170	36692	
2159	0	33274	33084	36616	
2160	0	33273	32980	36564	
2161	0	33021	32852	36516	
2162	0	32886	32714	36480	
2163	0	33044	32705	36420	
2164	0	32988	32955	36404	
2165	0	32972	32844	36368	
2166	0	32931	32876	36329	
2167	0	32632	32822	36304	
2168	0	32660	33082	36295	
2169	0	32300	32924	36280	
2170	0	32228	32792	36218	
2171	0	32209	32792	36200	
2172	0	32064	32492	36192	
2173	0	32196	32496	36164	
2174	0	32332	32620	36144	
2175	0	32596	32792	36112	
2176	0	33248	32864	36080	
2177	0	33884	32894	36040	
2178	0	33840	32857	36036	
2179	0	33916	33223	36013	
2180	0	33508	32976	36005	
2181	0	32864	32673	36010	
2182	0	32496	32820	35996	
2183	0	32485	32951	36016	
2184	0	32428	32988	36012	
2185	0	32352	32860	36018	
2186	0	32584	32896	36032	
2187	0	32440	32872	36057	
2188	0	32664	32724	36076	
2189	0	33132	32788	36100	
2190	0	32689	32789	36125	
2191	0	32456	32764	36120	
2192	0	32548	32786	36146	
2193	0	32616	32813	36161	
2194	0	32644	32980	36167	
2195	0	32729	32936	36168	
2196	0	32808	32765	36176	
2197	0	33016	32788	36185	
2198	0	33168	32873	36184	
2199	0	33253	32828	36196	
2200	0	32885	32756	36205	
2201	0	32394	32616	36213	
2202	0	32366	32848	36224	
2203	0	33276	32764	36252	
2204	0	33224	32710	36260	
2205	0	32904	32789	36312	
2206	0	32564	32878	36367	
2207	0	32648	32925	36408	
2208	0	32705	32864	36452	
2209	0	33056	32740	36484	
2210	0	32892	32726	36492	
2211	0	32232	32768	36513	
2212	0	32178	32833	36533	
2213	0	32477	32864	36550	
2214	0	32864	32804	36556	
2215	0	32936	32865	36576	
2216	0	32092	33020	36589	
2217	0	32524	32954	36580	
2218	0	32441	32960	36584	
2219	0	32568	32964	36568	
2220	0	33476	32804	36564	
2221	0	34144	32756	36526	
2222	0	33956	32749	36516	
2223	0	33440	32705	36504	
2224	0	33276	32722	36498	
2225	0	33560	32775	36468	
2226	0	32489	32974	36468	
2227	0	32024	32733	36476	
2228	0	31605	32670	36434	
2229	0	32064	33096	36444	
2230	0	32328	32788	36452	
2231	0	32365	32652	36436	
2232	0	32552	32868	36444	
2233	0	32620	32704	36452	
2234	0	32877	32760	36436	
2235	0	32904	32941	36428	
2236	0	32884	32942	36440	
2237	0	32796	32768	36444	
2238	0	32856	32878	36468	
2239	0	33164	32837	36468	
2240	0	33136	32720	36509	
2241	0	33036	32796	36512	
2242	0	33024	32772	36518	
2243	0	33080	32714	36546	
2244	0	33068	32732	36576	
2245	0	33032	32814	36576	
2246	0	32817	32884	36591	
2247	0	32520	32834	36589	
2248	0	32476	32924	36580	
2249	0	32568	32694	36589	
2250	0	32736	32683	36573	
2251	0	32596	32750	36545	
2252	0	32357	32880	36564	
2253	0	32444	32869	36540	
2254	0	32644	32768	36518	
2255	0	32420	32873	36517	
2256	0	32528	32802	36516	
2257	0	32964	32812	36508	
2258	0	33190	32948	36516	
2259	0	33544	32997	36479	
2260	0	33512	32965	36482	
2261	0	33490	32932	36460	
2262	0	33208	32814	36455	
2263	0	32868	32812	36460	
2264	0	32564	32980	36432	
2265	0	32612	32660	36437	
2266	0	32758	32751	36410	
2267	0	32625	32886	36396	
2268	0	32412	33025	36375	
2269	0	32420	32888	36348	
2270	0	32260	32804	36324	
2271	0	32360	32744	36289	
2272	0	32472	32790	36234	
2273	0	32444	32764	36208	
2274	0	32556	32612	36188	
2275	0	32684	32793	36148	
2276	0	32972	32813	36104	
2277	0	33366	32789	36103	
2278	0	33472	32768	36087	
2279	0	32928	32869	36066	
2280	0	33077	32765	36070	
2281	0	33084	32744	36076	
2282	0	33068	32752	36072	
2283	0	32740	32860	36077	
2284	0	32768	32696	36084	
2285	0	32838	32815	36092	
2286	0	32718	32865	36132	
2287	0	32652	33022	36152	
2288	0	32624	33044	36181	
2289	0	32628	32988	36210	
2290	0	32590	32877	36244	
2291	0	32292	32864	36264	
2292	0	32218	32775	36263	
2293	0	32578	32672	36302	
2294	0	33016	32710	36321	
2295	0	32960	32848	36356	
2296	0	32820	32880	36380	
2297	0	32940	32445	36417	
2298	0	32810	32736	36454	
2299	0	33028	32932	36488	
2300	0	33092	32824	36500	
2301	0	32976	32865	36540	
2302	0	32506	32745	36564	
2303	0	32976	32898	36592	
2304	0	33628	32859	36638	
2305	0	33020	32790	36632	
2306	0	32281	32784	36666	
2307	0	32399	32660	36680	
2308	0	32760	32785	36686	
2309	0	32692	32881	36704	
2310	0	32302	32826	36690	
2311	0	32145	32820	36732	
2312	0	32390	32802	36716	
2313	0	32612	32744	36732	
2314	0	33252	32884	36730	
2315	0	32908	32873	36712	
2316	0	32736	33007	36698	
2317	0	33012	32824	36708	
2318	0	33260	32689	36684	
2319	0	33204	32912	36687	
2320	0	33000	32593	36697	
2321	0	32848	32732	36686	
2322	0	32956	32812	36684	
2323	0	33096	32856	36688	
2324	0	32988	33198	36696	
2325	0	32652	32519	36724	
2326	0	32508	32917	36740	
2327	0	32337	32948	36730	
2328	0	32468	33066	36752	
2329	0	32621	33086	36736	
2330	0	32876	33188	36714	
2331	0	32908	32672	36680	
2332	0	32592	32428	36647	
2333	0	32595	32260	36602	
2334	0	32631	32428	36568	
2335	0	32616	32727	36533	
2336	0	32740	32901	36510	
2337	0	32873	32804	36477	
2338	0	33082	32960	36446	
2339	0	33232	32957	36428	
2340	0	33072	32892	36376	
2341	0	33025	32888	36356	
2342	0	32924	32801	36300	
2343	0	32932	32820	36296	
2344	0	32984	33022	36285	
2345	0	32912	32928	36252	
2346	0	32792	32960	36240	
2347	0	32736	33144	36252	
2348	0	32540	33049	36260	
2349	0	32148	32844	36244	
2350	0	32180	32836	36240	
2351	0	32357	32863	36256	
2352	0	32532	32784	36284	
2353	0	32920	32604	36276	
2354	0	33124	32784	36284	
2355	0	32814	32536	36292	
2356	0	32700	32668	36292	
2357	0	32800	32868	36284	
2358	0	33000	32906	36292	
2359	0	33102	32788	36299	
2360	0	33116	32654	36300	
2361	0	33200	32820	36320	
2362	0	33124	32839	36340	
2363	0	32962	32888	36320	
2364	0	33064	32928	36318	
2365	0	32936	32927	36344	
2366	0	32816	32941	36359	
2367	0	32608	32920	36382	
2368	0	32604	32928	36368	
2369	0	32620	32784	36366	
2370	0	32760	32657	36388	
2371	0	32548	32570	36396	
2372	0	32186	32684	36408	
2373	0	32136	32830	36400	
2374	0	32309	32894	36373	
2375	0	32688	32908	36358	
2376	0	32844	32902	36350	
2377	0	32908	32903	36377	
2378	0	32952	32892	36372	
2379	0	32904	32924	36374	
2380	0	32948	32981	36368	
2381	0	33028	32826	36356	
2382	0	33160	32700	36365	
2383	0	33172	32853	36376	
2384	0	33346	32805	36404	
2385	0	33056	32844	36444	
2386	0	32913	32952	36434	
2387	0	32880	32900	36445	
2388	0	32785	32766	36470	
2389	0	32448	32708	36501	
2390	0	32268	32652	36521	
2391	0	32412	32734	36500	
2392	0	32344	32708	36532	
2393	0	32501	32580	36540	
2394	0	32432	32660	36554	
2395	0	32540	32778	36570	
2396	0	32985	32791	36597	
2397	0	33184	32852	36604	
2398	0	33084	32862	36597	
2399	0	32984	32836	36628	
2400	0	33082	32743	36660	
2401	0	33021	32730	36650	
2402	0	32872	32775	36656	
2403	0	32905	32860	36688	
2404	0	32956	32878	36710	
2405	0	32848	32912	36729	
2406	0	32864	32780	36785	
2407	0	32776	32872	36816	
2408	0	32684	32984	36837	
2409	0	32454	32904	36856	
2410	0	32460	32864	36881	
2411	0	32612	32844	36889	
2412	0	32520	32864	36900	
2413	0	32568	32856	36916	
2414	0	32564	32733	36918	
2415	0	32183	32885	36912	
2416	0	32556	32984	36930	
2417	0	32453	32749	36945	
2418	0	32856	32804	36954	
2419	0	33016	32960	36945	
2420	0	33674	32870	36956	
2421	0	33816	32964	36956	
2422	0	33604	32876	36960	
2423	0	33180	32924	36966	
2424	0	32757	32920	36965	
2425	0	32710	32986	36972	
2426	0	32764	32941	36992	
2427	0	32816	32809	37020	
2428	0	32732	32751	37016	
2429	0	32456	32702	37034	
2430	0	32424	32460	37068	
2431	0	32322	32566	37068	
2432	0	32204	32516	37095	
2433	0	32616	32519	37103	
2434	0	32424	32553	37112	
2435	0	32292	32623	37114	
2436	0	32288	32908	37109	
2437	0	32648	32825	37132	
2438	0	33096	33068	37149	
2439	0	33628	32936	37136	
2440	0	34040	32952	37113	
2441	0	33962	32959	37112	
2442	0	33165	32984	37112	
2443	0	32720	32993	37068	
2444	0	32720	32948	37068	
2445	0	32612	32868	37052	
2446	0	33016	32876	37028	
2447	0	33312	33020	36976	
2448	0	33650	33024	36968	
2449	0	33332	32793	36945	
2450	0	31752	32797	36904	
2451	0	30988	32646	36868	
2452	0	31304	32788	36844	
2453	0	31552	32728	36827	
2454	0	31752	32664	36777	
2455	0	32804	32576	36708	
2456	0	33438	32895	36666	
2457	0	33568	32738	36612	
2458	0	33314	32658	36567	
2459	0	33176	33032	36476	
2460	0	33104	32892	36378	
2461	0	33188	32866	36304	
2462	0	33348	32951	36204	
2463	0	33376	32856	36127	
2464	0	33069	32838	36048	
2465	0	32668	32890	35975	
2466	0	32620	32783	35918	
2467	0	32485	32805	35876	
2468	0	32448	32864	35832	
2469	0	32380	32756	35786	
2470	0	32293	32584	35745	
2471	0	32408	32588	35717	
2472	0	32516	32694	35704	
2473	0	32572	32893	35688	
2474	0	32688	32997	35700	
2475	0	32896	32894	35689	
2476	0	32961	32817	35708	
2477	0	33154	32677	35712	
2478	0	33080	32680	35756	
2479	0	32980	32816	35776	
2480	0	32973	32796	35772	
2481	0	33053	32893	35776	
2482	0	33068	32839	35809	
2483	0	33185	32876	35820	
2484	0	33189	32932	35874	
2485	0	32789	32878	35904	
2486	0	32725	32800	35928	
2487	0	32480	32732	35968	
2488	0	32661	32869	35982	
2489	0	32568	32813	35966	
2490	0	32420	32912	35978	
2491	0	32612	32845	36014	
2492	0	32440	32740	36008	
2493	0	31872	32752	36013	
2494	0	32264	32834	36044	
2495	0	32509	32631	36052	
2496	0	32620	32792	36052	
2497	0	32800	32756	36064	
2498	0	33276	33031	36070	
2499	0	33756	33083	36064	
2500	0	33564	33096	36076	
2501	0	33218	32800	36097	
2502	0	33144	32724	36102	
2503	0	32986	32477	36130	
2504	0	32886	32592	36154	
2505	0	33265	32720	36196	
2506	0	33037	32872	36256	
2507	0	32532	32775	36300	
2508	0	32300	32834	36333	
2509	0	32360	33020	36352	
2510	0	32360	32884	36364	
2511	0	32324	32775	36400	
2512	0	32166	32820	36410	
2513	0	32175	32784	36432	
2514	0	32668	32708	36424	
2515	0	32676	32912	36436	
2516	0	32992	32941	36456	
2517	0	32932	32743	36476	
2518	0	32617	32816	36468	
2519	0	32740	32924	36472	
2520	0	33214	32736	36468	
2521	0	33336	32716	36456	
2522	0	33072	32748	36461	
2523	0	33144	32880	36452	
2524	0	33084	32888	36468	
2525	0	33012	32884	36470	
2526	0	32876	32913	36469	
2527	0	32716	33109	36480	
2528	0	32704	32888	36503	
2529	0	32616	33088	36537	
2530	0	32425	32668	36528	
2531	0	32392	32582	36544	
2532	0	32133	32661	36545	
2533	0	32088	32647	36540	
2534	0	32456	32712	36560	
2535	0	32940	32612	36562	
2536	0	33216	32708	36556	
2537	0	33284	32732	36559	
2538	0	33384	32996	36551	
2539	0	33180	32933	36564	
2540	0	33080	32860	36586	
2541	0	33044	32941	36569	
2542	0	33004	32925	36572	
2543	0	32964	32800	36602	
2544	0	32879	32736	36615	
2545	0	32820	32692	36628	
2546	0	32664	32928	36610	
2547	0	32518	32808	36602	
2548	0	32448	32617	36588	
2549	0	32289	32880	36565	
2550	0	32176	32676	36574	
2551	0	32225	32833	36556	
2552	0	32536	32804	36540	
2553	0	32626	32760	36517	
2554	0	32921	32836	36516	
2555	0	33013	32846	36524	
2556	0	32992	32916	36500	
2557	0	33288	32924	36500	
2558	0	32708	32988	36500	
2559	0	32612	32991	36484	
2560	0	33144	32924	36488	
2561	0	33352	32742	36506	
2562	0	33344	32790	36488	
2563	0	33040	32796	36484	
2564	0	32864	32825	36484	
2565	0	32589	32784	36488	
2566	0	32968	32692	36517	
2567	0	33105	32748	36520	
2568	0	33064	32744	36545	
2569	0	32088	32744	36532	
2570	0	31668	32752	36552	
2571	0	32169	32816	36576	
2572	0	32456	32924	36592	
2573	0	32558	32700	36608	
2574	0	32712	32858	36623	
2575	0	32776	32944	36625	
2576	0	32976	32860	36645	
2577	0	33084	33164	36652	
2578	0	33040	33156	36681	
2579	0	33032	32918	36709	
2580	0	32920	32782	36736	
2581	0	32884	32812	36742	
2582	0	33132	32716	36742	
2583	0	33232	32673	36732	
2584	0	33120	32628	36741	
2585	0	32920	32628	36749	
2586	0	32768	32612	36765	
2587	0	32584	32784	36794	
2588	0	32548	32996	36785	
2589	0	32629	32912	36744	
2590	0	32392	32772	36733	
2591	0	32584	32830	36709	
2592	0	32480	32784	36697	
2593	0	32550	32837	36672	
2594	0	32508	32964	36612	
2595	0	32552	32935	36586	
2596	0	32800	33113	36568	
2597	0	32941	33056	36552	
2598	0	33114	33108	36496	
2599	0	33044	32949	36473	
2600	0	33165	32930	36432	
2601	0	33120	32648	36400	
2602	0	32941	32556	36361	
2603	0	32696	32659	36332	
2604	0	32940	32536	36301	
2605	0	33136	32636	36284	
2606	0	32977	32740	36284	
2607	0	32788	32775	36265	
2608	0	32516	32924	36248	
2609	0	32388	32729	36256	
2610	0	32264	32677	36228	
2611	0	32384	32737	36232	
2612	0	32472	32860	36248	
2613	0	32324	32860	36234	
2614	0	32656	32848	36224	
2615	0	33152	32936	36229	
2616	0	33096	32926	36212	
2617	0	33008	32903	36221	
2618	0	33068	33068	36206	
2619	0	32997	33064	36188	
2620	0	33136	33073	36186	
2621	0	33312	32912	36185	
2622	0	33124	32792	36156	
2623	0	32956	32826	36132	
2624	0	32800	33031	36144	
2625	0	32844	33125	36144	
2626	0	32856	32801	36139	
2627	0	32646	32504	36145	
2628	0	32608	32576	36149	
2629	0	32258	32522	36148	
2630	0	31772	32606	36128	
2631	0	31953	32604	36108	
2632	0	32168	32679	36101	
2633	0	32516	32620	36095	
2634	0	32781	32774	36084	
2635	0	33092	32822	36103	
2636	0	33608	32894	36103	
2637	0	33472	32812	36088	
2638	0	33208	33055	36103	
2639	0	32972	33128	36113	
2640	0	33320	33350	36120	
2641	0	33192	32500	36162	
2642	0	33020	32674	36196	
2643	0	32944	32966	36212	
2644	0	32736	33081	36234	
2645	0	32736	32856	36280	
2646	0	32620	32668	36340	
2647	0	32580	32870	36382	
2648	0	32380	33096	36416	
2649	0	32217	32916	36448	
2650	0	32324	32634	36493	
2651	0	32408	32636	36530	
2652	0	32424	32644	36561	
2653	0	32705	32740	36601	
2654	0	33561	32806	36636	
2655	0	33196	32833	36660	
2656	0	32700	32775	36708	
2657	0	32113	32956	36728	
2658	0	32486	32725	36790	
2659	0	33172	32660	36837	
2660	0	33529	32643	36868	
2661	0	33224	32844	36905	
2662	0	33132	32870	36956	
2663	0	33064	32927	36984	
2664	0	32720	32856	37029	
2665	0	32706	32733	37076	
2666	0	32636	32813	37109	
2667	0	32470	32736	37144	
2668	0	32380	32856	37152	
2669	0	32478	32796	37160	
2670	0	32510	32780	37154	
2671	0	32812	32896	37136	
2672	0	32836	32900	37141	
2673	0	32780	32796	37122	
2674	0	32624	32878	37127	
2675	0	32630	32849	37142	
2676	0	32732	32945	37112	
2677	0	32925	32944	37088	
2678	0	32982	32999	37032	
2679	0	33072	32750	36988	
2680	0	32672	32720	36960	
2681	0	33093	32714	36945	
2682	0	33268	32793	36944	
2683	0	33121	32808	36916	
2684	0	33024	32828	36892	
2685	0	32944	32910	36878	
2686	0	32812	32815	36868	
2687	0	32482	32992	36848	
2688	0	32444	32991	36844	
2689	0	32342	32868	36839	
2690	0	32212	32980	36814	
2691	0	32280	32924	36808	
2692	0	32500	32717	36785	
2693	0	32576	32644	36780	
2694	0	32724	32768	36740	
2695	0	32712	32788	36724	
2696	0	32982	32805	36687	
2697	0	32964	32852	36668	
2698	0	33173	33024	36588	
2699	0	33276	32813	36553	
2700	0	33212	32848	36516	
2701	0	33216	33000	36484	
2702	0	33128	32844	36428	
2703	0	33028	32593	36374	
2704	0	32840	32557	36340	
2705	0	32704	32608	36298	
2706	0	32436	32762	36265	
2707	0	32188	32868	36270	
2708	0	32280	32991	36256	
2709	0	32520	32700	36252	
2710	0	32860	32765	36242	
2711	0	33152	32792	36225	
2712	0	33208	32705	36226	
2713	0	32868	32879	36240	
2714	0	32548	32980	36236	
2715	0	32760	32853	36236	
2716	0	32757	33017	36249	
2717	0	32628	32828	36240	
2718	0	32776	32895	36293	
2719	0	32816	32869	36300	
2720	0	32968	32854	36280	
2721	0	33064	32837	36288	
2722	0	32808	32716	36299	
2723	0	32728	32681	36332	
2724	0	32900	32746	36346	
2725	0	33300	32752	36350	
2726	0	33224	32686	36338	
2727	0	32753	32876	36373	
2728	0	32592	32860	36380	
2729	0	32506	32908	36401	
2730	0	32388	32952	36383	
2731	0	32480	32762	36392	
2732	0	32424	32708	36408	
2733	0	32514	32840	36397	
2734	0	32652	32740	36414	
2735	0	32664	32745	36408	
2736	0	32772	32856	36416	
2737	0	33060	32793	36417	
2738	0	32992	32950	36389	
2739	0	32988	32969	36400	
2740	0	32944	32838	36388	
2741	0	32892	32922	36404	
2742	0	32978	32824	36393	
2743	0	33028	32874	36400	
2744	0	32892	32972	36400	
2745	0	32912	33056	36396	
2746	0	32888	32710	36390	
2747	0	33080	33080	36372	
2748	0	32936	32832	36372	
2749	0	32189	32404	36388	
2750	0	32017	32588	36409	
2751	0	32376	32558	36404	
2752	0	32225	32660	36428	
2753	0	32248	32788	36417	
2754	0	32477	32801	36422	
2755	0	32720	32972	36430	
2756	0	32960	32958	36424	
2757	0	33453	32848	36433	
2758	0	33513	32824	36448	
2759	0	33229	32868	36440	
2760	0	33034	32990	36439	
2761	0	33032	32752	36432	
2762	0	32986	32804	36432	
2763	0	33024	32772	36430	
2764	0	32912	32903	36420	
2765	0	32853	33169	36436	
2766	0	32545	32596	36433	
2767	0	32508	32624	36396	
2768	0	32796	32905	36376	
2769	0	32676	33024	36380	
2770	0	32358	33068	36369	
2771	0	32464	32932	36341	
2772	0	32328	32878	36320	
2773	0	32356	32960	36292	
2774	0	32572	32820	36257	
2775	0	32698	32788	36252	
2776	0	32863	32634	36258	
2777	0	32910	32828	36239	
2778	0	33096	32968	36236	
2779	0	33196	33121	36257	
2780	0	33060	32880	36252	
2781	0	33172	32844	36268	
2782	0	33289	32732	36272	
2783	0	33378	32638	36296	
2784	0	32932	32652	36337	
2785	0	32460	32918	36368	
2786	0	32976	33063	36376	
2787	0	32858	33018	36416	
2788	0	32524	33004	36453	
2789	0	32359	33114	36464	
2790	0	32168	32793	36477	
2791	0	32392	32780	36485	
2792	0	32524	32676	36495	
2793	0	32472	32397	36485	
2794	0	32508	32552	36484	
2795	0	32612	32836	36477	
2796	0	32648	32553	36472	
2797	0	32868	32788	36472	
2798	0	33084	32925	36480	
2799	0	33180	32996	36486	
2800	0	33520	32743	36466	
2801	0	33593	32880	36440	
2802	0	33176	32852	36440	
2803	0	33068	32884	36460	
2804	0	32821	32812	36464	
2805	0	32728	32734	36477	
2806	0	32736	32997	36456	
2807	0	32668	32768	36465	
2808	0	32572	32892	36485	
2809	0	32476	32858	36496	
2810	0	32524	32871	36504	
2811	0	32492	32784	36505	
2812	0	32468	32724	36484	
2813	0	32364	32957	36479	
2814	0	32532	32952	36481	
2815	0	32422	32708	36464	
2816	0	32536	32792	36453	
2817	0	33108	32860	36437	
2818	0	33140	32932	36440	
2819	0	32992	32992	36444	
2820	0	32980	32796	36428	
2821	0	33072	32812	36416	
2822	0	33204	33280	36424	
2823	0	33196	32848	36408	
2824	0	33296	32252	36433	
2825	0	33241	32680	36437	
2826	0	32768	32785	36421	
2827	0	32384	32860	36404	
2828	0	32380	32922	36416	
2829	0	32184	32799	36412	
2830	0	32368	32916	36404	
2831	0	32569	32824	36392	
2832	0	32680	32873	36378	
2833	0	32774	32848	36373	
2834	0	32816	32829	36348	
2835	0	32816	32796	36317	
2836	0	32680	32824	36297	
2837	0	32556	32824	36278	
2838	0	32766	32948	36272	
2839	0	32862	32952	36260	
2840	0	33184	32762	36241	
2841	0	33588	32540	36244	
2842	0	33438	32762	36268	
2843	0	33132	32796	36268	
2844	0	32996	32804	36265	
2845	0	32900	32996	36284	
2846	0	32864	32880	36286	
2847	0	32624	32965	36295	
2848	0	32364	33024	36300	
2849	0	32236	32902	36313	
2850	0	32488	32876	36348	
2851	0	32361	32776	36348	
2852	0	32152	32780	36337	
2853	0	32048	32982	36332	
2854	0	32536	32740	36301	
2855	0	33108	32897	36292	
2856	0	32996	32920	36296	
2857	0	32904	33057	36300	
2858	0	32836	33020	36306	
2859	0	33192	32878	36284	
2860	0	33265	32641	36260	
2861	0	33604	32536	36281	
2862	0	33224	32452	36272	
2863	0	32960	32440	36285	
2864	0	32620	32734	36292	
2865	0	32558	32741	36300	
2866	0	32756	33072	36317	
2867	0	32716	33200	36325	
2868	0	32536	33174	36350	
2869	0	32832	33040	36328	
2870	0	32812	32981	36350	
2871	0	32472	32628	36373	
2872	0	32537	32532	36386	
2873	0	32644	32684	36417	
2874	0	32629	32694	36448	
2875	0	32604	32744	36484	
2876	0	32752	32921	36525	
2877	0	32808	33024	36560	
2878	0	32428	32894	36590	
2879	0	33000	32969	36614	
2880	0	33152	32720	36640	
2881	0	33285	32852	36656	
2882	0	33186	32630	36660	
2883	0	33183	32785	36673	
2884	0	33084	32820	36692	
2885	0	32865	32839	36721	
2886	0	32732	33112	36727	
2887	0	32612	32713	36724	
2888	0	32368	32820	36756	
2889	0	32380	32944	36784	
2890	0	32470	32970	36804	
2891	0	32524	32640	36814	
2892	0	32796	32673	36800	
2893	0	32756	32890	36836	
2894	0	32480	32664	36836	
2895	0	32608	32613	36814	
2896	0	32756	32928	36817	
2897	0	32932	32616	36804	
2898	0	33066	32896	36813	
2899	0	32970	33157	36796	
2900	0	32788	33164	36774	
2901	0	32732	33172	36756	
2902	0	32925	32404	36751	
2903	0	33660	32664	36735	
2904	0	33508	32804	36736	
2905	0	33284	32814	36716	
2906	0	33092	32748	36693	
2907	0	32660	32897	36673	
2908	0	32312	32606	36656	
2909	0	32136	32852	36644	
2910	0	31720	32920	36644	
2911	0	32168	32815	36630	
2912	0	32444	32775	36606	
2913	0	32464	32857	36580	
2914	0	32648	32910	36556	
2915	0	32812	32964	36504	
2916	0	32909	32966	36484	
2917	0	32960	32990	36476	
2918	0	33204	33006	36440	
2919	0	33254	32989	36418	
2920	0	33224	32872	36404	
2921	0	33228	32764	36390	
2922	0	33052	32862	36388	
2923	0	33009	32958	36392	
2924	0	32896	32496	36400	
2925	0	32700	32689	36410	
2926	0	32692	32854	36404	
2927	0	32592	32737	36405	
2928	0	32680	32860	36388	
2929	0	32764	33029	36374	
2930	0	32520	33004	36376	
2931	0	32404	33000	36372	
2932	0	31952	33087	36370	
2933	0	32328	32917	36352	
2934	0	32976	32892	36308	
2935	0	32908	33045	36304	
2936	0	32732	32772	36306	
2937	0	32756	32628	36276	
2938	0	32776	32637	36269	
2939	0	32977	32504	36231	
2940	0	33197	32588	36192	
2941	0	33468	32574	36188	
2942	0	33593	32678	36184	
2943	0	33280	32725	36176	
2944	0	32988	32921	36192	
2945	0	32788	32865	36212	
2946	0	32777	32749	36176	
2947	0	32632	32893	36172	
2948	0	32360	32932	36164	
2949	0	32260	32957	36182	
2950	0	32532	32808	36197	
2951	0	32460	32902	36193	
2952	0	32144	32875	36216	
2953	0	32114	33048	36248	
2954	0	32276	32917	36296	
2955	0	32730	32903	36302	
2956	0	33284	33000	36320	
2957	0	33616	32921	36340	
2958	0	33316	32672	36372	
2959	0	33000	32809	36400	
2960	0	32924	32868	36428	
2961	0	32812	32896	36452	
2962	0	32724	33015	36472	
2963	0	32898	33008	36508	
2964	0	32884	33076	36544	
2965	0	32956	33006	36576	
2966	0	33088	33024	36620	
2967	0	32960	32737	36640	
2968	0	32749	32439	36665	
2969	0	32449	32488	36733	
2970	0	32308	32617	36768	
2971	0	32356	32576	36828	
2972	0	32516	32582	36892	
2973	0	32980	32622	36933	
2974	0	32588	32556	36972	
2975	0	32442	33173	36996	
2976	0	32468	32728	37025	
2977	0	32812	32786	37041	
2978	0	33092	32964	37052	
2979	0	33360	33156	37048	
2980	0	33292	32884	37048	
2981	0	33228	32516	37037	
2982	0	33208	32743	37016	
2983	0	33116	32678	37015	
2984	0	32940	32981	37004	
2985	0	32805	32892	37013	
2986	0	32800	33026	37001	
2987	0	32637	33065	36992	
2988	0	32630	32998	36988	
2989	0	32249	32991	36988	
2990	0	32248	32793	36993	
2991	0	32076	32773	36942	
2992	0	32096	32649	36921	
2993	0	32312	32648	36889	
2994	0	32556	32554	36860	
2995	0	32668	32706	36849	
2996	0	32720	32884	36807	
2997	0	32876	32917	36796	
2998	0	33240	32818	36756	
2999	0	33180	32810	36732	
3000	0	33271	32876	36709	
3001	0	33168	32918	36676	
3002	0	32980	32764	36636	
3003	0	33073	32759	36600	
3004	0	33264	32750	36576	
3005	0	33476	32814	36548	
3006	0	33476	32896	36513	
3007	0	32940	32925	36476	
3008	0	32728	33064	36430	
3009	0	32104	33048	36392	
3010	0	31572	32964	36376	
3011	0	31880	32966	36310	
3012	0	32376	32519	36253	
3013	0	32464	32804	36208	
3014	0	32625	33018	36174	
3015	0	32856	33065	36148	
3016	0	32900	33012	36095	
3017	0	32908	32824	36092	
3018	0	33028	32775	36080	
3019	0	33048	32788	36058	
3020	0	33269	32854	36040	
3021	0	33142	32984	36035	
3022	0	33112	32980	36004	
3023	0	33092	32856	35980	
3024	0	32920	32740	35986	
3025	0	32808	32750	36016	
3026	0	32824	32812	36006	
3027	0	32636	32769	35996	
3028	0	32512	32788	35994	
3029	0	32424	32784	36004	
3030	0	32412	32708	36032	
3031	0	32472	32519	36039	
3032	0	32405	32764	36036	
3033	0	32548	33023	36053	
3034	0	32748	32796	36060	
3035	0	32828	32820	36082	
3036	0	32910	32768	36076	
3037	0	32944	32888	36096	
3038	0	33052	32984	36100	
3039	0	33008	32964	36132	
3040	0	33088	33044	36152	
3041	0	33092	32924	36145	
3042	0	32948	32861	36176	
3043	0	32828	32787	36194	
3044	0	32869	32964	36209	
3045	0	32792	32812	36205	
3046	0	32628	32817	36234	
3047	0	32644	32920	36257	
3048	0	32666	32959	36288	
3049	0	32948	32886	36332	
3050	0	32669	32877	36372	
3051	0	32448	32946	36396	
3052	0	32450	32676	36404	
3053	0	32442	32775	36440	
3054	0	32545	32738	36470	
3055	0	32660	32722	36487	
3056	0	32676	32648	36500	
3057	0	32769	32660	36540	
3058	0	33048	32783	36560	
3059	0	33232	32885	36580	
3060	0	33474	32808	36614	
3061	0	33256	32791	36644	
3062	0	33060	32876	36678	
3063	0	33006	32740	36696	
3064	0	32996	32849	36716	
3065	0	32888	32956	36724	
3066	0	32924	32976	36696	
3067	0	32788	33359	36705	
3068	0	32496	32765	36719	
3069	0	32200	32876	36692	
3070	0	32100	32892	36704	
3071	0	32052	32820	36704	
3072	0	32220	32740	36676	
3073	0	32350	32492	36664	
3074	0	32836	32654	36648	
3075	0	33224	32672	36640	
3076	0	33158	32970	36636	
3077	0	33224	32896	36645	
3078	0	33024	32950	36668	
3079	0	32616	32878	36672	
3080	0	32912	32818	36692	
3081	0	33002	32676	36700	
3082	0	33088	32826	36704	
3083	0	33146	32740	36728	
3084	0	33624	32764	36743	
3085	0	33000	32830	36744	
3086	0	32791	33000	36732	
3087	0	32617	33056	36763	
3088	0	32508	33234	36760	
3089	0	32498	33237	36773	
3090	0	32417	32944	36776	
3091	0	32456	32657	36765	
3092	0	32468	32536	36741	
3093	0	32612	32524	36728	
3094	0	32620	32532	36742	
3095	0	32648	32702	36728	
3096	0	32682	32800	36712	
3097	0	32706	32815	36709	
3098	0	32812	32836	36692	
3099	0	32804	32856	36660	
3100	0	33261	32816	36664	
3101	0	33404	32970	36630	
3102	0	33364	33012	36604	
3103	0	33226	32775	36589	
3104	0	32868	32724	36572	
3105	0	32630	32924	36580	
3106	0	32480	33024	36558	
3107	0	32254	33029	36533	
3108	0	32364	33156	36527	
3109	0	32620	33016	36508	
3110	0	32812	33008	36505	
3111	0	32748	32924	36484	
3112	0	32820	32876	36492	
3113	0	32601	32775	36477	
3114	0	32500	32654	36487	
3115	0	32512	32770	36479	
3116	0	32908	32854	36476	
3117	0	33328	32869	36488	
3118	0	33152	32892	36477	
3119	0	33124	33005	36468	
3120	0	33192	32876	36487	
3121	0	33061	32962	36487	
3122	0	32905	32957	36492	
3123	0	32796	32668	36492	
3124	0	32560	32625	36502	
3125	0	32812	32636	36518	
3126	0	32432	32849	36508	
3127	0	32644	32867	36508	
3128	0	32740	32890	36504	
3129	0	32568	32984	36512	
3130	0	32436	32897	36502	
3131	0	32300	32861	36500	
3132	0	32440	32752	36456	
3133	0	32685	32564	36438	
3134	0	32702	32630	36432	
3135	0	32616	32644	36448	
3136	0	32688	32711	36448	
3137	0	32912	32772	36444	
3138	0	33128	32989	36415	
3139	0	33276	32864	36424	
3140	0	33508	32920	36423	
3141	0	33545	33092	36396	
3142	0	33264	33016	36376	
3143	0	33013	32357	36376	
3144	0	32840	32902	36352	
3145	0	32756	32973	36352	
3146	0	32652	32892	36352	
3147	0	32584	32696	36359	
3148	0	32549	32844	36367	
3149	0	32596	32968	36358	
3150	0	32644	32788	36340	
3151	0	32476	32769	36332	
3152	0	32436	32924	36344	
3153	0	32636	32846	36336	
3154	0	32568	32645	36321	
3155	0	32572	32581	36276	
3156	0	32528	32761	36268	
3157	0	32845	32880	36237	
3158	0	32968	32869	36212	
3159	0	32996	32959	36193	
3160	0	33124	32911	36170	
3161	0	33366	32978	36145	
3162	0	33098	32968	36116	
3163	0	33014	32792	36088	
3164	0	33008	32882	36100	
3165	0	32853	32842	36072	
3166	0	32772	32984	36060	
3167	0	32636	32932	36063	
3168	0	32504	32896	36072	
3169	0	32336	33028	36072	
3170	0	32282	32774	36040	
3171	0	32088	32698	36076	
3172	0	32229	32674	36076	
3173	0	32460	32816	36084	
3174	0	32652	32892	36082	
3175	0	33152	32973	36112	
3176	0	33445	32839	36126	
3177	0	33236	32890	36167	
3178	0	33056	32861	36184	
3179	0	32880	32756	36196	
3180	0	32765	32892	36218	
3181	0	32882	32772	36242	
3182	0	32904	32876	36288	
3183	0	32956	32873	36304	
3184	0	33356	32984	36320	
3185	0	33588	32806	36325	
3186	0	32988	32743	36348	
3187	0	33154	32890	36380	
3188	0	33020	32852	36384	
3189	0	32028	32805	36400	
3190	0	31492	32858	36408	
3191	0	31860	32832	36400	
3192	0	32354	32868	36408	
3193	0	32480	32907	36404	
3194	0	32241	32816	36413	
3195	0	32192	32820	36408	
3196	0	32542	32652	36408	
3197	0	33220	32748	36414	
3198	0	33548	32840	36388	
3199	0	33781	32913	36372	
3200	0	33601	32848	36390	
3201	0	33088	33036	36388	
3202	0	32652	32768	36414	
3203	0	32800	33053	36393	
3204	0	33082	32836	36393	
3205	0	32876	33042	36398	
3206	0	32869	32633	36406	
3207	0	32704	32668	36420	
3208	0	32532	32940	36421	
3209	0	32542	32854	36441	
3210	0	32500	33000	36460	
3211	0	32344	32874	36452	
3212	0	32160	32810	36444	
3213	0	32344	32840	36461	
3214	0	32776	32934	36472	
3215	0	32768	32676	36452	
3216	0	32968	32649	36472	
3217	0	32945	32781	36477	
3218	0	33052	32872	36468	
3219	0	33020	32928	36468	
3220	0	33244	32753	36458	
3221	0	33244	32716	36455	
3222	0	33016	32860	36444	
3223	0	32768	32911	36424	
3224	0	32772	32828	36416	
3225	0	32748	32824	36428	
3226	0	32874	32972	36437	
3227	0	32773	33076	36448	
3228	0	32884	32954	36436	
3229	0	32676	32848	36428	
3230	0	32292	32818	36399	
3231	0	32616	32820	36392	
3232	0	32753	32988	36400	
3233	0	32452	32564	36383	
3234	0	32460	32656	36385	
3235	0	32584	32692	36388	
3236	0	32874	32780	36389	
3237	0	32848	32834	36372	
3238	0	33137	32805	36381	
3239	0	33106	32900	36372	
3240	0	33057	32828	36365	
3241	0	33188	32864	36367	
3242	0	33100	32992	36368	
3243	0	32964	32801	36381	
3244	0	32848	32952	36384	
3245	0	32708	32944	36372	
3246	0	32556	32852	36369	
3247	0	32366	32860	36387	
3248	0	32364	32789	36395	
3249	0	32572	32982	36392	
3250	0	32564	32965	36404	
3251	0	32744	32896	36420	
3252	0	32696	32885	36392	
3253	0	32512	32823	36397	
3254	0	32700	32620	36408	
3255	0	32776	32676	36392	
3256	0	32852	32736	36392	
3257	0	32848	32896	36388	
3258	0	33000	32718	36384	
3259	0	33040	32789	36397	
3260	0	33121	32640	36408	
3261	0	33172	32736	36420	
3262	0	33045	32756	36420	
3263	0	33140	32964	36440	
3264	0	32900	33014	36496	
3265	0	32730	33108	36532	
3266	0	32608	32964	36556	
3267	0	32560	32866	36577	
3268	0	32516	32932	36605	
3269	0	32672	32956	36629	
3270	0	32652	32885	36666	
3271	0	32604	32956	36700	
3272	0	32546	32924	36701	
3273	0	32509	32785	36716	
3274	0	32564	32932	36733	
3275	0	32616	32808	36764	
3276	0	32736	32976	36742	
3277	0	32884	32750	36772	
3278	0	33168	32460	36786	
3279	0	33172	32612	36810	
3280	0	33092	32764	36829	
3281	0	33052	32884	36837	
3282	0	32810	32828	36863	
3283	0	32801	32780	36852	
3284	0	32884	32725	36871	
3285	0	32972	32903	36870	
3286	0	32920	32772	36876	
3287	0	32852	32852	36888	
3288	0	32876	32836	36884	
3289	0	32520	32868	36879	
3290	0	32160	32892	36888	
3291	0	32156	32846	36862	
3292	0	32048	32840	36837	
3293	0	32737	32813	36821	
3294	0	33266	32864	36784	
3295	0	32760	32822	36756	
3296	0	32670	32888	36744	
3297	0	32900	32856	36748	
3298	0	32920	32940	36724	
3299	0	32790	33044	36704	
3300	0	32836	32744	36690	
3301	0	32892	32768	36660	
3302	0	33118	32743	36614	
3303	0	33228	32736	36613	
3304	0	33428	32805	36602	
3305	0	33396	32940	36564	
3306	0	32624	32950	36553	
3307	0	32452	32936	36528	
3308	0	32224	32946	36524	
3309	0	32332	32952	36533	
3310	0	32432	32913	36521	
3311	0	32396	32837	36477	
3312	0	32428	32708	36466	
3313	0	32556	32940	36473	
3314	0	33048	33101	36452	
3315	0	32944	32824	36465	
3316	0	32784	32728	36433	
3317	0	32968	32814	36408	
3318	0	33156	32804	36402	
3319	0	33184	32608	36368	
3320	0	33189	32548	36356	
3321	0	33088	32604	36344	
3322	0	32760	32588	36353	
3323	0	32584	32746	36358	
3324	0	32740	32838	36336	
3325	0	32828	32812	36356	
3326	0	32909	32804	36364	
3327	0	32708	32904	36401	
3328	0	32804	33128	36416	
3329	0	32718	33113	36430	
3330	0	32324	32756	36429	
3331	0	32376	32840	36414	
3332	0	32320	32757	36408	
3333	0	32500	32922	36416	
3334	0	32584	32793	36404	
3335	0	32696	32844	36406	
3336	0	32834	32720	36405	
3337	0	33088	32773	36404	
3338	0	33148	32884	36384	
3339	0	33048	33086	36352	
3340	0	33048	32913	36359	
3341	0	33064	33057	36340	
3342	0	33056	32914	36340	
3343	0	32820	33072	36341	
3344	0	33053	32765	36333	
3345	0	33369	32708	36352	
3346	0	33028	32712	36372	
3347	0	32644	32749	36372	
3348	0	32580	32757	36400	
3349	0	32428	32917	36410	
3350	0	32134	32864	36424	
3351	0	32037	32768	36425	
3352	0	31884	32934	36460	
3353	0	32112	32868	36476	
3354	0	32576	32877	36496	
3355	0	32996	32800	36497	
3356	0	33224	32901	36505	
3357	0	33434	32892	36506	
3358	0	33269	32725	36487	
3359	0	33064	32849	36488	
3360	0	33088	32900	36452	
3361	0	32989	32858	36428	
3362	0	33161	32807	36426	
3363	0	33012	32772	36410	
3364	0	32824	32840	36384	
3365	0	32780	33157	36366	
3366	0	32752	32944	36341	
3367	0	32528	32804	36338	
3368	0	32617	32837	36304	
3369	0	32528	33033	36292	
3370	0	32328	32890	36244	
3371	0	32532	32813	36260	
3372	0	32493	32636	36236	
3373	0	32464	32702	36220	
3374	0	32512	32782	36220	
3375	0	32760	32880	36204	
3376	0	32832	32740	36172	
3377	0	32944	32820	36167	
3378	0	33070	32901	36176	
3379	0	33082	32680	36188	
3380	0	33189	32802	36188	
3381	0	33196	32658	36184	
3382	0	33112	32836	36156	
3383	0	32836	32926	36126	
3384	0	32661	32816	36125	
3385	0	32577	32978	36129	
3386	0	32588	32834	36112	
3387	0	32460	32990	36103	
3388	0	32708	32856	36116	
3389	0	32872	32958	36100	
3390	0	32708	32821	36110	
3391	0	32896	32832	36112	
3392	0	32500	32568	36105	
3393	0	32348	32471	36129	
3394	0	32352	32838	36128	
3395	0	32780	32812	36122	
3396	0	33569	32934	36118	
3397	0	33380	32808	36109	
3398	0	33056	32657	36102	
3399	0	32856	32904	36108	
3400	0	32848	32762	36140	
3401	0	32960	32896	36148	
3402	0	32932	33040	36128	
3403	0	32960	33020	36136	
3404	0	32870	32896	36156	
3405	0	32842	32984	36173	
3406	0	32768	32864	36213	
3407	0	32584	32840	36232	
3408	0	32536	32964	36241	
3409	0	32512	33197	36257	
3410	0	32276	32332	36285	
3411	0	32342	32580	36276	
3412	0	32449	32804	36288	
3413	0	32480	32681	36300	
3414	0	32676	32701	36316	
3415	0	32746	32626	36336	
3416	0	33301	32740	36354	
3417	0	33044	32885	36364	
3418	0	33012	32929	36376	
3419	0	33108	32932	36385	
3420	0	33228	32933	36388	
3421	0	33376	32960	36385	
3422	0	33472	32864	36400	
3423	0	32927	32824	36404	
3424	0	32412	32927	36420	
3425	0	32528	32741	36444	
3426	0	32696	32952	36455	
3427	0	32340	32732	36476	
3428	0	32560	32769	36480	
3429	0	32592	32808	36492	
3430	0	32474	32708	36520	
3431	0	32456	32788	36537	
3432	0	32572	32737	36530	
3433	0	32732	32881	36555	
3434	0	32778	32928	36580	
3435	0	32676	32927	36624	
3436	0	33069	32772	36658	
3437	0	32996	32887	36685	
3438	0	33008	33108	36704	
3439	0	33008	32861	36734	
3440	0	32992	32775	36769	
3441	0	32960	32760	36788	
3442	0	33048	32797	36783	
3443	0	33157	32790	36794	
3444	0	33008	32729	36808	
3445	0	33094	32582	36817	
3446	0	32892	32932	36804	
3447	0	32608	32932	36808	
3448	0	32372	33108	36800	
3449	0	32448	32894	36788	
3450	0	32416	32848	36769	
3451	0	32304	32784	36767	
3452	0	32354	32690	36760	
3453	0	32432	32768	36757	
3454	0	32504	32580	36756	
3455	0	32628	32553	36721	
3456	0	32888	32838	36704	
3457	0	33098	32652	36696	
3458	0	33206	33014	36688	
3459	0	33156	33049	36699	
3460	0	33212	32964	36686	
3461	0	33152	32992	36672	
3462	0	33036	32941	36648	
3463	0	33074	32864	36641	
3464	0	32936	32918	36652	
3465	0	32922	33020	36675	
3466	0	32664	33064	36640	
3467	0	31904	33006	36649	
3468	0	31884	33052	36674	
3469	0	32276	33024	36672	
3470	0	32588	32804	36660	
3471	0	32936	32732	36657	
3472	0	33364	32756	36624	
3473	0	33140	32810	36620	
3474	0	32585	32772	36604	
3475	0	32444	32731	36576	
3476	0	32760	32744	36544	
3477	0	32916	32725	36525	
3478	0	32932	32652	36519	
3479	0	32916	32748	36492	
3480	0	32842	32805	36465	
3481	0	33152	32993	36441	
3482	0	33252	32992	36410	
3483	0	33292	33119	36369	
3484	0	33261	33040	36359	
3485	0	33049	32831	36337	
3486	0	32885	32718	36329	
3487	0	32320	32768	36323	
3488	0	31564	32848	36300	
3489	0	31308	32879	36316	
3490	0	32388	32716	36300	
3491	0	33072	32775	36300	
3492	0	33189	33236	36280	
3493	0	32836	32880	36277	
3494	0	32598	32534	36273	
3495	0	32548	32360	36244	
3496	0	32660	32586	36239	
3497	0	32701	32828	36264	
3498	0	32996	33028	36288	
3499	0	33212	33152	36308	
3500	0	33404	33102	36316	
3501	0	33512	32748	36306	
3502	0	33236	32759	36304	
3503	0	33389	32896	36328	
3504	0	33058	32703	36332	
3505	0	32536	32780	36353	
3506	0	32724	32933	36336	
3507	0	33029	32950	36352	
3508	0	32706	32940	36345	
3509	0	32692	32984	36364	
3510	0	32624	32680	36397	
3511	0	32456	32676	36381	
3512	0	32064	32716	36376	
3513	0	31697	32668	36388	
3514	0	32112	32746	36409	
3515	0	32448	32824	36420	
3516	0	32668	32612	36422	
3517	0	33172	32841	36416	
3518	0	33282	32932	36428	
3519	0	32996	32876	36434	
3520	0	33124	32712	36452	
3521	0	33108	32714	36469	
3522	0	33152	32756	36453	
3523	0	33124	32897	36460	
3524	0	32984	32727	36485	
3525	0	32984	32992	36517	
3526	0	32936	32880	36520	
3527	0	32780	33024	36544	
3528	0	32689	32889	36545	
3529	0	32456	32902	36554	
3530	0	32438	32837	36562	
3531	0	32480	32789	36564	
3532	0	32492	32872	36536	
3533	0	32512	32832	36548	
3534	0	32472	32764	36540	
3535	0	32596	32768	36527	
3536	0	32784	32906	36502	
3537	0	32925	32920	36484	
3538	0	32993	33007	36468	
3539	0	33105	32926	36477	
3540	0	33064	32800	36436	
3541	0	33060	32708	36408	
3542	0	33044	32720	36386	
3543	0	32964	32836	36358	
3544	0	33009	32813	36353	
3545	0	32804	32479	36332	
3546	0	32705	32614	36324	
3547	0	32553	32743	36301	
3548	0	32460	32918	36276	
3549	0	32424	32885	36264	
3550	0	32437	32940	36260	
3551	0	32488	32873	36248	
3552	0	32677	32780	36228	
3553	0	33092	32784	36229	
3554	0	33192	32784	36215	
3555	0	32924	32878	36208	
3556	0	32969	32753	36208	
3557	0	32927	32888	36204	
3558	0	32677	33036	36196	
3559	0	32953	33148	36218	
3560	0	32884	32972	36228	
3561	0	32688	33060	36224	
3562	0	32928	32892	36214	
3563	0	33038	32834	36221	
3564	0	33114	32908	36214	
3565	0	33005	32985	36212	
3566	0	32746	33424	36241	
3567	0	32607	32396	36252	
3568	0	32648	32646	36252	
3569	0	32404	32920	36256	
3570	0	32240	33084	36288	
3571	0	32345	32839	36280	
3572	0	32512	32670	36277	
3573	0	32446	32773	36272	
3574	0	32716	32604	36280	
3575	0	32748	32775	36276	
3576	0	32920	32800	36280	
3577	0	32942	32692	36269	
3578	0	33124	32765	36276	
3579	0	33288	32873	36301	
3580	0	33412	32856	36312	
3581	0	33072	32705	36348	
3582	0	32782	33000	36364	
3583	0	32565	32799	36372	
3584	0	32736	32832	36424	
3585	0	32892	32824	36436	
3586	0	32764	32716	36448	
3587	0	32773	32758	36488	
3588	0	32853	33016	36528	
3589	0	32504	33040	36560	
3590	0	32398	32892	36600	
3591	0	32529	32676	36632	
3592	0	32412	32776	36664	
3593	0	32572	32728	36704	
3594	0	32552	32660	36744	
3595	0	32748	32774	36792	
3596	0	33040	32985	36852	
3597	0	33280	33161	36892	
3598	0	33534	32812	36912	
3599	0	33492	32848	36944	
3600	0	33178	32816	36968	
3601	0	32444	32620	36993	
3602	0	31985	32515	36996	
3603	0	32616	32770	36997	
3604	0	33464	32838	36991	
3605	0	33484	33046	36945	
3606	0	32916	32933	36956	
3607	0	32632	32852	36932	
3608	0	32560	32948	36964	
3609	0	32436	32834	36941	
3610	0	32076	32794	36936	
3611	0	31988	32772	36927	
3612	0	32218	32768	36917	
3613	0	32500	32871	36905	
3614	0	32752	32720	36924	
3615	0	33081	32705	36920	
3616	0	33232	32837	36919	
3617	0	33184	32758	36914	
3618	0	33032	32832	36935	
3619	0	33044	32978	36948	
3620	0	33054	32912	36943	
3621	0	33088	32912	36965	
3622	0	33088	32768	36956	
3623	0	32948	32913	36964	
3624	0	32913	32870	36965	
3625	0	32764	33080	36964	
3626	0	32740	32930	36980	
3627	0	32640	32932	36958	
3628	0	32708	33063	36937	
3629	0	32548	33014	36916	
3630	0	32460	32924	36892	
3631	0	32460	32866	36852	
3632	0	32492	32805	36824	
3633	0	32560	32725	36765	
3634	0	32596	32653	36712	
3635	0	32776	32513	36664	
3636	0	32705	32724	36620	
3637	0	32804	32865	36580	
3638	0	33084	32792	36509	
3639	0	33184	32956	36441	
3640	0	33112	32901	36380	
3641	0	33130	32958	36352	
3642	0	33096	32980	36310	
3643	0	32928	32770	36261	
3644	0	32852	32832	36224	
3645	0	32704	32860	36196	
3646	0	32580	32790	36162	
3647	0	32476	32693	36140	
3648	0	32225	32844	36141	
3649	0	32328	32886	36142	
3650	0	32421	32945	36132	
3651	0	32624	32770	36135	
3652	0	32554	33080	36116	
3653	0	32936	32596	36100	
3654	0	33116	32494	36089	
3655	0	33214	32556	36080	
3656	0	33396	32597	36081	
3657	0	32884	32781	36068	
3658	0	33021	32843	36052	
3659	0	33076	32824	36034	
3660	0	33092	32956	36040	
3661	0	33048	33013	36052	
3662	0	32864	32970	36064	
3663	0	32877	32808	36052	
3664	0	32813	33029	36064	
3665	0	32732	32920	36092	
3666	0	32576	32932	36088	
3667	0	32136	32964	36106	
3668	0	32278	32908	36118	
3669	0	32580	32928	36124	
3670	0	32417	32796	36129	
3671	0	32568	32524	36140	
3672	0	32560	32518	36165	
3673	0	32632	32742	36174	
3674	0	32846	32774	36180	
3675	0	32708	32820	36176	
3676	0	32908	32903	36188	
3677	0	32908	33078	36200	
3678	0	33054	32681	36228	
3679	0	33060	32768	36248	
3680	0	33120	32956	36288	
3681	0	33184	32804	36280	
3682	0	33100	32862	36304	
3683	0	32964	32863	36301	
3684	0	32796	32633	36316	
3685	0	32572	32914	36343	
3686	0	32580	32964	36388	
3687	0	32549	32736	36416	
3688	0	32668	32736	36450	
3689	0	32744	32756	36458	
3690	0	32820	32773	36484	
3691	0	32680	32940	36503	
3692	0	32488	32948	36508	
3693	0	32624	32788	36528	
3694	0	32748	32826	36540	
3695	0	32736	32901	36562	
3696	0	32748	32831	36560	
3697	0	32788	32836	36592	
3698	0	32928	32716	36588	
3699	0	33096	32796	36608	
3700	0	32918	32781	36597	
3701	0	33088	32798	36592	
3702	0	33072	33000	36621	
3703	0	32912	32876	36655	
3704	0	32872	32921	36648	
3705	0	32924	33008	36669	
3706	0	32864	32881	36676	
3707	0	32668	33004	36700	
3708	0	32580	33040	36716	
3709	0	32625	33220	36730	
3710	0	32653	32580	36728	
3711	0	32720	32605	36740	
3712	0	32644	32780	36743	
3713	0	32397	32790	36728	
3714	0	32464	32933	36728	
3715	0	32592	32946	36730	
3716	0	32736	32852	36721	
3717	0	32856	32884	36732	
3718	0	32924	32976	36730	
3719	0	33012	32978	36710	
3720	0	33132	32976	36700	
3721	0	33130	32996	36709	
3722	0	33078	32904	36716	
3723	0	33120	32848	36708	
3724	0	32978	32748	36680	
3725	0	32836	32652	36648	
3726	0	32884	32948	36640	
3727	0	32756	32904	36615	
3728	0	32684	32852	36596	
3729	0	32479	32956	36576	
3730	0	32384	32877	36570	
3731	0	32388	33012	36532	
3732	0	32184	33026	36500	
3733	0	32404	32501	36445	
3734	0	32532	32500	36424	
3735	0	32544	32596	36380	
3736	0	32796	32724	36341	
3737	0	32964	32524	36333	
3738	0	33224	32828	36319	
3739	0	32980	32908	36300	
3740	0	32983	32928	36266	
3741	0	33305	33093	36268	
3742	0	33224	33020	36252	
3743	0	32956	32976	36248	
3744	0	32812	32813	36244	
3745	0	32840	32646	36272	
3746	0	33080	32676	36244	
3747	0	32988	32857	36253	
3748	0	32926	32916	36232	
3749	0	32636	32950	36250	
3750	0	32368	32888	36256	
3751	0	32540	32825	36240	
3752	0	32548	32763	36228	
3753	0	32568	32560	36192	
3754	0	32772	32484	36200	
3755	0	32929	32501	36192	
3756	0	33114	32406	36185	
3757	0	32444	32756	36180	
3758	0	32062	32859	36168	
3759	0	32088	32788	36156	
3760	0	32800	32912	36160	
3761	0	33405	32778	36148	
3762	0	33441	32814	36143	
3763	0	33078	32892	36148	
3764	0	32570	32903	36152	
3765	0	32392	33056	36167	
3766	0	32524	33080	36166	
3767	0	32775	33152	36175	
3768	0	32901	32954	36192	
3769	0	33256	32876	36204	
3770	0	33088	32826	36213	
3771	0	32680	32864	36224	
3772	0	32688	32784	36220	
3773	0	32957	32960	36237	
3774	0	32568	33096	36272	
3775	0	32964	33188	36272	
3776	0	32900	33092	36280	
3777	0	32560	33170	36332	
3778	0	32672	32891	36344	
3779	0	32736	32681	36372	
3780	0	32992	32484	36407	
3781	0	33144	32496	36452	
3782	0	33024	32356	36498	
3783	0	33028	32436	36516	
3784	0	32904	32447	36533	
3785	0	32900	32828	36557	
3786	0	32724	32804	36589	
3787	0	32724	32951	36576	
3788	0	32581	33220	36588	
3789	0	32336	33052	36612	
3790	0	32376	32884	36612	
3791	0	32577	33039	36639	
3792	0	32528	32869	36656	
3793	0	32662	32980	36672	
3794	0	32736	32775	36688	
3795	0	32590	32884	36684	
3796	0	32630	32910	36668	
3797	0	32928	33012	36656	
3798	0	32956	32891	36666	
3799	0	32972	32800	36672	
3800	0	33072	32716	36660	
3801	0	33164	32720	36664	
3802	0	33284	32670	36652	
3803	0	33216	32740	36625	
3804	0	33032	32566	36654	
3805	0	32796	32700	36652	
3806	0	32724	32736	36653	
3807	0	32552	32840	36652	
3808	0	32525	32836	36648	
3809	0	32424	33076	36645	
3810	0	32437	32836	36632	
3811	0	32564	32872	36638	
3812	0	32452	32800	36652	
3813	0	32368	32852	36640	
3814	0	32536	32957	36636	
3815	0	32698	32930	36624	
3816	0	32780	32764	36624	
3817	0	32896	32752	36604	
3818	0	33176	32988	36604	
3819	0	33328	32812	36585	
3820	0	33148	32828	36564	
3821	0	32960	32832	36552	
3822	0	33113	32928	36533	
3823	0	33057	33064	36508	
3824	0	33012	33304	36517	
3825	0	32900	32365	36524	
3826	0	32824	32797	36536	
3827	0	32560	32749	36545	
3828	0	32484	32736	36546	
3829	0	32396	32944	36532	
3830	0	32212	33044	36557	
3831	0	32408	32790	36540	
3832	0	32384	32792	36511	
3833	0	32469	32684	36508	
3834	0	32776	32791	36505	
3835	0	32972	32667	36505	
3836	0	32952	32734	36485	
3837	0	33000	32573	36472	
3838	0	33216	32800	36468	
3839	0	33124	32984	36478	
3840	0	33041	33005	36445	
3841	0	33064	32884	36432	
3842	0	32984	32840	36432	
3843	0	32893	32901	36420	
3844	0	32644	32772	36424	
3845	0	32408	32936	36440	
3846	0	32516	32905	36408	
3847	0	32977	32750	36400	
3848	0	32983	32906	36404	
3849	0	33152	33006	36398	
3850	0	33132	32826	36388	
3851	0	32580	33103	36376	
3852	0	32256	33012	36359	
3853	0	32500	33040	36376	
3854	0	32588	32736	36376	
3855	0	32504	32780	36376	
3856	0	32396	32828	36368	
3857	0	32476	32775	36388	
3858	0	32804	32813	36372	
3859	0	32924	32585	36350	
3860	0	33022	32684	36356	
3861	0	33396	32865	36342	
3862	0	33286	32881	36332	
3863	0	33120	32821	36318	
3864	0	32942	32853	36314	
3865	0	32892	32772	36312	
3866	0	32732	32900	36317	
3867	0	32598	32980	36328	
3868	0	32700	32895	36348	
3869	0	32536	32940	36337	
3870	0	32452	32900	36348	
3871	0	32528	32782	36324	
3872	0	32456	32610	36316	
3873	0	32580	32688	36326	
3874	0	32676	32716	36336	
3875	0	32740	32769	36340	
3876	0	32782	32901	36337	
3877	0	32933	32831	36351	
3878	0	32956	32956	36359	
3879	0	33020	32768	36334	
3880	0	33134	32752	36340	
3881	0	33088	32748	36312	
3882	0	33040	32743	36322	
3883	0	33012	32833	36324	
3884	0	32869	32856	36324	
3885	0	32600	32936	36296	
3886	0	32640	32790	36312	
3887	0	32649	32844	36324	
3888	0	32704	32801	36328	
3889	0	32934	32676	36324	
3890	0	32876	32558	36351	
3891	0	32680	32673	36367	
3892	0	32441	32772	36380	
3893	0	32324	32972	36390	
3894	0	32461	32933	36368	
3895	0	32624	32808	36381	
3896	0	32784	32720	36400	
3897	0	32912	32744	36408	
3898	0	32984	32968	36412	
3899	0	33024	32887	36428	
3900	0	33044	32833	36424	
3901	0	33090	33006	36422	
3902	0	33106	33173	36428	
3903	0	33096	32856	36444	
3904	0	32992	32896	36452	
3905	0	32868	32802	36500	
3906	0	32856	32800	36513	
3907	0	32628	32976	36508	
3908	0	32484	33012	36518	
3909	0	32436	32996	36521	
3910	0	32440	33060	36556	
3911	0	32448	33372	36545	
3912	0	32432	32112	36540	
3913	0	32520	32634	36532	
3914	0	32648	32519	36528	
3915	0	32788	32784	36532	
3916	0	32884	32893	36544	
3917	0	32933	32975	36548	
3918	0	32992	32848	36544	
3919	0	33140	32784	36508	
3920	0	32996	32824	36521	
3921	0	33137	32927	36537	
3922	0	33172	32874	36528	
3923	0	32992	32918	36533	
3924	0	32968	32827	36526	
3925	0	32916	32953	36529	
3926	0	32816	32816	36540	
3927	0	32780	32740	36552	
3928	0	32764	32893	36576	
3929	0	32504	32804	36614	
3930	0	32316	32730	36644	
3931	0	32392	32799	36656	
3932	0	32472	32769	36678	
3933	0	32433	32932	36672	
3934	0	32548	32944	36691	
3935	0	32692	32869	36708	
3936	0	32632	32740	36718	
3937	0	32860	32701	36709	
3938	0	33128	33020	36696	
3939	0	33188	33212	36670	
3940	0	33284	32833	36680	
3941	0	33213	32796	36660	
3942	0	33189	32817	36628	
3943	0	32944	32968	36628	
3944	0	32824	32840	36624	
3945	0	32796	32848	36628	
3946	0	32769	32952	36612	
3947	0	32656	32585	36615	
3948	0	32517	32620	36628	
3949	0	32196	32740	36619	
3950	0	31813	32804	36617	
3951	0	32016	32665	36596	
3952	0	32116	32680	36585	
3953	0	32436	32796	36566	
3954	0	33360	32817	36596	
3955	0	33824	32764	36603	
3956	0	33562	32996	36604	
3957	0	33364	33031	36580	
3958	0	33208	32684	36558	
3959	0	32920	32714	36564	
3960	0	32704	32732	36553	
3961	0	32913	32792	36542	
3962	0	32804	32653	36520	
3963	0	32908	32697	36520	
3964	0	32942	32880	36514	
3965	0	32824	32800	36501	
3966	0	32566	32880	36513	
3967	0	32504	32748	36496	
3968	0	32418	32856	36493	
3969	0	32545	32828	36468	
3970	0	32636	32878	36448	
3971	0	32528	32804	36448	
3972	0	32788	32798	36441	
3973	0	32760	32984	36442	
3974	0	32536	32965	36412	
3975	0	32724	32897	36438	
3976	0	32928	33020	36404	
3977	0	32912	32924	36397	
3978	0	32988	32996	36384	
3979	0	33216	32948	36376	
3980	0	33480	32916	36384	
3981	0	33056	32927	36359	
3982	0	32369	33146	36364	
3983	0	32060	33056	36365	
3984	0	32568	33143	36369	
3985	0	32993	33040	36364	
3986	0	33248	32680	36352	
3987	0	32708	32526	36340	
3988	0	32665	32692	36352	
3989	0	32796	32864	36334	
3990	0	32485	32948	36354	
3991	0	32486	32801	36368	
3992	0	32388	32763	36344	
3993	0	32428	32652	36352	
3994	0	32612	32560	36356	
3995	0	32744	32702	36352	
3996	0	32936	32550	36376	
3997	0	33064	32556	36401	
3998	0	33100	32738	36428	
3999	0	33128	32805	36436	
4000	0	32932	32768	36460	
4001	0	32972	32932	36456	
4002	0	32880	33124	36484	
4003	0	32908	32516	36486	
4004	0	33128	32862	36532	
4005	0	33576	32964	36544	
4006	0	33020	32868	36552	
4007	0	32620	32736	36572	
4008	0	32478	32786	36568	
4009	0	32384	32781	36592	
4010	0	32200	32938	36600	
4011	0	32394	32857	36583	
4012	0	32488	33040	36572	
4013	0	32636	32977	36574	
4014	0	32624	32645	36581	
4015	0	32572	32812	36548	
4016	0	32772	32914	36558	
4017	0	32722	32845	36544	
4018	0	33124	32860	36512	
4019	0	33114	32729	36490	
4020	0	33120	32668	36484	
4021	0	33196	32588	36472	
4022	0	33176	32601	36481	
4023	0	33109	32833	36465	
4024	0	32985	32965	36447	
4025	0	32792	32930	36424	
4026	0	32824	32980	36425	
4027	0	32672	32911	36420	
4028	0	32621	33028	36416	
4029	0	32540	32945	36422	
4030	0	32424	32882	36424	
4031	0	32516	32944	36408	
4032	0	32424	32844	36384	
4033	0	32500	32705	36378	
4034	0	32633	32814	36394	
4035	0	32640	32677	36353	
4036	0	32764	32796	36332	
4037	0	32896	32836	36338	
4038	0	33121	32952	36332	
4039	0	33072	33062	36300	
4040	0	33090	32862	36285	
4041	0	33092	32717	36284	
4042	0	33052	32780	36280	
4043	0	32964	32774	36272	
4044	0	32870	32926	36261	
4045	0	32788	32828	36276	
4046	0	32772	32690	36260	
4047	0	32637	32854	36284	
4048	0	32620	32909	36284	
4049	0	32558	32862	36284	
4050	0	32508	32845	36278	
4051	0	32542	32764	36292	
4052	0	32469	32812	36308	
4053	0	32256	32992	36320	
4054	0	32048	32966	36324	
4055	0	32336	32772	36340	
4056	0	32676	32888	36352	
4057	0	32808	33042	36348	
4058	0	33344	33056	36345	
4059	0	33732	33040	36340	
4060	0	33592	33096	36341	
4061	0	33412	32992	36349	
4062	0	33377	32966	36376	
4063	0	33321	32741	36411	
4064	0	33001	32714	36429	
4065	0	32621	32729	36441	
4066	0	32612	32486	36428	
4067	0	32496	32480	36428	
4068	0	32488	32536	36437	
4069	0	32352	32600	36456	
4070	0	32364	32705	36504	
4071	0	32440	32872	36492	
4072	0	32484	33144	36496	
4073	0	32612	32684	36520	
4074	0	32624	32710	36516	
4075	0	32812	32808	36493	
4076	0	33088	32840	36486	
4077	0	33074	32905	36488	
4078	0	33100	33180	36497	
4079	0	33225	33094	36544	
4080	0	33262	32833	36552	
4081	0	32968	33236	36545	
4082	0	32368	32552	36566	
4083	0	32576	32516	36590	
4084	0	33036	32720	36597	
4085	0	33196	32909	36612	
4086	0	32785	32840	36620	
4087	0	32512	32968	36610	
4088	0	32501	32769	36605	
4089	0	32436	32652	36612	
4090	0	32436	32820	36610	
4091	0	32412	32964	36585	
4092	0	32381	32604	36568	
4093	0	32488	32740	36538	
4094	0	32601	32863	36492	
4095	0	32706	32852	36468	
4096	0	32768	32877	36440	
4097	0	32824	32775	36424	
4098	0	33016	32957	36396	
4099	0	33092	32720	36393	
4100	0	33304	32839	36388	
4101	0	33512	32826	36398	
4102	0	33389	32837	36390	
4103	0	33137	32929	36372	
4104	0	32820	32932	36399	
4105	0	32826	32861	36409	
4106	0	32660	32780	36401	
4107	0	32518	32790	36412	
4108	0	32480	32984	36432	
4109	0	32490	32990	36442	
4110	0	32420	33016	36452	
4111	0	32280	32959	36446	
4112	0	32357	32885	36420	
4113	0	32372	32800	36406	
4114	0	32612	32834	36398	
4115	0	32938	32765	36390	
4116	0	33302	32668	36384	
4117	0	33190	32780	36396	
4118	0	33014	32652	36384	
4119	0	33064	32681	36377	
4120	0	33105	32784	36368	
4121	0	33040	32646	36372	
4122	0	32948	32794	36388	
4123	0	32980	32796	36354	
4124	0	32952	32840	36373	
4125	0	32864	33024	36384	
4126	0	32800	32949	36368	
4127	0	32548	32992	36388	
4128	0	32444	33020	36420	
4129	0	32524	32894	36416	
4130	0	32352	32962	36424	
4131	0	32396	32928	36428	
4132	0	32332	32916	36404	
4133	0	32324	32942	36404	
4134	0	32533	32994	36420	
4135	0	32692	32878	36428	
4136	0	32848	32908	36424	
4137	0	33112	33088	36416	
4138	0	33062	32784	36445	
4139	0	33147	32896	36460	
4140	0	33056	32892	36488	
4141	0	33004	32392	36529	
4142	0	33060	32408	36572	
4143	0	33228	32512	36584	
4144	0	33261	32688	36614	
4145	0	33164	32799	36660	
4146	0	32992	33004	36685	
4147	0	32744	32956	36702	
4148	0	32616	32992	36711	
4149	0	32468	32998	36736	
4150	0	32310	32876	36756	
4151	0	32418	32773	36756	
4152	0	32440	32728	36716	
4153	0	32516	32799	36716	
4154	0	32578	33132	36672	
4155	0	32612	32708	36629	
4156	0	32752	32620	36615	
4157	0	32830	32794	36569	
4158	0	33034	33030	36528	
4159	0	33288	32890	36522	
4160	0	33112	32724	36466	
4161	0	32976	32748	36428	
4162	0	32972	32765	36412	
4163	0	33072	32836	36388	
4164	0	32948	32809	36392	
4165	0	32848	33042	36362	
4166	0	32728	32812	36373	
4167	0	32780	32852	36379	
4168	0	32785	33055	36388	
4169	0	32480	33004	36384	
4170	0	32444	32865	36384	
4171	0	32388	32784	36389	
4172	0	32264	32736	36408	
4173	0	32248	32698	36430	
4174	0	32484	32676	36420	
4175	0	32808	32765	36460	
4176	0	32952	32802	36437	
4177	0	33277	32770	36428	
4178	0	33248	33407	36444	
4179	0	33192	32878	36438	
4180	0	33252	32356	36440	
4181	0	33172	32621	36425	
4182	0	33228	32588	36441	
4183	0	33268	32584	36437	
4184	0	32682	32886	36437	
4185	0	31808	32784	36425	
4186	0	31788	32848	36422	
4187	0	32248	33063	36436	
4188	0	32605	32948	36424	
4189	0	33168	32886	36408	
4190	0	33128	32612	36420	
4191	0	32604	32672	36417	
4192	0	32564	32713	36390	
4193	0	32536	32640	36404	
4194	0	32668	32756	36394	
4195	0	32796	32868	36385	
4196	0	33168	32889	36385	
4197	0	32968	33156	36393	
4198	0	33010	33148	36400	
4199	0	33121	33068	36389	
4200	0	33100	32908	36386	
4201	0	32940	32721	36407	
4202	0	32921	32900	36460	
4203	0	33040	32974	36500	
4204	0	32820	32968	36517	
4205	0	32764	32998	36553	
4206	0	32920	33031	36568	
4207	0	32832	32829	36608	
4208	0	32678	32743	36632	
4209	0	32542	32710	36642	
4210	0	32404	32745	36672	
4211	0	32364	32692	36677	
4212	0	32416	32804	36676	
4213	0	32368	32826	36688	
4214	0	32256	32737	36706	
4215	0	32340	32769	36728	
4216	0	32758	32809	36709	
4217	0	32944	32825	36728	
4218	0	33176	32799	36740	
4219	0	33644	32737	36724	
4220	0	33688	32831	36724	
4221	0	33244	32753	36743	
4222	0	33130	32812	36729	
4223	0	32956	32868	36738	
4224	0	32849	32936	36716	
4225	0	32808	33012	36704	
4226	0	32668	32653	36688	
4227	0	32404	32734	36668	
4228	0	32552	32850	36656	
4229	0	32492	32956	36648	
4230	0	32452	32848	36628	
4231	0	32456	32732	36626	
4232	0	32480	32682	36592	
4233	0	32600	32754	36548	
4234	0	32578	32830	36532	
4235	0	32676	32708	36500	
4236	0	32801	32841	36468	
4237	0	32744	32877	36420	
4238	0	32820	32904	36384	
4239	0	33048	32976	36342	
4240	0	33158	32954	36329	
4241	0	33128	32996	36280	
4242	0	33480	32846	36233	
4243	0	33439	32716	36220	
4244	0	32965	32660	36188	
4245	0	32780	32856	36144	
4246	0	32650	32904	36134	
4247	0	32616	32912	36132	
4248	0	32572	33245	36142	
4249	0	32412	33008	36114	
4250	0	32212	32732	36110	
4251	0	32304	32898	36084	
4252	0	32440	32940	36066	
4253	0	32576	33016	36062	
4254	0	32720	32863	36052	
4255	0	32972	32848	36060	
4256	0	32908	32924	36044	
4257	0	32841	32641	36048	
4258	0	32854	32512	36024	
4259	0	33000	32693	36009	
4260	0	33100	32584	35999	
4261	0	33068	32613	36000	
4262	0	33109	32612	35988	
4263	0	33104	32652	36006	
4264	0	33106	32821	36020	
4265	0	32821	32910	36040	
4266	0	32800	33031	36030	
4267	0	32628	33016	36056	
4268	0	32501	32964	36093	
4269	0	32444	33136	36133	
4270	0	32412	32960	36136	
4271	0	32434	32881	36160	
4272	0	32465	32780	36176	
4273	0	32572	32852	36184	
4274	0	32756	32972	36234	
4275	0	32832	32824	36244	
4276	0	32824	33036	36268	
4277	0	32944	32853	36280	
4278	0	32781	32822	36288	
4279	0	32968	32780	36304	
4280	0	33228	32988	36305	
4281	0	33164	32704	36320	
4282	0	33056	32717	36328	
4283	0	33120	32644	36336	
4284	0	33004	32590	36340	
4285	0	32960	33204	36388	
4286	0	32840	32705	36416	
4287	0	32572	32693	36427	
4288	0	32534	32964	36445	
4289	0	32496	32936	36458	
4290	0	32364	32933	36454	
4291	0	32404	32976	36472	
4292	0	32573	33001	36476	
4293	0	32544	32837	36494	
4294	0	32722	32704	36485	
4295	0	32704	32684	36496	
4296	0	32844	32704	36480	
4297	0	32615	32940	36487	
4298	0	32764	32724	36504	
4299	0	33086	32830	36520	
4300	0	33156	32750	36532	
4301	0	33412	32948	36536	
4302	0	33572	32788	36540	
4303	0	33354	32536	36571	
4304	0	32920	32900	36561	
4305	0	32644	33129	36580	
4306	0	32292	32856	36600	
4307	0	31752	32876	36604	
4308	0	32124	32904	36608	
4309	0	32537	32636	36622	
4310	0	32624	32760	36648	
4311	0	32860	32781	36645	
4312	0	33336	32608	36650	
4313	0	33284	32545	36646	
4314	0	32880	32887	36638	
4315	0	32502	33080	36640	
4316	0	32476	33208	36656	
4317	0	32760	32960	36677	
4318	0	33080	33260	36693	
4319	0	33106	33184	36684	
4320	0	33124	32708	36693	
4321	0	33036	32326	36688	
4322	0	33036	32348	36663	
4323	0	32912	32276	36639	
4324	0	32856	32592	36631	
4325	0	32853	32864	36669	
4326	0	32808	32996	36666	
4327	0	32631	32940	36648	
4328	0	32557	32889	36632	
4329	0	32532	32868	36608	
4330	0	32444	33094	36607	
4331	0	32444	32872	36572	
4332	0	32361	32908	36528	
4333	0	32457	32990	36517	
4334	0	32596	32948	36496	
4335	0	32680	33039	36476	
4336	0	32762	33014	36463	
4337	0	32961	32852	36449	
4338	0	33034	32869	36428	
4339	0	33092	32830	36416	
4340	0	33156	32872	36401	
4341	0	33168	32852	36385	
4342	0	33192	32868	36380	
4343	0	33252	32846	36388	
4344	0	33056	32821	36400	
4345	0	32900	32825	36390	
4346	0	32784	32764	36400	
4347	0	32484	32740	36413	
4348	0	32428	32826	36436	
4349	0	32540	32895	36436	
4350	0	32556	32853	36436	
4351	0	32524	32856	36436	
4352	0	32489	32681	36428	
4353	0	32524	32660	36424	
4354	0	32437	32660	36432	
4355	0	32420	32776	36417	
4356	0	32702	32810	36400	
4357	0	32864	32905	36404	
4358	0	33057	32870	36412	
4359	0	33397	32858	36404	
4360	0	33548	32729	36384	
4361	0	33072	32617	36350	
4362	0	33092	32549	36359	
4363	0	33068	32889	36340	
4364	0	32928	32806	36313	
4365	0	32820	32828	36324	
4366	0	32720	32844	36316	
4367	0	32552	32862	36312	
4368	0	32548	33015	36308	
4369	0	32404	32997	36300	
4370	0	32492	32990	36320	
4371	0	32712	32733	36327	
4372	0	32381	33085	36304	
4373	0	32400	33320	36298	
4374	0	32408	32584	36308	
4375	0	32536	32632	36324	
4376	0	32716	32860	36337	
4377	0	33060	32780	36348	
4378	0	33156	32888	36359	
4379	0	33188	32982	36396	
4380	0	33216	32952	36404	
4381	0	33152	32975	36440	
4382	0	33200	32896	36461	
4383	0	32996	32736	36473	
4384	0	32864	32760	36504	
4385	0	32696	32855	36524	
4386	0	32624	32775	36538	
4387	0	32536	32616	36552	
4388	0	32562	32726	36580	
4389	0	32548	32918	36608	
4390	0	32529	32974	36616	
4391	0	32661	32796	36616	
4392	0	32572	32748	36640	
4393	0	32540	32833	36636	
4394	0	32424	32804	36629	
4395	0	32552	32888	36634	
4396	0	32672	32953	36615	
4397	0	32840	32856	36573	
4398	0	32980	32822	36573	
4399	0	33410	32752	36573	
4400	0	33745	32652	36553	
4401	0	33372	32692	36564	
4402	0	33071	32879	36574	
4403	0	32828	32780	36558	
4404	0	32696	32750	36552	
4405	0	32556	32852	36541	
4406	0	32620	33043	36532	
4407	0	32516	32959	36522	
4408	0	32616	32845	36536	
4409	0	32809	32876	36536	
4410	0	32366	32812	36557	
4411	0	32501	32775	36544	
4412	0	32465	32917	36520	
4413	0	32540	32544	36542	
4414	0	32720	32775	36524	
4415	0	32764	32844	36526	
4416	0	32796	32950	36513	
4417	0	32851	32928	36509	
4418	0	33148	33024	36484	
4419	0	33316	32936	36464	
4420	0	32722	33149	36464	
4421	0	33080	33061	36472	
4422	0	33528	32728	36452	
4423	0	33162	32916	36422	
4424	0	32498	33022	36420	
4425	0	32496	32868	36389	
4426	0	32527	32752	36399	
4427	0	32884	32676	36385	
4428	0	33276	32700	36385	
4429	0	32660	32752	36376	
4430	0	32184	32784	36359	
4431	0	32390	32729	36348	
4432	0	32400	32607	36332	
4433	0	32490	32600	36317	
4434	0	32484	32745	36294	
4435	0	32654	33228	36277	
4436	0	32752	32576	36236	
4437	0	32920	32768	36224	
4438	0	33256	32680	36198	
4439	0	33192	32756	36188	
4440	0	33116	32789	36172	
4441	0	32996	32870	36178	
4442	0	33020	32976	36164	
4443	0	33028	33064	36172	
4444	0	32900	32956	36165	
4445	0	32904	33104	36160	
4446	0	33008	32908	36166	
4447	0	32896	32920	36216	
4448	0	32589	32876	36208	
4449	0	32456	32988	36212	
4450	0	32120	32676	36230	
4451	0	31964	32705	36236	
4452	0	32273	32817	36221	
4453	0	32444	32716	36224	
4454	0	32648	32743	36239	
4455	0	32860	32836	36252	
4456	0	33064	32871	36253	
4457	0	33116	32940	36256	
4458	0	33152	33040	36252	
4459	0	33108	32796	36292	
4460	0	33152	32933	36296	
4461	0	33085	32700	36301	
4462	0	33088	32663	36314	
4463	0	33092	32918	36325	
4464	0	33016	32165	36302	
4465	0	32790	32766	36292	
4466	0	32698	32888	36318	
4467	0	32504	32971	36328	
4468	0	32464	32988	36342	
4469	0	32516	33020	36348	
4470	0	32448	32816	36381	
4471	0	32392	33004	36391	
4472	0	32437	32864	36396	
4473	0	32576	32581	36412	
4474	0	32672	32688	36444	
4475	0	32872	32848	36476	
4476	0	32752	33058	36464	
4477	0	32784	32908	36490	
4478	0	32844	32764	36500	
4479	0	33100	32911	36516	
4480	0	33324	32926	36534	
4481	0	33161	32912	36558	
4482	0	32986	32876	36576	
4483	0	32892	32692	36545	
4484	0	32992	32850	36548	
4485	0	33032	32741	36577	
4486	0	33093	32775	36588	
4487	0	32812	32648	36626	
4488	0	32428	32845	36612	
4489	0	32380	33046	36652	
4490	0	32276	32966	36646	
4491	0	32348	32852	36636	
4492	0	32524	32988	36646	
4493	0	32536	32740	36649	
4494	0	32541	32836	36644	
4495	0	32689	32813	36602	
4496	0	32812	32677	36616	
4497	0	32888	32791	36626	
4498	0	33036	32732	36612	
4499	0	33112	32780	36584	
4500	0	33036	32685	36577	
4501	0	33092	32864	36569	
4502	0	32992	32794	36560	
4503	0	32960	32868	36544	
4504	0	32928	33101	36572	
4505	0	32992	32943	36556	
4506	0	32960	32996	36565	
4507	0	32604	32908	36544	
4508	0	32630	32717	36540	
4509	0	32584	32612	36537	
4510	0	32600	32692	36534	
4511	0	32404	32609	36541	
4512	0	32444	32465	36532	
4513	0	32376	32572	36524	
4514	0	32493	32618	36510	
4515	0	32696	32844	36487	
4516	0	32924	32851	36470	
4517	0	33085	32904	36473	
4518	0	33022	33020	36492	
4519	0	33052	33096	36457	
4520	0	32784	33269	36463	
4521	0	32580	32988	36444	
4522	0	32864	32750	36424	
4523	0	33112	32752	36423	
4524	0	33149	32862	36397	
4525	0	33188	32872	36420	
4526	0	33273	33025	36402	
4527	0	32896	32819	36384	
4528	0	32677	32958	36375	
4529	0	32304	32716	36352	
4530	0	32314	32848	36334	
4531	0	32477	32960	36336	
4532	0	32400	32736	36308	
4533	0	32484	32621	36292	
4534	0	32552	32724	36294	
4535	0	32696	32758	36296	
4536	0	32950	32796	36308	
4537	0	32776	32708	36300	
4538	0	32874	32792	36310	
4539	0	33152	32792	36321	
4540	0	33306	33100	36320	
4541	0	33244	32946	36317	
4542	0	33048	32896	36316	
4543	0	32984	32764	36324	
4544	0	32948	32810	36309	
4545	0	32913	32780	36316	
4546	0	32744	32788	36344	
4547	0	32692	32972	36393	
4548	0	32476	33230	36392	
4549	0	32320	32750	36432	
4550	0	32451	32834	36432	
4551	0	32496	32860	36452	
4552	0	32660	32804	36466	
4553	0	32769	32920	36453	
4554	0	32576	32853	36476	
4555	0	32560	32756	36479	
4556	0	32724	32833	36508	
4557	0	32900	32743	36516	
4558	0	32996	32727	36528	
4559	0	33132	32828	36517	
4560	0	33096	32977	36550	
4561	0	33028	32968	36568	
4562	0	33061	32906	36552	
4563	0	32946	32664	36534	
4564	0	32648	32676	36552	
4565	0	32540	32724	36548	
4566	0	32638	32888	36528	
4567	0	32736	32962	36521	
4568	0	32900	32908	36518	
4569	0	32932	33008	36532	
4570	0	32832	32856	36525	
4571	0	32584	32687	36550	
4572	0	32516	32728	36558	
4573	0	32668	32660	36533	
4574	0	32559	32721	36548	
4575	0	32503	32740	36564	
4576	0	32613	32898	36541	
4577	0	32740	32932	36526	
4578	0	32896	32752	36520	
4579	0	33060	32756	36517	
4580	0	33104	32924	36511	
4581	0	33058	32636	36511	
4582	0	33112	32720	36508	
4583	0	33125	32888	36509	
4584	0	32968	32775	36524	
4585	0	32844	32744	36528	
4586	0	32796	33062	36516	
4587	0	32612	32836	36504	
4588	0	32460	33022	36509	
4589	0	32472	32954	36508	
4590	0	32448	33002	36516	
4591	0	32384	33052	36492	
4592	0	32544	32840	36472	
4593	0	32700	32897	36492	
4594	0	32729	32952	36476	
4595	0	32964	32993	36481	
4596	0	32996	32879	36478	
4597	0	32992	32697	36448	
4598	0	33032	32576	36429	
4599	0	33060	32621	36420	
4600	0	33001	32688	36423	
4601	0	33008	32660	36408	
4602	0	32892	32712	36400	
4603	0	32954	32856	36388	
4604	0	33050	32836	36404	
4605	0	32960	32734	36384	
4606	0	32824	32744	36385	
4607	0	32720	32792	36384	
4608	0	32564	32921	36373	
4609	0	32569	32993	36381	
4610	0	32476	32976	36380	
4611	0	32372	33014	36388	
4612	0	32288	32888	36388	
4613	0	32512	32853	36380	
4614	0	32576	32820	36362	
4615	0	32700	32800	36369	
4616	0	32802	32756	36404	
4617	0	32833	32837	36424	
4618	0	33024	32859	36416	
4619	0	33004	32959	36426	
4620	0	33064	32912	36436	
4621	0	33132	32975	36428	
4622	0	33108	32928	36428	
4623	0	33285	32632	36420	
4624	0	33100	32724	36425	
4625	0	32948	32809	36416	
4626	0	32704	33015	36412	
4627	0	32620	32793	36408	
4628	0	32484	32864	36404	
4629	0	32446	32846	36400	
4630	0	32364	32902	36381	
4631	0	32040	32836	36372	
4632	0	32158	32852	36352	
