# OpenSignals Text File Format
# {"00:07:80:4D:2E:AD": {"sensor": ["EMG", "EMG", "XYZ"], "device name": "00:07:80:4D:2E:AD", "column": ["nSeq", "DI", "CH1", "CH2", "CH3"], "sync interval": 2, "time": "15:32:12.392", "comments": "paper | ch1_flexor_digitorum_superficialis ch2_aductor_policis ch3_acc_z [trial 3]", "device connection": "BTH00:07:80:4D:2E:AD", "channels": [1, 2, 3], "keywords": "", "mode": 0, "digital IO": [0, 1], "firmware version": 773, "device": "biosignalsplux", "position": 0, "sampling rate": 1000, "label": ["CH1", "CH2", "CH3"], "resolution": [16, 16, 16], "date": "2019-1-23", "special": [{}, {}, {}]}}
# EndOfHeader
0	0	32940	32772	36273	
1	0	32896	32840	36288	
2	0	32856	32984	36312	
3	0	32812	32916	36300	
4	0	32736	32943	36296	
5	0	32704	32972	36305	
6	0	32724	32890	36300	
7	0	32612	33028	36292	
8	0	32632	32868	36293	
9	0	32617	32797	36300	
10	0	32640	32877	36297	
11	0	32704	32806	36288	
12	0	32714	32760	36294	
13	0	32740	32806	36279	
14	0	32844	32764	36276	
15	0	32864	32794	36248	
16	0	32900	32756	36260	
17	0	32920	32792	36266	
18	0	32908	32790	36252	
19	0	32921	32738	36236	
20	0	32940	32903	36253	
21	0	32885	32761	36252	
22	0	32822	32848	36252	
23	0	32821	32909	36256	
24	0	32718	32842	36245	
25	0	32708	32921	36256	
26	0	32744	32960	36261	
27	0	32648	32902	36276	
28	0	32624	32929	36280	
29	0	32616	32941	36260	
30	0	32732	32801	36252	
31	0	32704	32868	36241	
32	0	32716	32775	36252	
33	0	32797	32796	36216	
34	0	32793	32801	36228	
35	0	32852	32740	36224	
36	0	32868	32801	36244	
37	0	32840	32844	36228	
38	0	32794	32746	36253	
39	0	32940	32732	36247	
40	0	32988	32704	36244	
41	0	32924	32700	36237	
42	0	32820	32801	36257	
43	0	32840	32892	36244	
44	0	32800	32806	36248	
45	0	32680	32978	36256	
46	0	32708	32997	36285	
47	0	32601	32885	36295	
48	0	32688	32856	36300	
49	0	32588	32868	36280	
50	0	32692	32800	36284	
51	0	32636	32812	36285	
52	0	32656	32792	36281	
53	0	32788	32764	36264	
54	0	32844	32764	36272	
55	0	32812	32737	36236	
56	0	32902	32793	36248	
57	0	32960	32800	36248	
58	0	33022	32694	36261	
59	0	32956	32769	36244	
60	0	32968	32728	36240	
61	0	32824	32765	36254	
62	0	32864	32900	36246	
63	0	32816	32820	36248	
64	0	32756	32903	36242	
65	0	32720	33004	36277	
66	0	32640	32895	36292	
67	0	32636	32920	36308	
68	0	32592	32926	36312	
69	0	32676	32838	36290	
70	0	32703	32852	36281	
71	0	32728	32844	36264	
72	0	32772	32844	36268	
73	0	32768	32820	36268	
74	0	32920	32709	36268	
75	0	32900	32816	36282	
76	0	32888	32828	36265	
77	0	32864	32795	36276	
78	0	32800	32740	36269	
79	0	32664	32796	36278	
80	0	32733	32732	36278	
81	0	33028	32793	36280	
82	0	33040	32890	36284	
83	0	32885	32910	36308	
84	0	32748	32889	36312	
85	0	32572	32961	36300	
86	0	32612	32906	36300	
87	0	32594	32988	36300	
88	0	32564	32801	36292	
89	0	32648	32876	36279	
90	0	32628	32824	36282	
91	0	32840	32759	36307	
92	0	32885	32789	36284	
93	0	32820	32775	36284	
94	0	32824	32660	36268	
95	0	32808	32785	36264	
96	0	32880	32744	36264	
97	0	32896	32844	36239	
98	0	32840	32729	36236	
99	0	32914	32775	36224	
100	0	32828	32789	36252	
101	0	32858	32802	36256	
102	0	32764	32940	36280	
103	0	32960	32864	36292	
104	0	33208	32900	36289	
105	0	32816	32938	36286	
106	0	32561	33061	36309	
107	0	32580	32864	36300	
108	0	32566	32878	36292	
109	0	32613	32905	36312	
110	0	32605	32788	36317	
111	0	32712	32894	36288	
112	0	32692	32664	36300	
113	0	32768	32708	36320	
114	0	32820	32824	36324	
115	0	32836	32824	36332	
116	0	32825	32716	36322	
117	0	32930	32855	36298	
118	0	33002	32784	36288	
119	0	33036	32730	36288	
120	0	33000	32748	36264	
121	0	32968	32890	36268	
122	0	32860	32908	36277	
123	0	32841	32908	36288	
124	0	32773	32842	36293	
125	0	32396	32933	36284	
126	0	32536	32908	36316	
127	0	32664	32800	36284	
128	0	32685	32910	36264	
129	0	32644	32860	36264	
130	0	32644	32855	36266	
131	0	32692	32809	36275	
132	0	32742	32804	36256	
133	0	32822	32801	36255	
134	0	32808	32800	36249	
135	0	32881	32775	36246	
136	0	32917	32768	36253	
137	0	32968	32772	36254	
138	0	32988	32826	36252	
139	0	32940	32770	36220	
140	0	32968	32726	36220	
141	0	32900	32804	36244	
142	0	32848	32846	36244	
143	0	32840	32928	36248	
144	0	32720	32864	36253	
145	0	32700	32929	36266	
146	0	32652	32940	36282	
147	0	32616	32957	36258	
148	0	32636	32956	36249	
149	0	32628	32804	36264	
150	0	32612	32780	36255	
151	0	32728	32796	36264	
152	0	32744	32775	36249	
153	0	32728	32708	36262	
154	0	32800	32817	36262	
155	0	32833	32660	36260	
156	0	32989	32737	36280	
157	0	32929	32816	36267	
158	0	32908	32716	36269	
159	0	32912	32768	36261	
160	0	32908	32804	36268	
161	0	32844	32858	36244	
162	0	32836	32841	36240	
163	0	32728	32916	36222	
164	0	32762	33010	36237	
165	0	32732	32982	36258	
166	0	32716	32902	36252	
167	0	32684	33016	36262	
168	0	32620	32894	36274	
169	0	32600	32844	36272	
170	0	32648	32816	36285	
171	0	32692	32717	36260	
172	0	32708	32852	36262	
173	0	32760	32724	36260	
174	0	32752	32768	36241	
175	0	32840	32732	36253	
176	0	32936	32714	36252	
177	0	32976	32742	36236	
178	0	32921	32790	36232	
179	0	32916	32765	36254	
180	0	32964	32840	36256	
181	0	32976	32801	36249	
182	0	32878	32872	36264	
183	0	32736	32917	36272	
184	0	32648	32924	36287	
185	0	32684	32918	36294	
186	0	32656	33001	36277	
187	0	32648	32961	36278	
188	0	32672	32856	36280	
189	0	32652	32857	36272	
190	0	32669	32833	36292	
191	0	32673	32808	36300	
192	0	32752	32800	36304	
193	0	32804	32765	36306	
194	0	32728	32748	36308	
195	0	32708	32660	36313	
196	0	32692	32664	36292	
197	0	33024	32762	36300	
198	0	33016	32728	36306	
199	0	32912	32796	36318	
200	0	32990	32820	36308	
201	0	32876	32756	36288	
202	0	32888	32856	36268	
203	0	32780	32960	36272	
204	0	32760	32856	36272	
205	0	32730	32972	36284	
206	0	32736	32994	36269	
207	0	32620	32932	36264	
208	0	32610	32884	36295	
209	0	32596	32904	36273	
210	0	32640	32892	36253	
211	0	32578	32807	36272	
212	0	32576	32812	36272	
213	0	32736	32687	36276	
214	0	32772	32716	36265	
215	0	33048	32662	36252	
216	0	32804	32676	36240	
217	0	33060	32740	36241	
218	0	33444	32705	36220	
219	0	33048	32805	36236	
220	0	32836	32876	36240	
221	0	32836	32796	36231	
222	0	32845	32940	36246	
223	0	32762	32921	36264	
224	0	32684	32848	36284	
225	0	32678	32950	36300	
226	0	32648	33048	36296	
227	0	32597	33025	36268	
228	0	32572	32935	36272	
229	0	32644	32902	36268	
230	0	32644	32816	36300	
231	0	32690	32862	36296	
232	0	32689	32864	36287	
233	0	32791	32768	36256	
234	0	32752	32824	36268	
235	0	32804	32838	36262	
236	0	32936	32768	36257	
237	0	32996	32661	36248	
238	0	33016	32695	36234	
239	0	32948	32718	36253	
240	0	32920	32685	36248	
241	0	32858	32772	36240	
242	0	32890	32916	36252	
243	0	32873	32841	36279	
244	0	32713	32966	36293	
245	0	32716	32833	36290	
246	0	32669	32940	36307	
247	0	32644	33021	36297	
248	0	32628	32935	36301	
249	0	32608	32876	36307	
250	0	32640	32873	36284	
251	0	32668	32853	36277	
252	0	32764	32752	36272	
253	0	32814	32672	36274	
254	0	32840	32838	36272	
255	0	32909	32709	36280	
256	0	32904	32821	36274	
257	0	32856	32789	36273	
258	0	32848	32748	36273	
259	0	32900	32819	36288	
260	0	32946	32868	36297	
261	0	32852	32846	36280	
262	0	32864	32925	36268	
263	0	32824	32824	36284	
264	0	32714	32830	36284	
265	0	32780	32949	36304	
266	0	32616	32961	36302	
267	0	32617	32884	36305	
268	0	32620	32928	36312	
269	0	32625	32828	36309	
270	0	32709	32768	36300	
271	0	32704	32906	36300	
272	0	32744	32806	36284	
273	0	32741	32812	36291	
274	0	32852	32792	36286	
275	0	32909	32712	36276	
276	0	32868	32805	36278	
277	0	32932	32877	36253	
278	0	33016	32712	36248	
279	0	32904	32780	36245	
280	0	32916	32754	36231	
281	0	32922	32768	36247	
282	0	32880	32888	36260	
283	0	32829	32818	36257	
284	0	32804	32865	36260	
285	0	32720	32965	36272	
286	0	32656	32988	36284	
287	0	32624	32852	36277	
288	0	32620	32880	36288	
289	0	32654	32792	36290	
290	0	32602	32737	36292	
291	0	32716	32765	36288	
292	0	32724	32836	36295	
293	0	32712	32932	36298	
294	0	32814	32812	36294	
295	0	32792	32800	36283	
296	0	32968	32864	36268	
297	0	32952	32658	36268	
298	0	32937	32752	36273	
299	0	32996	32811	36272	
300	0	32894	32641	36280	
301	0	32845	32692	36272	
302	0	32852	32741	36273	
303	0	32781	32864	36300	
304	0	32724	32937	36285	
305	0	32700	32924	36281	
306	0	32708	32962	36292	
307	0	32608	33012	36308	
308	0	32644	32932	36306	
309	0	32692	32841	36289	
310	0	32676	32852	36295	
311	0	32624	32868	36292	
312	0	32684	32668	36297	
313	0	32793	32716	36293	
314	0	32792	32830	36280	
315	0	32916	32786	36256	
316	0	32901	32756	36257	
317	0	32952	32775	36237	
318	0	32908	32806	36249	
319	0	32940	32738	36258	
320	0	33008	32812	36257	
321	0	32876	32833	36260	
322	0	32732	32887	36267	
323	0	32734	32854	36277	
324	0	32599	32968	36253	
325	0	32588	32846	36252	
326	0	32844	32986	36240	
327	0	32713	32944	36260	
328	0	32700	32905	36273	
329	0	32684	32834	36257	
330	0	32704	32808	36240	
331	0	32630	32860	36257	
332	0	32738	32912	36261	
333	0	32749	32712	36268	
334	0	32916	32743	36270	
335	0	32884	32713	36260	
336	0	32976	32775	36244	
337	0	32952	32709	36244	
338	0	32909	32728	36234	
339	0	32880	32789	36232	
340	0	32908	32752	36252	
341	0	32892	32812	36260	
342	0	32836	32854	36280	
343	0	32822	32884	36276	
344	0	32686	32944	36258	
345	0	32696	32974	36254	
346	0	32670	32876	36264	
347	0	32564	32930	36236	
348	0	32518	32916	36244	
349	0	32536	32806	36262	
350	0	32621	32836	36268	
351	0	32744	32804	36264	
352	0	32751	32844	36264	
353	0	32816	32736	36276	
354	0	32876	32772	36256	
355	0	32888	32772	36260	
356	0	32917	32748	36274	
357	0	32936	32720	36269	
358	0	33008	32775	36268	
359	0	32920	32828	36234	
360	0	32904	32720	36230	
361	0	32900	32884	36212	
362	0	32841	32885	36256	
363	0	32768	32893	36280	
364	0	32676	32934	36280	
365	0	32684	32958	36278	
366	0	32700	32912	36286	
367	0	32668	33010	36298	
368	0	32616	32916	36312	
369	0	32748	32836	36304	
370	0	32700	32816	36305	
371	0	32712	32790	36308	
372	0	32732	32758	36326	
373	0	32764	32844	36309	
374	0	32765	32842	36306	
375	0	32876	32700	36285	
376	0	32878	32828	36288	
377	0	32918	32801	36292	
378	0	32921	32726	36278	
379	0	32925	32740	36256	
380	0	32952	32788	36248	
381	0	32992	32775	36258	
382	0	32860	32803	36292	
383	0	32820	33016	36295	
384	0	32680	32932	36292	
385	0	32682	33056	36296	
386	0	32700	33112	36320	
387	0	32568	32926	36306	
388	0	32560	32912	36303	
389	0	32612	32788	36296	
390	0	32628	32796	36316	
391	0	32704	32862	36287	
392	0	32676	32798	36268	
393	0	32742	32660	36269	
394	0	32836	32752	36264	
395	0	32824	32742	36254	
396	0	32860	32724	36248	
397	0	32960	32781	36231	
398	0	32960	32728	36231	
399	0	32958	32790	36216	
400	0	32976	32852	36228	
401	0	32924	32932	36252	
402	0	32936	33049	36256	
403	0	32904	32988	36282	
404	0	32744	33056	36280	
405	0	32681	32844	36272	
406	0	32729	32837	36286	
407	0	32632	32872	36276	
408	0	32608	32767	36280	
409	0	32669	32641	36288	
410	0	32640	32581	36277	
411	0	32612	32598	36276	
412	0	32601	32783	36284	
413	0	32628	32774	36281	
414	0	32769	32797	36304	
415	0	32820	32799	36288	
416	0	32936	32786	36281	
417	0	32892	32800	36252	
418	0	33154	32852	36246	
419	0	33516	32796	36244	
420	0	33017	32804	36230	
421	0	32884	32806	36232	
422	0	32748	32881	36244	
423	0	32708	32950	36248	
424	0	32579	32976	36256	
425	0	32512	32980	36284	
426	0	32433	32970	36281	
427	0	32672	32984	36284	
428	0	32712	32941	36288	
429	0	32712	32914	36292	
430	0	32652	32820	36288	
431	0	32656	32852	36287	
432	0	32765	32815	36290	
433	0	32804	32784	36293	
434	0	32838	32785	36292	
435	0	32837	32656	36280	
436	0	32872	32716	36260	
437	0	32968	32787	36268	
438	0	32917	32665	36272	
439	0	32889	32728	36276	
440	0	32921	32729	36273	
441	0	32856	32797	36264	
442	0	32920	32864	36269	
443	0	32864	32953	36252	
444	0	32804	32928	36286	
445	0	32743	32842	36268	
446	0	32728	32992	36266	
447	0	32644	32982	36268	
448	0	32624	32896	36288	
449	0	32606	32901	36280	
450	0	32661	32816	36271	
451	0	32684	32734	36236	
452	0	32728	32816	36220	
453	0	32732	32719	36216	
454	0	32808	32737	36218	
455	0	32846	32750	36231	
456	0	32886	32741	36244	
457	0	32940	32790	36260	
458	0	32808	32899	36258	
459	0	32982	32895	36260	
460	0	32984	32919	36258	
461	0	32886	32932	36240	
462	0	32932	32993	36256	
463	0	32780	32890	36260	
464	0	32662	32752	36264	
465	0	32670	32845	36264	
466	0	32592	32936	36268	
467	0	32548	32816	36256	
468	0	32720	32672	36270	
469	0	32743	32725	36249	
470	0	32704	32860	36260	
471	0	32752	32800	36276	
472	0	32660	32676	36280	
473	0	32696	32793	36284	
474	0	32790	32664	36293	
475	0	32908	32688	36290	
476	0	32905	32900	36292	
477	0	32984	32800	36290	
478	0	33016	32784	36252	
479	0	32924	32752	36234	
480	0	32956	32768	36239	
481	0	32944	32799	36225	
482	0	32916	32860	36231	
483	0	32836	32896	36260	
484	0	32760	32788	36274	
485	0	32693	32764	36285	
486	0	32692	32917	36277	
487	0	32596	32856	36284	
488	0	32626	32936	36292	
489	0	32614	33020	36300	
490	0	32638	32848	36320	
491	0	32674	32886	36320	
492	0	32726	32986	36303	
493	0	32740	32848	36304	
494	0	32820	32824	36306	
495	0	32844	32864	36309	
496	0	32820	32756	36288	
497	0	32868	32796	36297	
498	0	32952	32767	36296	
499	0	32896	32725	36290	
500	0	33020	32809	36264	
501	0	32884	32878	36260	
502	0	32832	32877	36245	
503	0	32876	32892	36248	
504	0	32756	32850	36254	
505	0	32712	32808	36252	
506	0	32652	32843	36232	
507	0	32608	32720	36248	
508	0	32618	32756	36260	
509	0	32660	32826	36252	
510	0	32652	32792	36242	
511	0	32700	32879	36264	
512	0	32776	32816	36282	
513	0	32804	32824	36282	
514	0	32824	32860	36252	
515	0	32884	32847	36262	
516	0	32860	32872	36288	
517	0	32892	32729	36292	
518	0	32928	32788	36294	
519	0	32900	32816	36324	
520	0	32973	32886	36292	
521	0	32896	32844	36296	
522	0	32828	32812	36286	
523	0	32764	32892	36268	
524	0	32692	32984	36276	
525	0	32736	32952	36265	
526	0	32680	32775	36278	
527	0	32612	32824	36267	
528	0	32616	32924	36264	
529	0	32690	32726	36260	
530	0	32680	32836	36241	
531	0	32652	32845	36252	
532	0	32768	32600	36248	
533	0	32826	32694	36240	
534	0	32884	32753	36236	
535	0	32952	32847	36252	
536	0	32948	32964	36260	
537	0	32920	32870	36268	
538	0	32933	32900	36260	
539	0	32880	32945	36270	
540	0	32870	32836	36268	
541	0	32852	32854	36282	
542	0	32784	32764	36288	
543	0	32852	32608	36292	
544	0	32835	32586	36297	
545	0	32682	32824	36321	
546	0	32660	32838	36342	
547	0	32704	32985	36370	
548	0	32704	32814	36382	
549	0	32656	32834	36365	
550	0	32612	32856	36362	
551	0	32600	32856	36352	
552	0	32624	32806	36347	
553	0	32704	32553	36354	
554	0	32796	32656	36332	
555	0	32824	32772	36316	
556	0	32920	32792	36318	
557	0	32940	32844	36314	
558	0	32930	32762	36321	
559	0	32944	32848	36317	
560	0	33008	32845	36332	
561	0	32913	32852	36316	
562	0	32844	32962	36332	
563	0	32841	32938	36330	
564	0	32736	33061	36352	
565	0	32596	32902	36335	
566	0	32660	32900	36340	
567	0	32573	33004	36334	
568	0	32628	32860	36364	
569	0	32612	32780	36376	
570	0	32660	32868	36359	
571	0	32732	32764	36362	
572	0	32774	32868	36350	
573	0	32804	32900	36335	
574	0	32796	32656	36324	
575	0	32836	32606	36305	
576	0	32988	32657	36298	
577	0	32960	32732	36295	
578	0	32948	32712	36285	
579	0	32892	32646	36300	
580	0	32856	32805	36284	
581	0	32856	32793	36264	
582	0	32793	32868	36268	
583	0	32852	32877	36272	
584	0	32737	32880	36264	
585	0	32704	32867	36280	
586	0	32668	32918	36288	
587	0	32557	32940	36284	
588	0	32588	32911	36286	
589	0	32656	32849	36306	
590	0	32644	32876	36289	
591	0	32736	32748	36296	
592	0	32736	32780	36280	
593	0	32716	32897	36288	
594	0	32841	32909	36304	
595	0	32928	32822	36302	
596	0	32908	32808	36293	
597	0	32912	32920	36304	
598	0	32940	32730	36304	
599	0	33024	32734	36301	
600	0	32964	32712	36285	
601	0	32960	32596	36286	
602	0	32856	32522	36288	
603	0	32820	32668	36277	
604	0	32710	32916	36261	
605	0	32612	32972	36236	
606	0	32597	32980	36211	
607	0	32648	32974	36208	
608	0	32592	32929	36200	
609	0	32648	32865	36208	
610	0	32648	32796	36212	
611	0	32644	32893	36210	
612	0	32741	32750	36223	
613	0	32677	32828	36216	
614	0	32720	32831	36212	
615	0	32846	32837	36200	
616	0	32856	33040	36199	
617	0	33056	32992	36205	
618	0	33081	32908	36204	
619	0	32972	32921	36236	
620	0	32953	32876	36296	
621	0	32880	32764	36344	
622	0	32788	32760	36353	
623	0	32754	32636	36294	
624	0	32781	32680	36242	
625	0	32676	32804	36177	
626	0	32609	32772	36156	
627	0	32633	32932	36148	
628	0	32604	32976	36174	
629	0	32704	32768	36200	
630	0	32680	32708	36236	
631	0	32712	32877	36270	
632	0	32792	32842	36282	
633	0	32928	32900	36304	
634	0	32904	32692	36304	
635	0	32844	32745	36306	
636	0	32892	32775	36318	
637	0	32921	32886	36297	
638	0	32821	32838	36284	
639	0	32854	32781	36275	
640	0	32872	32788	36253	
641	0	32808	32812	36236	
642	0	32780	32894	36248	
643	0	32753	32918	36241	
644	0	32788	32964	36273	
645	0	32676	33069	36262	
646	0	32696	32889	36253	
647	0	32696	33013	36305	
648	0	32576	32884	36315	
649	0	32580	32788	36306	
650	0	32612	32725	36295	
651	0	32742	32596	36282	
652	0	32770	32699	36284	
653	0	32736	32690	36292	
654	0	32798	32722	36288	
655	0	32876	32728	36276	
656	0	32964	32829	36294	
657	0	32984	32996	36312	
658	0	32918	32852	36345	
659	0	32932	32848	36369	
660	0	32884	32716	36368	
661	0	32933	32495	36408	
662	0	32816	32588	36428	
663	0	32801	32428	36424	
664	0	32768	32436	36400	
665	0	32724	32519	36359	
666	0	32690	32519	36357	
667	0	32576	32788	36348	
668	0	32686	32822	36334	
669	0	32680	32908	36312	
670	0	32695	32940	36293	
671	0	32690	33025	36261	
672	0	32725	33043	36220	
673	0	32780	33160	36192	
674	0	32841	33026	36176	
675	0	32821	33017	36180	
676	0	32932	32903	36156	
677	0	32820	32748	36193	
678	0	32880	32628	36164	
679	0	32900	32404	36156	
680	0	32948	32399	36137	
681	0	32900	32448	36164	
682	0	32828	32554	36192	
683	0	32790	32621	36193	
684	0	32736	32852	36220	
685	0	32716	33156	36225	
686	0	32700	33113	36212	
687	0	32544	33101	36232	
688	0	32636	32934	36228	
689	0	32602	32897	36229	
690	0	32616	32953	36225	
691	0	32600	32836	36220	
692	0	32732	32882	36197	
693	0	32798	32814	36188	
694	0	32804	32773	36168	
695	0	33016	32708	36200	
696	0	32873	32741	36237	
697	0	32842	32692	36288	
698	0	32846	32692	36335	
699	0	32848	32812	36362	
700	0	32932	32914	36394	
701	0	32970	32902	36429	
702	0	32906	33024	36480	
703	0	32904	33212	36500	
704	0	32780	33140	36521	
705	0	32752	33281	36541	
706	0	32624	33284	36564	
707	0	32508	33068	36576	
708	0	32572	33076	36572	
709	0	32604	32706	36636	
710	0	32744	32396	36690	
711	0	32712	32308	36756	
712	0	32904	32304	36856	
713	0	32904	32548	36996	
714	0	33004	32801	37112	
715	0	32960	32798	37268	
716	0	32920	32956	37413	
717	0	32852	33166	37576	
718	0	32836	33060	37700	
719	0	32808	32837	37840	
720	0	32965	32432	37948	
721	0	33060	32232	38049	
722	0	32928	32092	38122	
723	0	32704	31904	38232	
724	0	32720	32254	38316	
725	0	32612	32464	38300	
726	0	32544	32884	38271	
727	0	32500	33372	38204	
728	0	32480	33281	38112	
729	0	32548	33222	38007	
730	0	32676	33071	37884	
731	0	32740	32820	37790	
732	0	32824	32797	37696	
733	0	32812	32712	37606	
734	0	32920	32511	37548	
735	0	33016	32642	37460	
736	0	33048	32619	37388	
737	0	33010	32749	37326	
738	0	33100	32820	37264	
739	0	33048	32714	37205	
740	0	32911	32926	37136	
741	0	32889	32876	37085	
742	0	32857	33092	37016	
743	0	32660	33108	36946	
744	0	32488	33140	36885	
745	0	32416	33111	36788	
746	0	32506	33276	36742	
747	0	32548	33262	36682	
748	0	32568	33146	36672	
749	0	32700	33104	36624	
750	0	32716	32838	36576	
751	0	32780	32694	36546	
752	0	32920	32676	36505	
753	0	32948	32636	36453	
754	0	32976	32614	36416	
755	0	33016	32492	36359	
756	0	33072	32450	36332	
757	0	32940	32708	36305	
758	0	32928	33036	36298	
759	0	32944	33076	36316	
760	0	32860	32924	36325	
761	0	32761	32732	36350	
762	0	32688	33045	36376	
763	0	32600	33182	36416	
764	0	32440	32789	36465	
765	0	32480	32567	36517	
766	0	32505	32938	36532	
767	0	32540	33176	36607	
768	0	32544	33084	36702	
769	0	32724	32933	36732	
770	0	33001	33038	36753	
771	0	32992	32778	36798	
772	0	32937	32497	36854	
773	0	32944	32622	36949	
774	0	33004	32684	37045	
775	0	33044	32765	37176	
776	0	33016	32705	37348	
777	0	32736	32729	37501	
778	0	32852	33121	37660	
779	0	32832	33424	37824	
780	0	32872	33112	38000	
781	0	33000	32641	38166	
782	0	33166	32814	38316	
783	0	32850	32826	38476	
784	0	32181	32572	38568	
785	0	32081	32701	38661	
786	0	32296	32414	38718	
787	0	32516	32136	38784	
788	0	32676	32306	38839	
789	0	32492	33012	38852	
790	0	32492	33407	38852	
791	0	32936	33222	38836	
792	0	33044	33479	38808	
793	0	33129	33424	38804	
794	0	33046	33193	38772	
795	0	33108	32496	38737	
796	0	33400	32140	38686	
797	0	33888	31980	38645	
798	0	33461	31732	38606	
799	0	33060	32236	38557	
800	0	32927	32668	38516	
801	0	32785	33190	38472	
802	0	32553	33316	38440	
803	0	32356	33240	38380	
804	0	32212	33061	38318	
805	0	32264	32802	38253	
806	0	32300	32878	38172	
807	0	32352	32876	38069	
808	0	31804	33160	37988	
809	0	31756	33681	37889	
810	0	32066	33520	37798	
811	0	32692	33328	37712	
812	0	33372	33090	37616	
813	0	33948	33364	37532	
814	0	33432	33338	37444	
815	0	33544	32764	37353	
816	0	33576	32816	37288	
817	0	33364	32857	37222	
818	0	32192	32630	37192	
819	0	32224	32573	37124	
820	0	33372	32516	37044	
821	0	34796	32336	37004	
822	0	34720	32336	36916	
823	0	33280	32388	36948	
824	0	31200	32620	36879	
825	0	31220	32804	36764	
826	0	31370	32924	36685	
827	0	31510	33196	36641	
828	0	31017	33504	36648	
829	0	30969	33429	36624	
830	0	31644	32852	36609	
831	0	32100	32572	36596	
832	0	32706	32416	36580	
833	0	33433	32597	36612	
834	0	33996	32316	36621	
835	0	34420	32580	36633	
836	0	34552	32788	36640	
837	0	34417	33152	36652	
838	0	34250	33047	36654	
839	0	33862	32884	36644	
840	0	33952	33221	36643	
841	0	33824	33333	36668	
842	0	33328	33302	36673	
843	0	32474	33140	36696	
844	0	31708	33124	36711	
845	0	30988	32663	36702	
846	0	30696	32288	36726	
847	0	30436	32006	36764	
848	0	30456	32230	36784	
849	0	30922	32356	36809	
850	0	31668	32644	36798	
851	0	32263	32912	36802	
852	0	32952	32990	36784	
853	0	33536	33062	36796	
854	0	33736	33064	36790	
855	0	34036	32896	36796	
856	0	34180	33132	36825	
857	0	34334	33613	36844	
858	0	34298	33430	36828	
859	0	34108	33492	36866	
860	0	33852	33389	36900	
861	0	33590	33292	36904	
862	0	33164	32848	36920	
863	0	32517	32143	36960	
864	0	32284	31593	37012	
865	0	32054	32448	37052	
866	0	31972	32999	37126	
867	0	31905	33008	37197	
868	0	31976	33013	37286	
869	0	32148	33084	37372	
870	0	32536	32708	37456	
871	0	32388	32552	37524	
872	0	32396	32696	37607	
873	0	32673	32853	37680	
874	0	32748	33214	37704	
875	0	33204	33186	37808	
876	0	33292	33244	37932	
877	0	33876	33150	37868	
878	0	34196	33045	37884	
879	0	34425	32656	37926	
880	0	34076	32589	38004	
881	0	33756	32876	38044	
882	0	33284	33545	38084	
883	0	32424	33911	38117	
884	0	32040	33612	38125	
885	0	31548	33240	38175	
886	0	31490	32557	38218	
887	0	31080	32028	38244	
888	0	31344	31744	38269	
889	0	31962	31648	38302	
890	0	32052	31788	38334	
891	0	32460	32260	38383	
892	0	31888	32672	38452	
893	0	32044	33259	38495	
894	0	33846	33384	38456	
895	0	35108	33454	38461	
896	0	33602	33400	38503	
897	0	33648	33022	38544	
898	0	33960	32636	38580	
899	0	33444	32228	38609	
900	0	33304	32516	38612	
901	0	33320	32840	38593	
902	0	32556	32816	38544	
903	0	32148	32581	38496	
904	0	32636	32584	38445	
905	0	32656	32644	38392	
906	0	32636	32513	38354	
907	0	31580	32509	38284	
908	0	31780	32288	38198	
909	0	32020	32800	38080	
910	0	31781	32952	38016	
911	0	31905	32898	37865	
912	0	32600	32992	37660	
913	0	32984	32972	37508	
914	0	33300	32929	37392	
915	0	33384	32576	37252	
916	0	33373	32678	37126	
917	0	33216	32804	36978	
918	0	33445	33097	36831	
919	0	33700	33352	36696	
920	0	33692	33488	36580	
921	0	33360	33356	36469	
922	0	33060	33462	36364	
923	0	32920	32929	36260	
924	0	32286	31940	36196	
925	0	32044	31813	36132	
926	0	31868	32412	36052	
927	0	31436	32637	35994	
928	0	31620	32453	35935	
929	0	32492	32656	35892	
930	0	33164	32873	35856	
931	0	33621	32974	35800	
932	0	33900	32882	35774	
933	0	33712	32670	35753	
934	0	33156	32632	35725	
935	0	32154	32860	35720	
936	0	32386	33221	35716	
937	0	32844	32682	35727	
938	0	33028	32754	35725	
939	0	32988	32844	35719	
940	0	33198	32824	35720	
941	0	33564	32700	35717	
942	0	33632	33022	35728	
943	0	33624	32828	35742	
944	0	33228	33052	35738	
945	0	33116	33304	35740	
946	0	32208	33623	35729	
947	0	31870	33924	35717	
948	0	31588	33400	35708	
949	0	31464	32862	35688	
950	0	31865	32604	35652	
951	0	32868	32671	35622	
952	0	32952	32008	35548	
953	0	32652	32048	35511	
954	0	32504	32528	35437	
955	0	32652	32572	35357	
956	0	32965	32429	35256	
957	0	33073	32248	35175	
958	0	33524	32423	35068	
959	0	33404	32972	34976	
960	0	33204	33248	34856	
961	0	33152	33150	34748	
962	0	33060	33137	34636	
963	0	32554	32814	34520	
964	0	32532	32620	34373	
965	0	32468	32758	34293	
966	0	32532	32784	34180	
967	0	32252	32748	34113	
968	0	32233	32888	34031	
969	0	32376	32809	33942	
970	0	32458	32864	33872	
971	0	32528	32993	33792	
972	0	32349	33012	33740	
973	0	32640	32974	33672	
974	0	32360	32936	33610	
975	0	32842	32796	33560	
976	0	33281	32908	33528	
977	0	33684	33060	33521	
978	0	34364	33006	33508	
979	0	33576	33055	33492	
980	0	32970	32892	33522	
981	0	32493	32937	33546	
982	0	32068	33000	33573	
983	0	32492	33066	33596	
984	0	33260	33232	33632	
985	0	32908	33086	33673	
986	0	33084	32928	33736	
987	0	32312	32586	33768	
988	0	31940	32263	33868	
989	0	32220	32174	33956	
990	0	32480	32304	34045	
991	0	32572	32522	34156	
992	0	32676	32772	34260	
993	0	32737	33239	34372	
994	0	32848	33478	34498	
995	0	33036	33521	34641	
996	0	33058	33012	34816	
997	0	33024	32572	35014	
998	0	33204	31953	35215	
999	0	33076	31879	35591	
1000	0	33216	32124	35740	
1001	0	33301	32287	35860	
1002	0	33016	32828	36052	
1003	0	32872	33016	36284	
1004	0	32637	32998	36545	
1005	0	32088	32919	36769	
1006	0	31696	32940	36981	
1007	0	31824	32790	37192	
1008	0	31528	32784	37383	
1009	0	31764	32933	37568	
1010	0	32676	33021	37794	
1011	0	34384	33124	37914	
1012	0	34344	33264	38029	
1013	0	34096	33436	38120	
1014	0	33772	33284	38232	
1015	0	32644	32935	38349	
1016	0	32112	32874	38460	
1017	0	32440	33036	38551	
1018	0	32344	32964	38669	
1019	0	33204	32732	38780	
1020	0	33476	32406	38872	
1021	0	33668	32526	38972	
1022	0	32712	32641	39104	
1023	0	32350	32681	39192	
1024	0	32872	33024	39208	
1025	0	32936	33315	39284	
1026	0	32608	33080	39356	
1027	0	32520	33092	39424	
1028	0	32032	32962	39460	
1029	0	31486	32324	39478	
1030	0	31900	32325	39472	
1031	0	32344	32519	39442	
1032	0	32773	32728	39396	
1033	0	32716	32608	39324	
1034	0	32532	32885	39256	
1035	0	33166	32816	39204	
1036	0	33345	32804	39188	
1037	0	33308	33049	39041	
1038	0	33300	33022	38909	
1039	0	33293	33220	38800	
1040	0	33185	33287	38694	
1041	0	33052	33096	38620	
1042	0	32704	32994	38532	
1043	0	32368	32756	38468	
1044	0	32472	32756	38380	
1045	0	32269	32868	38308	
1046	0	32920	33088	38216	
1047	0	33560	33180	38126	
1048	0	33140	33009	38041	
1049	0	32256	32865	37953	
1050	0	31856	32580	37861	
1051	0	32368	32820	37785	
1052	0	32377	32700	37672	
1053	0	32581	32564	37572	
1054	0	32796	32620	37478	
1055	0	33532	32900	37372	
1056	0	33176	33061	37308	
1057	0	32845	33178	37260	
1058	0	33288	33329	37186	
1059	0	33380	33069	37108	
1060	0	33294	33028	37004	
1061	0	33274	33012	36922	
1062	0	33068	32788	36820	
1063	0	32812	32332	36741	
1064	0	32756	32492	36668	
1065	0	32562	32772	36560	
1066	0	32464	32889	36448	
1067	0	32301	32934	36353	
1068	0	32232	32745	36246	
1069	0	32297	32850	36130	
1070	0	32418	32892	36028	
1071	0	32424	32930	35940	
1072	0	32553	33012	35828	
1073	0	32840	33081	35728	
1074	0	32880	33132	35630	
1075	0	33112	33090	35528	
1076	0	33198	32964	35428	
1077	0	33188	32936	35356	
1078	0	33016	32772	35254	
1079	0	32997	32884	35165	
1080	0	33068	33004	35068	
1081	0	33101	33072	34999	
1082	0	33090	32903	34956	
1083	0	33016	32840	34913	
1084	0	32792	32688	34836	
1085	0	32552	32584	34804	
1086	0	32302	32414	34761	
1087	0	32180	32649	34752	
1088	0	32332	32836	34736	
1089	0	32580	32860	34724	
1090	0	32512	32876	34704	
1091	0	32412	32996	34716	
1092	0	32564	32972	34724	
1093	0	32832	32796	34732	
1094	0	33124	32756	34724	
1095	0	33013	32760	34716	
1096	0	32848	32770	34756	
1097	0	32836	32828	34753	
1098	0	33200	32916	34758	
1099	0	33232	32966	34796	
1100	0	32300	33012	34784	
1101	0	32992	32966	34813	
1102	0	33936	32862	34830	
1103	0	33528	32664	34853	
1104	0	32764	32716	34868	
1105	0	33050	32647	34873	
1106	0	32916	32772	34929	
1107	0	32396	32926	34952	
1108	0	32436	32829	34978	
1109	0	32260	32873	35008	
1110	0	32206	32802	35028	
1111	0	32356	32922	35030	
1112	0	32488	33056	35054	
1113	0	32657	33133	35084	
1114	0	32784	33020	35124	
1115	0	33053	32900	35188	
1116	0	33161	32510	35221	
1117	0	33128	32317	35248	
1118	0	33104	32173	35284	
1119	0	33024	32245	35312	
1120	0	33112	32549	35330	
1121	0	33300	32780	35364	
1122	0	33456	32940	35392	
1123	0	32773	33070	35400	
1124	0	32400	32905	35429	
1125	0	32096	32846	35456	
1126	0	32464	32918	35476	
1127	0	32524	33049	35489	
1128	0	32124	33109	35521	
1129	0	32144	33116	35525	
1130	0	32392	33016	35544	
1131	0	32968	33076	35576	
1132	0	32684	32971	35576	
1133	0	32682	32942	35590	
1134	0	33128	32456	35600	
1135	0	33232	32361	35608	
1136	0	32828	32616	35638	
1137	0	32669	32960	35679	
1138	0	32800	32756	35731	
1139	0	33109	32548	35802	
1140	0	33252	32688	35869	
1141	0	33444	32665	35948	
1142	0	33168	32824	36033	
1143	0	33302	33012	36117	
1144	0	32657	32876	36212	
1145	0	32568	32829	36329	
1146	0	32153	32880	36436	
1147	0	31937	32872	36532	
1148	0	32080	32848	36600	
1149	0	32376	32908	36684	
1150	0	32442	32708	36740	
1151	0	32636	32846	36784	
1152	0	32684	32912	36829	
1153	0	32544	32836	36888	
1154	0	32848	32794	36913	
1155	0	32816	32580	36928	
1156	0	32996	32704	36950	
1157	0	33256	32969	36964	
1158	0	33908	33009	36992	
1159	0	33957	33032	37024	
1160	0	33848	32861	37044	
1161	0	33262	32652	37040	
1162	0	32884	32808	37064	
1163	0	32452	33088	37213	
1164	0	32052	32954	37134	
1165	0	32301	32878	37062	
1166	0	32452	32932	37064	
1167	0	32384	32862	37126	
1168	0	32312	32588	37187	
1169	0	32350	32439	37260	
1170	0	32400	32647	37316	
1171	0	32532	32743	37400	
1172	0	32656	32745	37455	
1173	0	32840	32840	37536	
1174	0	32836	32697	37604	
1175	0	32912	32752	37676	
1176	0	33188	32919	37718	
1177	0	33408	32911	37759	
1178	0	33368	32928	37776	
1179	0	33093	32956	37792	
1180	0	33072	32943	37797	
1181	0	33005	32900	37784	
1182	0	33020	33052	37767	
1183	0	32781	32861	37734	
1184	0	32596	32936	37692	
1185	0	32400	32967	37649	
1186	0	32458	32852	37570	
1187	0	32540	32775	37520	
1188	0	32598	32689	37468	
1189	0	32405	32494	37400	
1190	0	32428	32636	37322	
1191	0	32412	32686	37240	
1192	0	32518	32718	37180	
1193	0	32744	32716	37104	
1194	0	32840	32872	37053	
1195	0	32824	32740	36968	
1196	0	33206	32876	36908	
1197	0	33308	33102	36849	
1198	0	33368	33009	36788	
1199	0	33204	32903	36712	
1200	0	33236	32793	36653	
1201	0	33077	32852	36606	
1202	0	32896	33016	36566	
1203	0	32536	32857	36528	
1204	0	32112	32980	36513	
1205	0	32252	32864	36471	
1206	0	32288	32830	36431	
1207	0	32495	32600	36396	
1208	0	32836	32647	36341	
1209	0	32972	32698	36292	
1210	0	33068	32728	36292	
1211	0	32833	32756	36282	
1212	0	32828	33217	36272	
1213	0	32802	33054	36272	
1214	0	32912	32837	36236	
1215	0	33250	32746	36224	
1216	0	32516	32664	36220	
1217	0	31756	32652	36224	
1218	0	32248	32590	36234	
1219	0	32788	32604	36234	
1220	0	33584	33060	36209	
1221	0	33864	33016	36208	
1222	0	33440	33100	36212	
1223	0	33176	33144	36224	
1224	0	33152	32868	36225	
1225	0	32844	32816	36228	
1226	0	32545	32714	36236	
1227	0	32244	32572	36256	
1228	0	31781	32412	36232	
1229	0	31708	32758	36244	
1230	0	32136	33022	36204	
1231	0	32720	33037	36189	
1232	0	32928	32996	36204	
1233	0	32900	32824	36216	
1234	0	32896	32857	36236	
1235	0	33052	32817	36200	
1236	0	33172	32702	36236	
1237	0	33068	32705	36248	
1238	0	33108	32824	36264	
1239	0	32824	32724	36281	
1240	0	32892	32961	36320	
1241	0	33156	33089	36344	
1242	0	33204	33095	36362	
1243	0	33344	33129	36380	
1244	0	33000	33047	36416	
1245	0	32936	32908	36465	
1246	0	32584	32762	36503	
1247	0	32156	32607	36558	
1248	0	32064	32705	36596	
1249	0	32244	32720	36596	
1250	0	31644	32793	36624	
1251	0	32164	32998	36658	
1252	0	32768	32903	36677	
1253	0	32932	32932	36713	
1254	0	32933	32972	36741	
1255	0	32932	32971	36748	
1256	0	33144	33078	36762	
1257	0	33304	32870	36772	
1258	0	33020	32804	36788	
1259	0	33004	32646	36796	
1260	0	32950	32756	36790	
1261	0	33264	32678	36792	
1262	0	33336	32556	36812	
1263	0	32988	32653	36812	
1264	0	32812	32920	36834	
1265	0	32460	33072	36815	
1266	0	32484	32956	36829	
1267	0	32562	33086	36868	
1268	0	32688	32899	36869	
1269	0	32652	32781	36896	
1270	0	32404	32904	36894	
1271	0	32420	32775	36900	
1272	0	32532	32692	36940	
1273	0	32552	32712	36948	
1274	0	32724	32820	36964	
1275	0	32928	32834	36974	
1276	0	33004	32932	36960	
1277	0	32928	32860	36956	
1278	0	33044	32792	36961	
1279	0	33096	32927	36950	
1280	0	33156	32820	36932	
1281	0	33292	32916	36870	
1282	0	33280	33002	36839	
1283	0	33020	32980	36829	
1284	0	32768	33037	36807	
1285	0	32354	32796	36800	
1286	0	32396	32887	36768	
1287	0	32433	32777	36736	
1288	0	32456	32596	36680	
1289	0	32172	32594	36644	
1290	0	32196	32713	36606	
1291	0	32268	32822	36574	
1292	0	32564	32936	36545	
1293	0	32820	32840	36518	
1294	0	32964	33082	36502	
1295	0	33380	33125	36468	
1296	0	33310	33157	36461	
1297	0	33080	32896	36452	
1298	0	33272	33048	36444	
1299	0	33356	32896	36436	
1300	0	33257	32559	36417	
1301	0	32900	32393	36408	
1302	0	33005	32444	36396	
1303	0	32872	32764	36388	
1304	0	32672	32712	36362	
1305	0	32544	32784	36352	
1306	0	32468	32800	36310	
1307	0	32276	32947	36285	
1308	0	32128	32719	36304	
1309	0	32087	32802	36288	
1310	0	32184	32876	36276	
1311	0	32252	32960	36284	
1312	0	32316	33108	36292	
1313	0	32832	33014	36277	
1314	0	33108	32834	36257	
1315	0	33169	32572	36260	
1316	0	33389	32724	36284	
1317	0	33368	32753	36321	
1318	0	33468	32869	36318	
1319	0	33340	32910	36324	
1320	0	33432	32804	36353	
1321	0	33224	32697	36369	
1322	0	32878	32612	36397	
1323	0	33200	32760	36408	
1324	0	32844	32830	36418	
1325	0	32504	32768	36448	
1326	0	32144	32941	36476	
1327	0	31660	32964	36492	
1328	0	32064	32812	36500	
1329	0	32656	32753	36528	
1330	0	32576	32583	36560	
1331	0	32344	32880	36584	
1332	0	32604	32972	36606	
1333	0	32736	33057	36624	
1334	0	32804	33134	36631	
1335	0	32830	32870	36648	
1336	0	33004	32733	36664	
1337	0	33136	32752	36682	
1338	0	33209	32669	36680	
1339	0	33152	32717	36716	
1340	0	33256	32878	36742	
1341	0	33120	32726	36768	
1342	0	32996	32770	36796	
1343	0	32921	32676	36821	
1344	0	33014	32612	36824	
1345	0	32844	32716	36860	
1346	0	32512	32740	36909	
1347	0	32246	32791	36953	
1348	0	32169	32752	36984	
1349	0	32304	32870	37018	
1350	0	32620	32805	37048	
1351	0	32577	32977	37084	
1352	0	32676	32920	37092	
1353	0	32734	32812	37094	
1354	0	32876	32888	37100	
1355	0	32996	32932	37112	
1356	0	32981	33125	37156	
1357	0	32730	33121	37165	
1358	0	32908	32948	37148	
1359	0	33156	32820	37142	
1360	0	33448	32622	37144	
1361	0	33196	32384	37127	
1362	0	33094	32500	37138	
1363	0	33028	32682	37124	
1364	0	32912	32864	37127	
1365	0	32604	32858	37124	
1366	0	32424	32813	37124	
1367	0	32200	32969	37120	
1368	0	31928	32896	37104	
1369	0	31968	32615	37101	
1370	0	32256	32804	37100	
1371	0	32384	32825	37095	
1372	0	33004	32936	37092	
1373	0	33144	33004	37100	
1374	0	33101	33088	37088	
1375	0	32780	32943	37101	
1376	0	32844	33000	37126	
1377	0	33072	32990	37136	
1378	0	33232	32860	37161	
1379	0	33660	32846	37172	
1380	0	33781	32881	37196	
1381	0	33580	32886	37184	
1382	0	33094	32903	37212	
1383	0	32525	33095	37217	
1384	0	32608	32958	37210	
1385	0	32562	32689	37196	
1386	0	32510	32818	37180	
1387	0	32233	33008	37151	
1388	0	32156	32912	37116	
1389	0	32332	32736	37084	
1390	0	32684	32780	37020	
1391	0	32572	32698	36964	
1392	0	32645	32746	36901	
1393	0	32564	32644	36876	
1394	0	32868	32720	36828	
1395	0	33084	32700	36784	
1396	0	32714	32812	36756	
1397	0	33068	33044	36708	
1398	0	33636	32884	36694	
1399	0	33509	32730	36656	
1400	0	32206	32811	36648	
1401	0	32792	32807	36648	
1402	0	32996	32896	36615	
1403	0	33192	32824	36592	
1404	0	33000	32980	36568	
1405	0	32576	32880	36553	
1406	0	32504	32972	36519	
1407	0	32198	32677	36500	
1408	0	32217	32632	36460	
1409	0	32252	32654	36401	
1410	0	32204	32734	36328	
1411	0	32584	32744	36295	
1412	0	32848	32644	36236	
1413	0	32847	32821	36177	
1414	0	32944	32908	36134	
1415	0	32960	33036	36112	
1416	0	33080	33128	36079	
1417	0	32958	33031	36052	
1418	0	33100	32940	36019	
1419	0	33257	32928	36004	
1420	0	33268	32948	36013	
1421	0	33116	32676	36014	
1422	0	32868	32799	36039	
1423	0	32692	32756	36022	
1424	0	32624	32788	36048	
1425	0	32658	32682	36056	
1426	0	32788	32884	36068	
1427	0	32760	32808	36065	
1428	0	32366	32624	36070	
1429	0	32300	32668	36060	
1430	0	32393	32660	36068	
1431	0	32388	32761	36057	
1432	0	32544	32879	36080	
1433	0	32612	32892	36100	
1434	0	32869	33060	36102	
1435	0	33111	33060	36088	
1436	0	33276	33061	36088	
1437	0	33441	33108	36096	
1438	0	33156	33068	36118	
1439	0	33112	33166	36140	
1440	0	33181	32933	36160	
1441	0	32856	32944	36181	
1442	0	32928	32930	36232	
1443	0	32772	32853	36248	
1444	0	32872	32781	36276	
1445	0	32572	32780	36306	
1446	0	32452	32338	36333	
1447	0	32324	32250	36376	
1448	0	32228	32494	36408	
1449	0	32360	32591	36440	
1450	0	32396	32756	36464	
1451	0	32582	32894	36496	
1452	0	32648	32754	36545	
1453	0	32636	32940	36589	
1454	0	32908	33089	36636	
1455	0	32972	33021	36662	
1456	0	33016	33053	36721	
1457	0	32980	33060	36746	
1458	0	33152	32940	36772	
1459	0	33088	33060	36805	
1460	0	33093	32710	36847	
1461	0	32952	32668	36895	
1462	0	33076	32718	36952	
1463	0	33024	32968	37004	
1464	0	33108	32829	37065	
1465	0	33072	32856	37116	
1466	0	32848	32704	37164	
1467	0	32436	32900	37192	
1468	0	32428	32698	37228	
1469	0	32320	32764	37286	
1470	0	32320	32578	37317	
1471	0	32256	32728	37348	
1472	0	32400	32760	37408	
1473	0	32800	32782	37417	
1474	0	32970	32832	37424	
1475	0	33060	32860	37440	
1476	0	33236	32992	37433	
1477	0	33044	32916	37440	
1478	0	32884	32993	37428	
1479	0	32725	32848	37436	
1480	0	32614	32799	37409	
1481	0	32976	32896	37377	
1482	0	33068	32740	37332	
1483	0	33348	32856	37304	
1484	0	33080	32925	37257	
1485	0	33260	32772	37236	
1486	0	32980	33004	37214	
1487	0	32472	33007	37145	
1488	0	32437	32767	37089	
1489	0	32136	32730	37038	
1490	0	31620	32872	36999	
1491	0	31344	32704	36932	
1492	0	31788	32628	36892	
1493	0	32641	32400	36812	
1494	0	33577	32596	36768	
1495	0	33212	32662	36709	
1496	0	33926	33028	36644	
1497	0	33820	33172	36590	
1498	0	33308	33044	36525	
1499	0	32780	33040	36468	
1500	0	32828	32984	36424	
1501	0	32876	32922	36377	
1502	0	33336	32856	36320	
1503	0	33284	32644	36256	
1504	0	32900	32590	36204	
1505	0	32728	32597	36164	
1506	0	32552	32852	36119	
1507	0	32148	32864	36073	
1508	0	31496	32834	36022	
1509	0	31608	32776	35972	
1510	0	32176	32797	35920	
1511	0	32853	32852	35900	
1512	0	32869	32890	35873	
1513	0	33069	32964	35856	
1514	0	33224	32996	35812	
1515	0	33086	32832	35764	
1516	0	33068	32908	35716	
1517	0	33120	32909	35702	
1518	0	33148	32844	35672	
1519	0	32922	32926	35650	
1520	0	33069	32959	35646	
1521	0	32992	33119	35636	
1522	0	32904	33034	35632	
1523	0	32862	32984	35642	
1524	0	33064	32788	35650	
1525	0	32680	32564	35670	
1526	0	32488	32598	35680	
1527	0	32446	32805	35716	
1528	0	32308	32848	35735	
1529	0	32352	32739	35756	
1530	0	32418	32606	35781	
1531	0	32424	32680	35824	
1532	0	32476	32972	35846	
1533	0	32520	32775	35884	
1534	0	32628	32729	35920	
1535	0	32856	32769	35960	
1536	0	33201	32756	36021	
1537	0	33356	32637	36072	
1538	0	33690	32760	36108	
1539	0	33462	32916	36166	
1540	0	33164	32914	36208	
1541	0	33053	32958	36260	
1542	0	32880	32897	36300	
1543	0	32836	33028	36342	
1544	0	32644	32984	36372	
1545	0	32576	32775	36454	
1546	0	32510	32824	36517	
1547	0	32480	32820	36592	
1548	0	32320	32581	36615	
1549	0	32556	32528	36645	
1550	0	32472	32633	36684	
1551	0	32464	32729	36735	
1552	0	32464	32806	36772	
1553	0	32332	32836	36796	
1554	0	32430	32809	36842	
1555	0	32868	32985	36900	
1556	0	33108	33072	36928	
1557	0	33389	33017	36956	
1558	0	33552	32900	36996	
1559	0	33532	32845	37028	
1560	0	33324	32937	37056	
1561	0	33040	32840	37077	
1562	0	32864	32868	37092	
1563	0	32737	32830	37087	
1564	0	32868	32841	37095	
1565	0	32649	32828	37112	
1566	0	32457	32925	37112	
1567	0	32322	32876	37079	
1568	0	32185	32798	37066	
1569	0	32208	32740	37066	
1570	0	32361	32654	37062	
1571	0	32496	32680	37017	
1572	0	32628	32749	36968	
1573	0	32702	32750	36932	
1574	0	32892	32982	36897	
1575	0	32914	32976	36868	
1576	0	33149	33032	36799	
1577	0	33220	33052	36743	
1578	0	33120	32908	36700	
1579	0	33230	32992	36644	
1580	0	33232	33012	36568	
1581	0	33233	32904	36530	
1582	0	33136	33008	36475	
1583	0	32976	32892	36459	
1584	0	32788	32804	36433	
1585	0	32272	32783	36408	
1586	0	32272	32767	36412	
1587	0	32196	32713	36380	
1588	0	32225	32764	36374	
1589	0	32372	32775	36330	
1590	0	32520	32701	36297	
1591	0	32436	32708	36286	
1592	0	32784	32748	36266	
1593	0	32917	32836	36264	
1594	0	32820	32888	36260	
1595	0	32896	32877	36238	
1596	0	32732	32929	36222	
1597	0	32648	33087	36212	
1598	0	33112	32908	36189	
1599	0	33757	32880	36162	
1600	0	33801	32820	36141	
1601	0	33210	32650	36136	
1602	0	32756	32800	36129	
1603	0	32768	32916	36092	
1604	0	32760	32967	36076	
1605	0	32332	33016	36078	
1606	0	32410	32968	36084	
1607	0	32368	32724	36087	
1608	0	32372	32709	36075	
1609	0	32716	32744	36078	
1610	0	32724	32644	36058	
1611	0	32588	32712	36069	
1612	0	32452	32649	36054	
1613	0	32660	32680	36067	
1614	0	32736	32774	36097	
1615	0	32812	32789	36126	
1616	0	33008	32863	36136	
1617	0	33064	33074	36174	
1618	0	33253	32986	36213	
1619	0	33228	33009	36260	
1620	0	33293	32978	36292	
1621	0	33209	32876	36356	
1622	0	33072	32770	36408	
1623	0	32902	32704	36432	
1624	0	32744	32657	36453	
1625	0	32525	32770	36509	
1626	0	32384	32718	36548	
1627	0	32312	32820	36568	
1628	0	32181	32852	36576	
1629	0	32172	32640	36625	
1630	0	32301	32592	36637	
1631	0	32405	32753	36660	
1632	0	32588	32770	36686	
1633	0	32647	32812	36708	
1634	0	32772	32846	36716	
1635	0	32892	32839	36728	
1636	0	33176	32894	36751	
1637	0	33440	32994	36728	
1638	0	33612	32866	36727	
1639	0	33633	32903	36736	
1640	0	33412	32938	36764	
1641	0	33212	32908	36768	
1642	0	32828	32844	36772	
1643	0	32824	32817	36775	
1644	0	32842	32810	36776	
1645	0	32612	32784	36768	
1646	0	32276	32805	36768	
1647	0	32220	32897	36768	
1648	0	32288	32886	36744	
1649	0	32364	32712	36741	
1650	0	32352	32687	36717	
1651	0	32516	32576	36692	
1652	0	32428	32697	36671	
1653	0	32509	32944	36640	
1654	0	32740	32804	36612	
1655	0	32964	32848	36576	
1656	0	33312	32896	36552	
1657	0	33500	32873	36517	
1658	0	33264	32738	36508	
1659	0	33044	32744	36509	
1660	0	32748	32992	36477	
1661	0	32665	33072	36437	
1662	0	32770	32978	36424	
1663	0	33192	33013	36420	
1664	0	33048	32682	36420	
1665	0	32988	32748	36393	
1666	0	32873	32830	36388	
1667	0	32532	32804	36388	
1668	0	32329	32748	36396	
1669	0	32264	32615	36391	
1670	0	32376	32760	36380	
1671	0	32364	32733	36384	
1672	0	32505	32716	36372	
1673	0	32734	32832	36370	
1674	0	32850	32812	36408	
1675	0	32788	32978	36396	
1676	0	33081	33004	36349	
1677	0	33269	33024	36350	
1678	0	33220	33004	36358	
1679	0	33052	33020	36374	
1680	0	32900	33008	36359	
1681	0	32676	32808	36365	
1682	0	32496	32596	36348	
1683	0	32824	32506	36368	
1684	0	33076	32698	36388	
1685	0	32903	32884	36401	
1686	0	32900	33096	36400	
1687	0	32756	33089	36408	
1688	0	32476	33046	36396	
1689	0	32420	32782	36372	
1690	0	32420	32604	36396	
1691	0	32484	32589	36420	
1692	0	32210	32533	36420	
1693	0	32272	32541	36407	
1694	0	32804	32642	36424	
1695	0	33176	32736	36428	
1696	0	32674	33024	36424	
1697	0	32724	33012	36432	
1698	0	32844	33088	36448	
1699	0	33240	33056	36444	
1700	0	33748	32933	36468	
1701	0	33684	32922	36468	
1702	0	33414	32718	36460	
1703	0	33016	32797	36487	
1704	0	32716	32775	36494	
1705	0	32560	32984	36505	
1706	0	32520	32988	36524	
1707	0	32428	32687	36558	
1708	0	32316	32732	36564	
1709	0	32320	32865	36568	
1710	0	32349	32840	36564	
1711	0	32457	32903	36581	
1712	0	32600	32775	36580	
1713	0	32724	32814	36568	
1714	0	32628	32788	36582	
1715	0	32716	32813	36588	
1716	0	32770	32932	36570	
1717	0	32932	32820	36580	
1718	0	33364	32903	36560	
1719	0	33604	32856	36527	
1720	0	33418	32916	36522	
1721	0	33208	32967	36527	
1722	0	33004	32760	36524	
1723	0	32896	32840	36484	
1724	0	32748	32902	36468	
1725	0	32560	32858	36449	
1726	0	32492	32969	36460	
1727	0	32420	32944	36464	
1728	0	32432	32740	36444	
1729	0	32448	32727	36421	
1730	0	32348	32788	36388	
1731	0	32240	32738	36392	
1732	0	32336	32720	36364	
1733	0	32468	32786	36357	
1734	0	32720	32764	36324	
1735	0	32941	32981	36300	
1736	0	33184	33008	36308	
1737	0	33356	33092	36292	
1738	0	33304	32854	36281	
1739	0	33272	32872	36288	
1740	0	33368	32970	36304	
1741	0	33252	32904	36304	
1742	0	33020	32676	36320	
1743	0	32806	32656	36302	
1744	0	32764	32668	36317	
1745	0	32614	32760	36325	
1746	0	32448	32896	36341	
1747	0	32350	32876	36344	
1748	0	32168	32792	36356	
1749	0	32312	32613	36344	
1750	0	32364	32665	36336	
1751	0	32452	32804	36340	
1752	0	32616	32844	36324	
1753	0	32640	32832	36337	
1754	0	32772	32897	36340	
1755	0	32844	32892	36337	
1756	0	32940	32861	36358	
1757	0	33264	32998	36353	
1758	0	33314	33018	36348	
1759	0	33168	32908	36359	
1760	0	33212	33052	36400	
1761	0	33106	32910	36404	
1762	0	33052	32909	36412	
1763	0	33100	32916	36425	
1764	0	32944	32869	36473	
1765	0	32924	32932	36492	
1766	0	32258	33080	36508	
1767	0	32128	32764	36504	
1768	0	32237	32560	36516	
1769	0	32268	32589	36500	
1770	0	32496	32608	36500	
1771	0	32668	32544	36492	
1772	0	32576	32512	36506	
1773	0	32736	32508	36492	
1774	0	32812	32582	36512	
1775	0	32868	32660	36516	
1776	0	32800	32688	36496	
1777	0	32556	32873	36508	
1778	0	32744	33069	36505	
1779	0	32992	33006	36468	
1780	0	33300	32996	36480	
1781	0	33748	32980	36470	
1782	0	34020	33090	36476	
1783	0	33586	33164	36456	
1784	0	32736	32972	36452	
1785	0	32480	32872	36480	
1786	0	32289	32869	36516	
1787	0	31912	32744	36516	
1788	0	31992	32476	36534	
1789	0	32322	32400	36532	
1790	0	32524	32480	36540	
1791	0	32540	32508	36528	
1792	0	32784	32764	36536	
1793	0	32964	32996	36558	
1794	0	32868	32830	36589	
1795	0	32728	32824	36596	
1796	0	32892	32918	36653	
1797	0	33108	33006	36684	
1798	0	33156	32916	36698	
1799	0	33196	32977	36684	
1800	0	33148	32925	36692	
1801	0	33132	32920	36705	
1802	0	33076	32885	36724	
1803	0	33009	32908	36752	
1804	0	32917	32820	36780	
1805	0	32692	32900	36796	
1806	0	32496	32899	36812	
1807	0	32324	32830	36820	
1808	0	32202	32720	36820	
1809	0	32272	32768	36860	
1810	0	32356	32700	36868	
1811	0	32472	32752	36871	
1812	0	32496	32716	36860	
1813	0	32648	32836	36865	
1814	0	32788	32794	36888	
1815	0	32900	32844	36918	
1816	0	33044	32804	36916	
1817	0	33164	32905	36932	
1818	0	33152	32917	36921	
1819	0	33184	32854	36900	
1820	0	33145	32918	36908	
1821	0	33188	33020	36889	
1822	0	33004	32904	36900	
1823	0	32868	32848	36874	
1824	0	32648	32896	36893	
1825	0	32568	32861	36898	
1826	0	32526	32695	36892	
1827	0	32430	32584	36889	
1828	0	32424	32601	36871	
1829	0	32396	32696	36864	
1830	0	32226	32765	36852	
1831	0	32312	32764	36841	
1832	0	32564	32716	36836	
1833	0	32916	32833	36813	
1834	0	33296	32917	36795	
1835	0	33196	33040	36784	
1836	0	32960	33028	36767	
1837	0	33064	32936	36738	
1838	0	33077	33031	36702	
1839	0	33156	32908	36684	
1840	0	33240	32796	36648	
1841	0	33232	32708	36657	
1842	0	33217	32826	36656	
1843	0	32872	32828	36660	
1844	0	32652	32757	36649	
1845	0	32426	32762	36652	
1846	0	32304	32801	36652	
1847	0	32428	32836	36636	
1848	0	32367	32788	36624	
1849	0	32340	32849	36604	
1850	0	32437	32836	36598	
1851	0	32340	32958	36580	
1852	0	32412	32954	36580	
1853	0	32480	32903	36561	
1854	0	32748	32812	36553	
1855	0	33012	32730	36556	
1856	0	33125	32715	36544	
1857	0	33140	32805	36548	
1858	0	33308	32756	36538	
1859	0	33502	32860	36560	
1860	0	33345	32848	36552	
1861	0	33472	32880	36569	
1862	0	33252	32964	36568	
1863	0	32728	32956	36584	
1864	0	32672	32916	36596	
1865	0	32228	32896	36624	
1866	0	31860	32924	36628	
1867	0	32356	32928	36650	
1868	0	32512	32912	36664	
1869	0	32424	32891	36653	
1870	0	32412	32908	36648	
1871	0	32536	32655	36638	
1872	0	32676	32596	36661	
1873	0	32693	32628	36640	
1874	0	32868	32636	36660	
1875	0	33038	32627	36644	
1876	0	33076	32912	36616	
1877	0	33092	32932	36608	
1878	0	33112	32992	36612	
1879	0	33240	33064	36634	
1880	0	33278	32990	36644	
1881	0	33124	33006	36632	
1882	0	33080	32740	36646	
1883	0	32924	32716	36668	
1884	0	32776	32700	36720	
1885	0	32554	32748	36768	
1886	0	32544	32826	36824	
1887	0	32420	32726	36820	
1888	0	32324	32785	36856	
1889	0	32276	32780	36916	
1890	0	32424	32788	36916	
1891	0	32474	32924	36944	
1892	0	32480	32885	36956	
1893	0	32436	32832	36959	
1894	0	32636	32775	36964	
1895	0	32740	32856	36944	
1896	0	33056	32940	36940	
1897	0	33372	33040	36948	
1898	0	33552	32997	36944	
1899	0	33388	32900	36938	
1900	0	33180	32832	36900	
1901	0	33542	32866	36880	
1902	0	33352	32960	36852	
1903	0	32702	32845	36816	
1904	0	32480	32912	36808	
1905	0	32516	32864	36773	
1906	0	32400	32902	36742	
1907	0	32324	32864	36712	
1908	0	32124	32720	36700	
1909	0	32184	32705	36664	
1910	0	32388	32686	36612	
1911	0	32456	32625	36582	
1912	0	32696	32752	36572	
1913	0	32600	32720	36550	
1914	0	32638	32636	36510	
1915	0	32724	32724	36504	
1916	0	33096	32962	36504	
1917	0	33364	32815	36484	
1918	0	33521	32822	36460	
1919	0	33649	32836	36444	
1920	0	33376	32832	36452	
1921	0	33108	32988	36452	
1922	0	32936	32897	36444	
1923	0	32808	32925	36423	
1924	0	32676	33000	36409	
1925	0	32592	32837	36416	
1926	0	32433	32896	36420	
1927	0	32376	32816	36400	
1928	0	32276	32816	36412	
1929	0	32292	32564	36400	
1930	0	32432	32580	36376	
1931	0	32496	32780	36356	
1932	0	32576	32749	36346	
1933	0	32660	32789	36337	
1934	0	32736	33029	36358	
1935	0	32756	32953	36336	
1936	0	32936	33128	36324	
1937	0	33128	33106	36328	
1938	0	33088	32884	36348	
1939	0	33004	32864	36359	
1940	0	33040	32814	36348	
1941	0	33052	32680	36356	
1942	0	33149	32781	36352	
1943	0	33178	32769	36372	
1944	0	33334	32728	36384	
1945	0	33232	32862	36399	
1946	0	32880	32736	36412	
1947	0	32369	32868	36412	
1948	0	32032	32878	36428	
1949	0	32128	32750	36408	
1950	0	32380	32616	36380	
1951	0	32476	32668	36364	
1952	0	32532	32768	36335	
1953	0	32592	32738	36327	
1954	0	32584	32785	36348	
1955	0	32768	32929	36340	
1956	0	33072	32796	36312	
1957	0	33172	32943	36303	
1958	0	33080	33008	36292	
1959	0	33108	32956	36276	
1960	0	33214	32812	36290	
1961	0	33108	32817	36296	
1962	0	33144	32934	36317	
1963	0	33020	32872	36336	
1964	0	32796	32835	36338	
1965	0	32540	32824	36336	
1966	0	32546	32689	36354	
1967	0	32572	32868	36380	
1968	0	32470	32766	36384	
1969	0	32296	32688	36392	
1970	0	32240	32706	36404	
1971	0	32188	32750	36421	
1972	0	32540	32614	36430	
1973	0	32892	32790	36408	
1974	0	32810	32764	36420	
1975	0	32944	32937	36419	
1976	0	33121	33100	36416	
1977	0	33280	32852	36416	
1978	0	33152	32820	36451	
1979	0	33093	32956	36442	
1980	0	33192	32870	36476	
1981	0	33100	32756	36480	
1982	0	33216	32816	36501	
1983	0	33217	32848	36500	
1984	0	32860	32924	36540	
1985	0	32492	32877	36556	
1986	0	32460	32776	36561	
1987	0	32368	32760	36536	
1988	0	32324	32786	36540	
1989	0	32330	32590	36564	
1990	0	32428	32614	36576	
1991	0	32380	32800	36591	
1992	0	32528	32736	36610	
1993	0	32714	32888	36620	
1994	0	32784	33016	36628	
1995	0	32904	32862	36631	
1996	0	33066	32912	36644	
1997	0	33189	32958	36641	
1998	0	33152	32804	36628	
1999	0	33108	32738	36642	
2000	0	33110	32893	36636	
2001	0	33334	32812	36624	
2002	0	33056	32886	36604	
2003	0	33052	32953	36589	
2004	0	32692	32840	36600	
2005	0	32844	32802	36608	
2006	0	32674	32720	36608	
2007	0	32432	32828	36596	
2008	0	32216	32774	36573	
2009	0	32262	32816	36565	
2010	0	32352	32636	36535	
2011	0	32428	32632	36532	
2012	0	32532	32724	36509	
2013	0	32700	32791	36492	
2014	0	32728	32772	36510	
2015	0	32840	32938	36508	
2016	0	33024	32864	36508	
2017	0	33176	33044	36468	
2018	0	33208	33071	36464	
2019	0	33177	32936	36469	
2020	0	33024	32748	36448	
2021	0	33094	32725	36493	
2022	0	33052	32888	36480	
2023	0	32740	32804	36468	
2024	0	32677	32881	36488	
2025	0	32532	32788	36522	
2026	0	32648	32804	36518	
2027	0	32668	32900	36532	
2028	0	32612	32902	36540	
2029	0	32384	32836	36554	
2030	0	32544	32810	36576	
2031	0	32508	32838	36561	
2032	0	32613	32693	36568	
2033	0	32756	32756	36552	
2034	0	32708	32887	36551	
2035	0	32736	32916	36560	
2036	0	33028	32889	36593	
2037	0	33142	32950	36606	
2038	0	33240	32937	36598	
2039	0	33164	32758	36580	
2040	0	33082	32725	36573	
2041	0	33112	32686	36545	
2042	0	33068	32884	36564	
2043	0	32881	32887	36560	
2044	0	32714	32836	36560	
2045	0	32653	32844	36576	
2046	0	32524	32768	36609	
2047	0	32370	32880	36590	
2048	0	32396	32937	36572	
2049	0	32300	32775	36576	
2050	0	32380	32845	36556	
2051	0	32500	32852	36568	
2052	0	32545	32692	36560	
2053	0	32536	32644	36544	
2054	0	32752	32844	36534	
2055	0	32968	32936	36552	
2056	0	33160	33013	36536	
2057	0	33128	33040	36548	
2058	0	33368	32685	36560	
2059	0	33376	32600	36560	
2060	0	33250	32710	36577	
2061	0	33060	32712	36577	
2062	0	33044	32816	36588	
2063	0	33036	32840	36588	
2064	0	32834	32868	36600	
2065	0	32648	32900	36609	
2066	0	32500	32980	36621	
2067	0	32468	32808	36628	
2068	0	32316	32799	36632	
2069	0	32293	32798	36597	
2070	0	32184	32832	36588	
2071	0	32258	32924	36600	
2072	0	32592	32881	36592	
2073	0	32708	32817	36612	
2074	0	32908	32830	36596	
2075	0	32968	32708	36593	
2076	0	33168	32796	36576	
2077	0	33067	33078	36572	
2078	0	32988	32853	36570	
2079	0	32996	32828	36540	
2080	0	33212	32837	36548	
2081	0	33288	32869	36564	
2082	0	32932	32840	36582	
2083	0	32642	32796	36584	
2084	0	32564	32916	36608	
2085	0	32408	32868	36596	
2086	0	32860	32816	36576	
2087	0	32960	32910	36580	
2088	0	32917	32814	36560	
2089	0	32593	32758	36550	
2090	0	32424	32852	36532	
2091	0	32148	32692	36524	
2092	0	32064	32769	36500	
2093	0	32188	32877	36469	
2094	0	33040	32802	36453	
2095	0	32788	32902	36412	
2096	0	33344	32964	36368	
2097	0	33585	33090	36332	
2098	0	33381	33016	36306	
2099	0	33092	32794	36272	
2100	0	33128	32866	36253	
2101	0	33153	32740	36220	
2102	0	33008	32703	36188	
2103	0	32868	32722	36164	
2104	0	32660	32754	36164	
2105	0	32584	32661	36129	
2106	0	32460	32697	36127	
2107	0	32356	33000	36108	
2108	0	32320	33024	36084	
2109	0	32301	32838	36061	
2110	0	32332	32663	36064	
2111	0	32652	32676	36072	
2112	0	32672	32775	36085	
2113	0	32644	32810	36082	
2114	0	32792	32752	36100	
2115	0	32909	32789	36129	
2116	0	33008	32901	36129	
2117	0	33068	33037	36126	
2118	0	33116	33076	36162	
2119	0	33065	33010	36172	
2120	0	33212	32972	36185	
2121	0	33133	33017	36168	
2122	0	33161	33013	36198	
2123	0	33062	33092	36230	
2124	0	32796	32753	36244	
2125	0	32524	32708	36261	
2126	0	32468	32812	36274	
2127	0	32448	32625	36264	
2128	0	32336	32604	36273	
2129	0	32340	32620	36276	
2130	0	32426	32677	36248	
2131	0	32402	32689	36264	
2132	0	32596	32793	36260	
2133	0	32700	32788	36264	
2134	0	32876	32852	36252	
2135	0	33024	32974	36231	
2136	0	33188	33044	36253	
2137	0	33156	32956	36260	
2138	0	33184	33061	36270	
2139	0	33180	32996	36244	
2140	0	33016	32684	36260	
2141	0	33072	32566	36244	
2142	0	33098	32748	36264	
2143	0	32940	32836	36268	
2144	0	32792	32784	36292	
2145	0	32697	32700	36319	
2146	0	32666	32756	36352	
2147	0	32476	32964	36401	
2148	0	32268	32941	36420	
2149	0	32268	32838	36428	
2150	0	32401	32908	36410	
2151	0	32444	32908	36460	
2152	0	32626	32725	36497	
2153	0	32652	32765	36513	
2154	0	32756	33000	36516	
2155	0	32904	32766	36520	
2156	0	33034	32832	36537	
2157	0	33130	32824	36552	
2158	0	33104	32792	36564	
2159	0	32973	32797	36553	
2160	0	32956	32799	36556	
2161	0	33072	32924	36568	
2162	0	33277	32869	36568	
2163	0	33258	32839	36584	
2164	0	33220	32948	36612	
2165	0	32805	32814	36624	
2166	0	32476	32966	36655	
2167	0	32288	32916	36669	
2168	0	32200	32778	36696	
2169	0	32231	32620	36700	
2170	0	32420	32712	36700	
2171	0	32512	32705	36692	
2172	0	32450	32613	36704	
2173	0	32516	32580	36680	
2174	0	32768	32677	36692	
2175	0	32900	32772	36653	
2176	0	33120	33022	36644	
2177	0	33388	32890	36648	
2178	0	33276	32952	36640	
2179	0	33132	32962	36636	
2180	0	33173	32936	36629	
2181	0	33102	32932	36597	
2182	0	33004	32932	36578	
2183	0	32817	32974	36598	
2184	0	32812	32900	36624	
2185	0	32576	32728	36626	
2186	0	32652	32833	36624	
2187	0	32441	32816	36632	
2188	0	32212	32808	36638	
2189	0	32316	32804	36644	
2190	0	32404	32766	36634	
2191	0	32458	32877	36645	
2192	0	32549	32926	36660	
2193	0	32685	32868	36664	
2194	0	32656	32851	36652	
2195	0	32933	32750	36664	
2196	0	32922	32776	36660	
2197	0	32960	32760	36631	
2198	0	33108	32752	36620	
2199	0	33264	32708	36615	
2200	0	33296	32814	36604	
2201	0	33264	32876	36615	
2202	0	33400	32775	36628	
2203	0	32997	32753	36626	
2204	0	32914	32676	36615	
2205	0	32684	32797	36624	
2206	0	32340	32886	36628	
2207	0	32364	32973	36613	
2208	0	32417	32917	36608	
2209	0	32388	32764	36600	
2210	0	32329	32820	36604	
2211	0	32256	32984	36596	
2212	0	32304	32997	36581	
2213	0	32532	32606	36565	
2214	0	32916	32784	36565	
2215	0	32792	32817	36572	
2216	0	32996	32852	36580	
2217	0	33096	32807	36590	
2218	0	33288	32910	36599	
2219	0	33568	32940	36588	
2220	0	33570	32986	36604	
2221	0	33221	32900	36597	
2222	0	32956	32927	36615	
2223	0	32925	32868	36612	
2224	0	32865	32858	36647	
2225	0	32536	32782	36664	
2226	0	32472	32838	36674	
2227	0	32349	32932	36680	
2228	0	32236	32857	36696	
2229	0	32274	32782	36688	
2230	0	32340	32872	36740	
2231	0	32396	32873	36725	
2232	0	32476	32793	36723	
2233	0	32756	32788	36760	
2234	0	32852	32736	36768	
2235	0	32880	32933	36764	
2236	0	32880	32764	36772	
2237	0	32716	32697	36757	
2238	0	32692	32770	36769	
2239	0	32952	32825	36784	
2240	0	33356	32876	36788	
2241	0	33632	32945	36807	
2242	0	33808	32876	36829	
2243	0	33693	32746	36832	
2244	0	33181	32781	36852	
2245	0	32564	32892	36883	
2246	0	32249	32786	36876	
2247	0	32132	32757	36901	
2248	0	32386	32774	36918	
2249	0	32384	32704	36912	
2250	0	32236	32706	36901	
2251	0	32340	32767	36870	
2252	0	32453	32766	36856	
2253	0	32576	32832	36876	
2254	0	32805	32821	36884	
2255	0	32892	32836	36856	
2256	0	33024	32908	36892	
2257	0	33060	32893	36871	
2258	0	33108	32920	36871	
2259	0	33192	32900	36862	
2260	0	33117	32941	36854	
2261	0	33124	32876	36824	
2262	0	33164	32856	36808	
2263	0	33024	32932	36816	
2264	0	32746	32741	36832	
2265	0	32701	32778	36840	
2266	0	32524	32881	36836	
2267	0	32410	32921	36834	
2268	0	32376	32753	36816	
2269	0	32282	32815	36782	
2270	0	32296	32805	36748	
2271	0	32296	32838	36718	
2272	0	32312	32742	36689	
2273	0	32508	32775	36640	
2274	0	32708	32772	36604	
2275	0	33036	32854	36568	
2276	0	33428	32769	36524	
2277	0	33452	32964	36501	
2278	0	33272	32908	36468	
2279	0	33238	32916	36432	
2280	0	33128	32816	36380	
2281	0	33068	32812	36328	
2282	0	32933	32845	36292	
2283	0	32904	32896	36274	
2284	0	32840	32969	36211	
2285	0	32709	32861	36197	
2286	0	32592	32983	36180	
2287	0	32504	32834	36180	
2288	0	32400	32881	36160	
2289	0	32236	32771	36148	
2290	0	32300	32696	36124	
2291	0	32344	32847	36086	
2292	0	32477	32740	36056	
2293	0	32708	32788	36058	
2294	0	32712	32729	36056	
2295	0	32829	32757	36032	
2296	0	33090	32862	36016	
2297	0	33205	32897	36022	
2298	0	33264	32929	36007	
2299	0	33263	32936	36024	
2300	0	33148	32928	36032	
2301	0	33073	32930	36008	
2302	0	33258	32959	36024	
2303	0	33016	33008	36020	
2304	0	32640	32785	36032	
2305	0	32500	32605	36044	
2306	0	32440	32685	36053	
2307	0	32410	32802	36081	
2308	0	32396	32758	36078	
2309	0	32416	32616	36092	
2310	0	32320	32644	36088	
2311	0	32404	32808	36100	
2312	0	32452	32834	36106	
2313	0	32572	32864	36116	
2314	0	32704	32848	36126	
2315	0	32940	32800	36109	
2316	0	33092	32984	36133	
2317	0	33196	32984	36136	
2318	0	33332	32954	36136	
2319	0	33372	32992	36132	
2320	0	33484	32874	36134	
2321	0	33152	32892	36172	
2322	0	32864	32986	36165	
2323	0	32740	32839	36180	
2324	0	32665	32644	36183	
2325	0	32668	32584	36208	
2326	0	32436	32764	36232	
2327	0	32224	32894	36260	
2328	0	32356	32833	36266	
2329	0	32416	32832	36308	
2330	0	32576	32808	36328	
2331	0	32600	32636	36322	
2332	0	32768	32732	36353	
2333	0	32672	32714	36388	
2334	0	32848	32748	36421	
2335	0	32832	32816	36469	
2336	0	32984	32866	36486	
2337	0	33028	33004	36535	
2338	0	33078	32996	36604	
2339	0	33116	33020	36653	
2340	0	33177	33042	36696	
2341	0	33108	32944	36732	
2342	0	33020	32903	36769	
2343	0	33013	32822	36821	
2344	0	33012	32685	36860	
2345	0	32728	32708	36900	
2346	0	32530	32892	36920	
2347	0	32416	32772	36961	
2348	0	32214	32687	36998	
2349	0	32284	32677	37034	
2350	0	32298	32742	37054	
2351	0	32333	32800	37084	
2352	0	32484	32903	37118	
2353	0	32612	32869	37144	
2354	0	32792	32860	37164	
2355	0	32924	32940	37158	
2356	0	33068	32922	37196	
2357	0	33204	32912	37200	
2358	0	33216	32733	37200	
2359	0	33310	32794	37200	
2360	0	33208	32881	37194	
2361	0	33192	32740	37193	
2362	0	33112	32869	37188	
2363	0	32984	32938	37162	
2364	0	32832	32783	37141	
2365	0	32576	32670	37103	
2366	0	32516	32870	37076	
2367	0	32334	32873	37029	
2368	0	32244	32912	37014	
2369	0	32262	32881	36988	
2370	0	32416	32720	36936	
2371	0	32588	32748	36928	
2372	0	32524	32830	36910	
2373	0	32588	32840	36868	
2374	0	32808	32806	36840	
2375	0	32974	32798	36809	
2376	0	33008	32940	36772	
2377	0	33212	33138	36744	
2378	0	33304	33156	36720	
2379	0	33261	32954	36700	
2380	0	33190	32800	36648	
2381	0	33092	32828	36628	
2382	0	33012	32888	36613	
2383	0	32980	32686	36590	
2384	0	32840	32700	36564	
2385	0	32624	32689	36552	
2386	0	32448	32806	36530	
2387	0	32388	32888	36509	
2388	0	32296	32702	36473	
2389	0	32320	32652	36456	
2390	0	32364	32725	36447	
2391	0	32445	32876	36418	
2392	0	32505	32813	36402	
2393	0	32676	32856	36385	
2394	0	32800	32845	36350	
2395	0	32916	32761	36305	
2396	0	32884	32812	36278	
2397	0	33053	33090	36256	
2398	0	33109	32956	36249	
2399	0	33254	32836	36226	
2400	0	33248	32852	36205	
2401	0	32952	32791	36212	
2402	0	33200	32912	36209	
2403	0	32816	32985	36228	
2404	0	32764	32840	36232	
2405	0	32608	32832	36208	
2406	0	32716	32911	36217	
2407	0	32716	32869	36200	
2408	0	32705	32772	36198	
2409	0	32426	32772	36184	
2410	0	32468	32754	36165	
2411	0	32428	32774	36176	
2412	0	32533	32766	36196	
2413	0	32548	32728	36192	
2414	0	32624	32612	36196	
2415	0	32728	32783	36188	
2416	0	32865	32836	36164	
2417	0	33124	32830	36156	
2418	0	33217	32817	36164	
2419	0	33352	32860	36148	
2420	0	33344	32885	36145	
2421	0	33332	32853	36157	
2422	0	33180	32948	36166	
2423	0	32688	32943	36184	
2424	0	32628	32892	36173	
2425	0	32468	32871	36175	
2426	0	32568	32943	36184	
2427	0	32368	33034	36204	
2428	0	32280	32856	36224	
2429	0	32240	32766	36229	
2430	0	32432	32770	36234	
2431	0	32465	32900	36232	
2432	0	32652	32828	36260	
2433	0	32678	32629	36249	
2434	0	32740	32665	36282	
2435	0	32880	32773	36288	
2436	0	33000	32858	36272	
2437	0	33196	32712	36277	
2438	0	33256	32716	36280	
2439	0	33248	32769	36276	
2440	0	33224	32904	36284	
2441	0	33158	32894	36292	
2442	0	33080	32940	36313	
2443	0	32948	33030	36321	
2444	0	32896	32848	36352	
2445	0	32628	32960	36348	
2446	0	32588	32880	36370	
2447	0	32336	32852	36388	
2448	0	32224	32802	36388	
2449	0	32253	32764	36420	
2450	0	32408	32719	36423	
2451	0	32428	32706	36444	
2452	0	32584	32748	36479	
2453	0	32644	32877	36484	
2454	0	32796	32844	36498	
2455	0	32992	32885	36516	
2456	0	33037	33040	36520	
2457	0	33120	32980	36520	
2458	0	33089	32616	36549	
2459	0	33164	32600	36567	
2460	0	33264	32804	36581	
2461	0	33161	33040	36584	
2462	0	33252	33077	36588	
2463	0	33024	33040	36599	
2464	0	32738	32852	36614	
2465	0	32532	32730	36630	
2466	0	32498	32700	36628	
2467	0	32408	32502	36644	
2468	0	32332	32702	36640	
2469	0	32360	32668	36660	
2470	0	32452	32670	36656	
2471	0	32457	32780	36668	
2472	0	32296	32858	36662	
2473	0	32452	33030	36672	
2474	0	32656	32952	36676	
2475	0	32984	32906	36700	
2476	0	33297	32928	36708	
2477	0	33458	33080	36725	
2478	0	33266	33240	36725	
2479	0	33156	33228	36708	
2480	0	33304	33354	36684	
2481	0	33144	33086	36682	
2482	0	32988	32844	36692	
2483	0	32916	32585	36707	
2484	0	32848	32380	36718	
2485	0	32716	32178	36712	
2486	0	32552	32112	36711	
2487	0	32412	32324	36680	
2488	0	32240	32568	36677	
2489	0	32228	32764	36681	
2490	0	32252	32954	36672	
2491	0	32400	32956	36628	
2492	0	32544	33116	36608	
2493	0	32712	33089	36589	
2494	0	32716	33050	36576	
2495	0	32844	33128	36548	
2496	0	33039	32988	36521	
2497	0	33104	32792	36524	
2498	0	33064	32814	36508	
2499	0	33237	32701	36506	
2500	0	33604	32816	36485	
2501	0	33410	32968	36511	
2502	0	33148	32902	36485	
2503	0	32904	32880	36489	
2504	0	32776	32852	36484	
2505	0	32640	32752	36508	
2506	0	32500	32565	36516	
2507	0	32430	32500	36508	
2508	0	32243	32649	36488	
2509	0	32268	32775	36452	
2510	0	32252	32775	36441	
2511	0	32400	32662	36429	
2512	0	32532	32808	36409	
2513	0	32701	32802	36416	
2514	0	32674	32830	36416	
2515	0	32908	32981	36432	
2516	0	32960	32884	36423	
2517	0	33127	33044	36409	
2518	0	33248	33044	36396	
2519	0	33204	32874	36385	
2520	0	33199	32976	36399	
2521	0	33188	33020	36400	
2522	0	33098	32896	36418	
2523	0	32964	32982	36440	
2524	0	32796	33016	36469	
2525	0	32757	32988	36473	
2526	0	32672	33007	36492	
2527	0	32477	33064	36520	
2528	0	32400	32984	36512	
2529	0	32308	32644	36532	
2530	0	32433	32604	36536	
2531	0	32360	32468	36528	
2532	0	32408	32551	36553	
2533	0	32472	32756	36549	
2534	0	32742	32775	36527	
2535	0	32836	32877	36532	
2536	0	33016	32864	36564	
2537	0	33085	33012	36580	
2538	0	33064	33036	36568	
2539	0	33240	32820	36572	
2540	0	33320	32884	36576	
2541	0	33516	32908	36564	
2542	0	33636	32708	36570	
2543	0	33308	32816	36588	
2544	0	32752	32747	36580	
2545	0	32480	32662	36588	
2546	0	32374	32744	36576	
2547	0	32408	32889	36588	
2548	0	32204	32913	36589	
2549	0	32212	32936	36614	
2550	0	32352	32950	36620	
2551	0	32436	32777	36636	
2552	0	32496	32751	36656	
2553	0	32600	32724	36646	
2554	0	32744	32615	36680	
2555	0	32776	32775	36664	
2556	0	32912	32812	36677	
2557	0	33032	32964	36672	
2558	0	33120	32814	36664	
2559	0	33232	32824	36657	
2560	0	33328	32789	36676	
2561	0	33442	32860	36685	
2562	0	33124	32804	36700	
2563	0	32988	32886	36700	
2564	0	32882	32921	36680	
2565	0	32748	32919	36704	
2566	0	32564	33010	36700	
2567	0	32460	33006	36704	
2568	0	32300	32978	36701	
2569	0	32204	32846	36691	
2570	0	32316	32732	36692	
2571	0	32386	32636	36684	
2572	0	32520	32564	36684	
2573	0	32681	32849	36685	
2574	0	32881	33100	36674	
2575	0	32900	33064	36664	
2576	0	32964	32903	36670	
2577	0	33096	32844	36662	
2578	0	33152	32633	36648	
2579	0	33060	32492	36629	
2580	0	33108	32476	36620	
2581	0	33178	32613	36624	
2582	0	33128	32713	36625	
2583	0	33077	32796	36629	
2584	0	33049	32941	36629	
2585	0	32816	32848	36628	
2586	0	32540	32886	36613	
2587	0	32364	33047	36618	
2588	0	32232	32760	36596	
2589	0	32328	32865	36600	
2590	0	32320	32990	36604	
2591	0	32356	32860	36596	
2592	0	32516	32772	36580	
2593	0	32700	32801	36584	
2594	0	32692	32708	36601	
2595	0	32790	32836	36597	
2596	0	32968	32872	36572	
2597	0	33120	32900	36556	
2598	0	33017	32860	36564	
2599	0	33132	32816	36540	
2600	0	33172	32782	36524	
2601	0	33168	32918	36516	
2602	0	33478	32894	36496	
2603	0	33420	32917	36500	
2604	0	32928	32903	36496	
2605	0	32453	32880	36484	
2606	0	32112	32881	36516	
2607	0	32144	32846	36492	
2608	0	32252	32892	36488	
2609	0	32392	32884	36488	
2610	0	32632	32940	36500	
2611	0	32856	32940	36488	
2612	0	32924	32858	36485	
2613	0	32702	32902	36473	
2614	0	32644	32886	36456	
2615	0	32656	32788	36456	
2616	0	32820	32543	36438	
2617	0	33045	32584	36440	
2618	0	33124	32612	36440	
2619	0	33208	32865	36453	
2620	0	33256	32996	36436	
2621	0	33164	32836	36456	
2622	0	32980	32813	36470	
2623	0	32840	32788	36484	
2624	0	32774	32752	36509	
2625	0	32682	32962	36509	
2626	0	32542	32932	36520	
2627	0	32492	32980	36544	
2628	0	32356	33060	36540	
2629	0	32305	33090	36559	
2630	0	32328	32988	36540	
2631	0	32368	32912	36564	
2632	0	32446	32788	36573	
2633	0	32536	32752	36556	
2634	0	32841	32730	36583	
2635	0	33024	32648	36576	
2636	0	33068	32646	36572	
2637	0	33008	32665	36554	
2638	0	33100	32372	36560	
2639	0	33264	32288	36556	
2640	0	33189	32596	36557	
2641	0	33346	32725	36538	
2642	0	33172	32884	36536	
2643	0	32996	33052	36540	
2644	0	32832	33048	36546	
2645	0	32612	33125	36565	
2646	0	32494	33052	36584	
2647	0	32416	33012	36576	
2648	0	32332	33061	36596	
2649	0	32266	33092	36612	
2650	0	32280	32976	36586	
2651	0	32549	32977	36628	
2652	0	32596	32656	36636	
2653	0	32648	32492	36636	
2654	0	32928	32467	36646	
2655	0	32902	32684	36668	
2656	0	32888	32676	36684	
2657	0	32968	32882	36719	
2658	0	33148	32940	36768	
2659	0	33129	32868	36783	
2660	0	32976	32868	36802	
2661	0	32986	32900	36796	
2662	0	33040	32870	36820	
2663	0	33182	32956	36821	
2664	0	33274	32916	36829	
2665	0	33092	32768	36833	
2666	0	32621	32896	36818	
2667	0	32321	32984	36804	
2668	0	32304	32932	36784	
2669	0	32156	32884	36760	
2670	0	32238	32860	36728	
2671	0	32416	32885	36712	
2672	0	32516	32921	36676	
2673	0	32568	32844	36644	
2674	0	32680	32812	36602	
2675	0	32880	32718	36562	
2676	0	33034	32775	36536	
2677	0	33192	32824	36500	
2678	0	33173	32664	36492	
2679	0	33336	32525	36473	
2680	0	33332	32712	36453	
2681	0	33176	32780	36436	
2682	0	33030	32903	36428	
2683	0	32900	32836	36413	
2684	0	32812	32892	36392	
2685	0	32716	32900	36383	
2686	0	32596	32889	36372	
2687	0	32426	32920	36383	
2688	0	32378	32879	36397	
2689	0	32416	32836	36395	
2690	0	32320	32836	36404	
2691	0	32409	32885	36400	
2692	0	32456	32932	36394	
2693	0	32586	33144	36412	
2694	0	32676	33124	36448	
2695	0	32970	32909	36457	
2696	0	32812	32800	36448	
2697	0	33076	32788	36436	
2698	0	33244	32748	36433	
2699	0	33308	32357	36436	
2700	0	33194	32481	36433	
2701	0	33221	32670	36416	
2702	0	33181	32902	36442	
2703	0	33012	32912	36452	
2704	0	32820	32972	36453	
2705	0	32569	32884	36456	
2706	0	32620	32868	36465	
2707	0	32504	32765	36477	
2708	0	32232	32804	36468	
2709	0	32330	32905	36496	
2710	0	32360	32701	36487	
2711	0	32518	32696	36492	
2712	0	32528	32894	36532	
2713	0	32608	33074	36520	
2714	0	32780	33137	36544	
2715	0	32924	33060	36569	
2716	0	32928	33116	36552	
2717	0	32972	33019	36568	
2718	0	33088	32604	36558	
2719	0	33184	32430	36582	
2720	0	33137	32544	36593	
2721	0	33208	32700	36588	
2722	0	33060	32838	36596	
2723	0	32824	32869	36604	
2724	0	32876	32990	36592	
2725	0	32888	32880	36591	
2726	0	32784	32925	36597	
2727	0	33012	32980	36622	
2728	0	32617	32840	36616	
2729	0	32196	32745	36630	
2730	0	32072	32775	36588	
2731	0	32328	32900	36577	
2732	0	32188	32868	36576	
2733	0	32428	32790	36576	
2734	0	32716	32844	36588	
2735	0	32948	32751	36593	
2736	0	33144	32664	36608	
2737	0	33145	32777	36612	
2738	0	33076	32752	36588	
2739	0	33236	32852	36592	
2740	0	33213	32854	36602	
2741	0	33176	32992	36596	
2742	0	33200	32932	36588	
2743	0	33156	32951	36592	
2744	0	32952	32996	36585	
2745	0	32700	32798	36584	
2746	0	32524	32764	36572	
2747	0	32324	32822	36566	
2748	0	32276	32920	36552	
2749	0	32231	32852	36541	
2750	0	32290	32760	36500	
2751	0	32432	32824	36479	
2752	0	32508	32528	36496	
2753	0	32584	32389	36485	
2754	0	32700	32517	36476	
2755	0	32908	32812	36472	
2756	0	32996	32976	36449	
2757	0	33132	33101	36424	
2758	0	33136	33053	36426	
2759	0	33248	32996	36404	
2760	0	33128	33056	36393	
2761	0	33226	32805	36390	
2762	0	33148	32852	36380	
2763	0	33032	32893	36399	
2764	0	32838	32900	36368	
2765	0	32712	32858	36372	
2766	0	32492	32909	36388	
2767	0	32404	33028	36374	
2768	0	32356	32954	36381	
2769	0	32276	32820	36380	
2770	0	32248	32721	36324	
2771	0	32466	32624	36311	
2772	0	32656	32609	36320	
2773	0	32648	32680	36322	
2774	0	32660	32702	36324	
2775	0	32792	32697	36308	
2776	0	33096	32780	36304	
2777	0	33316	32893	36318	
2778	0	33192	32896	36328	
2779	0	33226	32904	36328	
2780	0	33153	32935	36353	
2781	0	33212	33004	36358	
2782	0	33072	32964	36374	
2783	0	32960	32758	36368	
2784	0	32872	32888	36360	
2785	0	32744	32880	36372	
2786	0	32532	32956	36392	
2787	0	32320	32820	36388	
2788	0	32272	32834	36405	
2789	0	32032	32788	36401	
2790	0	32176	32664	36406	
2791	0	32353	32728	36389	
2792	0	32749	32926	36397	
2793	0	32968	32697	36420	
2794	0	32974	32824	36423	
2795	0	32849	32872	36436	
2796	0	32960	32737	36420	
2797	0	33108	32782	36420	
2798	0	33201	32856	36413	
2799	0	33216	32598	36442	
2800	0	33156	32768	36447	
2801	0	32840	32936	36452	
2802	0	32929	32917	36440	
2803	0	33196	32969	36436	
2804	0	33012	32989	36456	
2805	0	33030	32994	36472	
2806	0	32608	32913	36492	
2807	0	32396	32852	36520	
2808	0	32312	32895	36524	
2809	0	32200	32766	36544	
2810	0	32208	32708	36541	
2811	0	32328	32852	36532	
2812	0	32452	32829	36540	
2813	0	32652	32560	36536	
2814	0	32746	32592	36538	
2815	0	32836	32708	36528	
2816	0	32992	32670	36524	
2817	0	33164	32667	36524	
2818	0	33336	32850	36516	
2819	0	33212	32820	36520	
2820	0	33060	32708	36520	
2821	0	33112	32903	36504	
2822	0	33112	32911	36528	
2823	0	32968	32980	36530	
2824	0	32860	32937	36532	
2825	0	32750	32900	36540	
2826	0	32676	32967	36548	
2827	0	32437	32912	36564	
2828	0	32348	32857	36582	
2829	0	32260	32821	36564	
2830	0	32312	32929	36548	
2831	0	32433	32861	36536	
2832	0	32455	32762	36542	
2833	0	32280	32708	36537	
2834	0	32496	32681	36540	
2835	0	32932	32800	36541	
2836	0	33150	32932	36545	
2837	0	33352	32942	36543	
2838	0	33373	32964	36540	
2839	0	33756	32828	36564	
2840	0	33416	32754	36566	
2841	0	33016	32596	36564	
2842	0	32948	32660	36585	
2843	0	32892	32762	36589	
2844	0	32920	32816	36580	
2845	0	32692	32864	36592	
2846	0	32380	32900	36576	
2847	0	32415	32869	36568	
2848	0	32140	32936	36569	
2849	0	31972	32801	36568	
2850	0	32164	32709	36572	
2851	0	32460	32700	36548	
2852	0	32684	32813	36558	
2853	0	32840	32839	36536	
2854	0	33120	32900	36519	
2855	0	32942	32820	36506	
2856	0	32980	32824	36500	
2857	0	33152	32880	36505	
2858	0	33126	33064	36476	
2859	0	33272	32836	36466	
2860	0	33168	32849	36460	
2861	0	33036	32932	36479	
2862	0	32929	32824	36456	
2863	0	32860	32848	36452	
2864	0	32772	32873	36454	
2865	0	32720	32896	36456	
2866	0	32680	32760	36448	
2867	0	32600	32893	36452	
2868	0	32345	32840	36468	
2869	0	32248	32774	36472	
2870	0	32345	32773	36477	
2871	0	32268	32897	36455	
2872	0	32354	32781	36444	
2873	0	32612	32708	36420	
2874	0	32720	32775	36424	
2875	0	32897	32657	36407	
2876	0	33090	32636	36417	
2877	0	33140	32936	36398	
2878	0	33096	33016	36404	
2879	0	33364	33004	36396	
2880	0	33416	32936	36416	
2881	0	33152	32900	36444	
2882	0	33112	32692	36448	
2883	0	33088	32775	36460	
2884	0	32768	32933	36461	
2885	0	32824	32889	36461	
2886	0	32538	32776	36464	
2887	0	32388	32824	36452	
2888	0	32364	32692	36448	
2889	0	32165	32706	36448	
2890	0	32276	32716	36454	
2891	0	32398	32692	36453	
2892	0	32464	32785	36460	
2893	0	32612	32732	36447	
2894	0	32792	32805	36439	
2895	0	32916	32988	36408	
2896	0	32928	32933	36422	
2897	0	33148	33084	36431	
2898	0	33237	33041	36436	
2899	0	33140	32897	36444	
2900	0	33084	32889	36448	
2901	0	33097	32794	36452	
2902	0	32968	32764	36460	
2903	0	32856	32743	36463	
2904	0	32804	32796	36495	
2905	0	32940	32760	36501	
2906	0	32668	32860	36532	
2907	0	32832	32903	36537	
2908	0	32480	32884	36560	
2909	0	32225	32771	36591	
2910	0	32354	32900	36612	
2911	0	32432	32840	36600	
2912	0	32360	32791	36632	
2913	0	32641	32687	36623	
2914	0	32733	32796	36636	
2915	0	32838	32756	36641	
2916	0	32988	32714	36664	
2917	0	32992	32921	36671	
2918	0	33164	32884	36694	
2919	0	33380	32816	36706	
2920	0	33196	32904	36706	
2921	0	33145	32936	36708	
2922	0	33117	32836	36724	
2923	0	32940	32789	36740	
2924	0	32844	32948	36708	
2925	0	32748	33018	36698	
2926	0	32632	32911	36700	
2927	0	32460	32812	36696	
2928	0	32320	32852	36692	
2929	0	32324	32818	36701	
2930	0	32296	32742	36708	
2931	0	32364	32548	36704	
2932	0	32528	32600	36696	
2933	0	32532	32800	36713	
2934	0	32766	32797	36704	
2935	0	32784	32884	36689	
2936	0	32908	32902	36693	
2937	0	33116	32924	36661	
2938	0	33272	32881	36668	
2939	0	33412	32824	36666	
2940	0	33580	32936	36681	
2941	0	33250	33060	36672	
2942	0	32808	32982	36664	
2943	0	32794	32940	36656	
2944	0	32785	33052	36692	
2945	0	32724	33080	36693	
2946	0	32752	32860	36697	
2947	0	32828	32568	36720	
2948	0	32588	32613	36724	
2949	0	32285	32476	36732	
2950	0	32252	32473	36736	
2951	0	32314	32564	36741	
2952	0	32417	32780	36741	
2953	0	32508	32904	36750	
2954	0	32661	33034	36768	
2955	0	32788	32856	36776	
2956	0	32980	32873	36800	
2957	0	33128	32861	36806	
2958	0	33181	32898	36808	
2959	0	33220	32961	36805	
2960	0	33337	32896	36800	
2961	0	33229	32845	36812	
2962	0	33148	32892	36812	
2963	0	33008	32908	36825	
2964	0	32796	32927	36833	
2965	0	32628	32879	36838	
2966	0	32381	32837	36838	
2967	0	32305	32964	36857	
2968	0	32425	32748	36878	
2969	0	32468	32664	36872	
2970	0	32521	32772	36885	
2971	0	32848	32722	36919	
2972	0	32752	32796	36933	
2973	0	32536	32825	36932	
2974	0	32540	32968	36944	
2975	0	32700	32944	36953	
2976	0	32860	32892	36944	
2977	0	33076	32882	36928	
2978	0	33198	32788	36932	
2979	0	33224	32622	36936	
2980	0	33165	32680	36927	
2981	0	33156	32693	36922	
2982	0	33048	32818	36911	
2983	0	33016	32908	36877	
2984	0	32920	32860	36877	
2985	0	32812	32776	36868	
2986	0	32558	32684	36848	
2987	0	32472	32880	36825	
2988	0	32332	33024	36836	
2989	0	32233	32867	36788	
2990	0	32341	32862	36756	
2991	0	32320	32893	36716	
2992	0	32522	32652	36680	
2993	0	32628	32615	36652	
2994	0	32768	32700	36605	
2995	0	32769	32724	36584	
2996	0	32876	32704	36552	
2997	0	33128	32996	36501	
2998	0	33320	33004	36476	
2999	0	33200	32908	36446	
3000	0	33128	32914	36432	
3001	0	33146	32972	36444	
3002	0	33056	32904	36404	
3003	0	33092	32876	36373	
3004	0	32928	32866	36384	
3005	0	32741	32816	36399	
3006	0	32520	32796	36419	
3007	0	32528	32868	36436	
3008	0	32386	32823	36425	
3009	0	32404	32932	36390	
3010	0	32410	32840	36356	
3011	0	32392	32877	36352	
3012	0	32480	32964	36336	
3013	0	32644	32948	36321	
3014	0	32738	32844	36321	
3015	0	32992	32637	36309	
3016	0	33052	32556	36268	
3017	0	33268	32713	36256	
3018	0	33196	32741	36245	
3019	0	33104	32759	36230	
3020	0	33144	32923	36196	
3021	0	33180	32672	36165	
3022	0	33052	32884	36160	
3023	0	33060	32829	36145	
3024	0	32592	32747	36144	
3025	0	32391	32952	36168	
3026	0	32412	32973	36148	
3027	0	32492	33057	36152	
3028	0	32648	33108	36132	
3029	0	32729	32826	36112	
3030	0	32628	32671	36104	
3031	0	32304	32685	36092	
3032	0	32432	32679	36061	
3033	0	32654	32676	36073	
3034	0	32696	32741	36089	
3035	0	32845	32873	36076	
3036	0	32912	32904	36102	
3037	0	33032	32914	36111	
3038	0	33124	32897	36145	
3039	0	33160	32938	36142	
3040	0	33324	32845	36172	
3041	0	33252	32852	36228	
3042	0	33309	32870	36260	
3043	0	33004	32858	36304	
3044	0	32772	32905	36336	
3045	0	32736	32774	36402	
3046	0	32560	32832	36444	
3047	0	32488	32924	36460	
3048	0	32356	32925	36487	
3049	0	32219	32822	36517	
3050	0	32353	32812	36564	
3051	0	32300	32760	36564	
3052	0	32416	32688	36584	
3053	0	32424	32676	36604	
3054	0	32384	32909	36615	
3055	0	32720	32854	36638	
3056	0	33060	32653	36628	
3057	0	33262	32832	36644	
3058	0	33524	32944	36652	
3059	0	33653	32892	36652	
3060	0	33452	32806	36632	
3061	0	33156	32944	36628	
3062	0	33148	32884	36655	
3063	0	32884	32775	36668	
3064	0	32756	32687	36676	
3065	0	32692	32818	36696	
3066	0	32520	32857	36713	
3067	0	32392	32756	36748	
3068	0	32380	32881	36756	
3069	0	32292	32822	36780	
3070	0	32308	32809	36804	
3071	0	32366	32814	36808	
3072	0	32376	32720	36812	
3073	0	32600	32756	36824	
3074	0	32714	32821	36836	
3075	0	32791	32848	36838	
3076	0	32896	32805	36846	
3077	0	33121	32980	36868	
3078	0	33104	32968	36868	
3079	0	33332	32925	36868	
3080	0	33440	32903	36872	
3081	0	33368	33021	36884	
3082	0	33056	32856	36884	
3083	0	33012	32856	36889	
3084	0	32816	32772	36892	
3085	0	32718	32877	36904	
3086	0	32578	32884	36888	
3087	0	32256	32868	36865	
3088	0	32194	32680	36844	
3089	0	32092	32652	36822	
3090	0	32412	32616	36788	
3091	0	32864	32584	36759	
3092	0	32984	32724	36759	
3093	0	32704	32834	36710	
3094	0	32552	32860	36697	
3095	0	32640	32840	36676	
3096	0	32780	32796	36624	
3097	0	32960	32893	36594	
3098	0	33060	32932	36569	
3099	0	33044	32922	36527	
3100	0	33172	32873	36508	
3101	0	33280	32850	36476	
3102	0	33191	32893	36444	
3103	0	33090	32882	36420	
3104	0	32993	32912	36424	
3105	0	32797	32820	36428	
3106	0	32516	32868	36416	
3107	0	32458	32972	36406	
3108	0	32364	33092	36366	
3109	0	32296	32896	36342	
3110	0	32356	32896	36345	
3111	0	32317	33045	36300	
3112	0	32488	32868	36297	
3113	0	32568	32872	36312	
3114	0	32700	32622	36328	
3115	0	32904	32545	36308	
3116	0	33060	32495	36296	
3117	0	33124	32624	36302	
3118	0	33172	32693	36302	
3119	0	33232	32808	36296	
3120	0	33184	32808	36326	
3121	0	33120	32852	36316	
3122	0	33132	32950	36312	
3123	0	32982	32976	36326	
3124	0	32836	32833	36316	
3125	0	32650	32824	36296	
3126	0	32491	32866	36296	
3127	0	32500	33004	36285	
3128	0	32388	33007	36280	
3129	0	32456	32790	36268	
3130	0	32424	32705	36245	
3131	0	32332	32676	36231	
3132	0	32416	32903	36248	
3133	0	32633	32836	36232	
3134	0	32692	32709	36212	
3135	0	32904	32718	36204	
3136	0	32978	32860	36212	
3137	0	33169	32888	36174	
3138	0	33220	32910	36210	
3139	0	33152	32942	36192	
3140	0	33200	32976	36200	
3141	0	33172	33004	36234	
3142	0	33056	33030	36272	
3143	0	33048	32792	36296	
3144	0	32784	32768	36308	
3145	0	32872	32860	36320	
3146	0	32756	32712	36376	
3147	0	32300	32735	36430	
3148	0	32260	32740	36447	
3149	0	32180	32694	36481	
3150	0	32378	32570	36512	
3151	0	32520	32816	36552	
3152	0	32828	32672	36581	
3153	0	32732	32550	36634	
3154	0	32720	32694	36680	
3155	0	32805	32692	36673	
3156	0	32916	32780	36705	
3157	0	33068	32880	36732	
3158	0	33148	32988	36738	
3159	0	33240	33116	36748	
3160	0	33064	33142	36759	
3161	0	33288	32948	36756	
3162	0	33236	32972	36760	
3163	0	32953	32925	36754	
3164	0	32801	32861	36736	
3165	0	32696	32900	36723	
3166	0	32520	32917	36736	
3167	0	32420	32894	36712	
3168	0	32484	32921	36709	
3169	0	32420	32792	36724	
3170	0	32420	32660	36727	
3171	0	32160	32574	36728	
3172	0	32404	32588	36753	
3173	0	32540	32712	36760	
3174	0	32480	32658	36725	
3175	0	32464	32764	36741	
3176	0	32720	32976	36740	
3177	0	33041	32965	36752	
3178	0	33316	32972	36736	
3179	0	33610	32772	36744	
3180	0	33824	32784	36765	
3181	0	33664	32840	36757	
3182	0	33297	32855	36757	
3183	0	32997	32886	36749	
3184	0	32870	32861	36720	
3185	0	32710	32865	36716	
3186	0	32464	32826	36712	
3187	0	32368	32903	36700	
3188	0	32236	32853	36689	
3189	0	32202	32777	36640	
3190	0	32220	32762	36640	
3191	0	32362	32728	36597	
3192	0	32508	32825	36566	
3193	0	32670	32852	36524	
3194	0	32744	32904	36521	
3195	0	32964	32782	36493	
3196	0	32948	32965	36476	
3197	0	33024	33097	36430	
3198	0	33104	32778	36428	
3199	0	33128	32720	36410	
3200	0	33120	32637	36412	
3201	0	33084	32804	36401	
3202	0	33157	32944	36404	
3203	0	33108	32944	36405	
3204	0	32924	32916	36416	
3205	0	32904	32946	36452	
3206	0	32372	32908	36458	
3207	0	32236	32992	36455	
3208	0	32248	33004	36457	
3209	0	32345	32844	36448	
3210	0	32600	32776	36480	
3211	0	32864	32636	36466	
3212	0	32664	32688	36473	
3213	0	32668	32753	36478	
3214	0	32588	32872	36468	
3215	0	32729	32876	36468	
3216	0	32996	32706	36465	
3217	0	33056	32756	36476	
3218	0	33200	32848	36457	
3219	0	33164	32844	36444	
3220	0	33124	32802	36428	
3221	0	32996	32785	36416	
3222	0	33056	32734	36416	
3223	0	33018	32868	36438	
3224	0	32880	32976	36449	
3225	0	32788	32908	36436	
3226	0	32622	32810	36448	
3227	0	32408	32893	36439	
3228	0	32313	32993	36428	
3229	0	32348	32849	36412	
3230	0	32426	32849	36409	
3231	0	32356	32864	36412	
3232	0	32480	32784	36401	
3233	0	32632	32716	36392	
3234	0	32759	32714	36416	
3235	0	32836	32798	36416	
3236	0	33006	32678	36426	
3237	0	33154	32812	36392	
3238	0	33280	32950	36378	
3239	0	33266	32931	36400	
3240	0	33156	32905	36370	
3241	0	33114	32850	36386	
3242	0	33128	32924	36408	
3243	0	33056	32925	36426	
3244	0	32920	32855	36432	
3245	0	32824	32765	36456	
3246	0	32580	32652	36468	
3247	0	32388	32612	36487	
3248	0	32298	32776	36488	
3249	0	32292	32937	36504	
3250	0	32325	32824	36516	
3251	0	32436	32796	36516	
3252	0	32501	32858	36512	
3253	0	32616	32772	36516	
3254	0	32724	32754	36505	
3255	0	32882	32665	36493	
3256	0	32984	32633	36527	
3257	0	33144	32785	36540	
3258	0	33196	32964	36566	
3259	0	33184	32998	36567	
3260	0	33224	32964	36556	
3261	0	33146	32952	36573	
3262	0	33140	32856	36576	
3263	0	33044	32866	36600	
3264	0	32980	32896	36596	
3265	0	32760	32844	36593	
3266	0	32608	32733	36608	
3267	0	32417	32852	36605	
3268	0	32288	32919	36636	
3269	0	32208	32753	36632	
3270	0	32312	32636	36632	
3271	0	32420	32622	36636	
3272	0	32500	32541	36629	
3273	0	32580	32712	36632	
3274	0	32676	32856	36637	
3275	0	32828	32800	36633	
3276	0	32952	32780	36636	
3277	0	33020	32926	36622	
3278	0	33076	32851	36621	
3279	0	33001	32943	36608	
3280	0	33088	32978	36607	
3281	0	33156	32861	36604	
3282	0	33147	32646	36601	
3283	0	33360	32780	36632	
3284	0	33290	32804	36636	
3285	0	32880	32815	36644	
3286	0	32544	32868	36638	
3287	0	32410	32852	36630	
3288	0	32400	32856	36630	
3289	0	32296	32848	36628	
3290	0	32288	32844	36580	
3291	0	32588	32842	36585	
3292	0	32556	32992	36562	
3293	0	32480	32876	36525	
3294	0	32552	32768	36520	
3295	0	32720	32893	36518	
3296	0	32937	32799	36522	
3297	0	33052	32812	36528	
3298	0	33060	32935	36532	
3299	0	33234	32836	36524	
3300	0	33232	32780	36521	
3301	0	33181	32796	36524	
3302	0	33152	32734	36524	
3303	0	33000	32816	36540	
3304	0	32860	32972	36536	
3305	0	32858	32976	36540	
3306	0	32648	32912	36544	
3307	0	32572	32869	36548	
3308	0	32456	32828	36548	
3309	0	32304	32708	36536	
3310	0	32268	32796	36524	
3311	0	32358	32864	36540	
3312	0	32500	32812	36524	
3313	0	32574	32824	36524	
3314	0	32536	32758	36506	
3315	0	32808	32738	36493	
3316	0	33076	32768	36477	
3317	0	33144	32881	36456	
3318	0	33145	32988	36436	
3319	0	33224	32907	36427	
3320	0	33197	32964	36400	
3321	0	33180	32982	36416	
3322	0	33112	32895	36402	
3323	0	33040	32793	36404	
3324	0	32829	32820	36396	
3325	0	32508	32932	36396	
3326	0	32322	32897	36404	
3327	0	32388	32869	36398	
3328	0	32484	32774	36372	
3329	0	32546	32680	36372	
3330	0	32744	32632	36369	
3331	0	32824	32685	36359	
3332	0	32524	32612	36359	
3333	0	32520	32621	36359	
3334	0	32577	32781	36356	
3335	0	32724	32967	36338	
3336	0	32953	32821	36334	
3337	0	33048	32767	36356	
3338	0	32928	32836	36340	
3339	0	32944	32957	36359	
3340	0	33053	32985	36360	
3341	0	33144	32941	36372	
3342	0	33336	32938	36372	
3343	0	33472	33052	36394	
3344	0	33280	32976	36393	
3345	0	32756	32992	36421	
3346	0	32412	32832	36428	
3347	0	32476	32846	36444	
3348	0	32421	32774	36452	
3349	0	32309	32756	36457	
3350	0	32300	32728	36516	
3351	0	32270	32724	36540	
3352	0	32432	32852	36552	
3353	0	32524	32780	36589	
3354	0	32676	32736	36590	
3355	0	32800	32796	36633	
3356	0	32960	32895	36654	
3357	0	33080	32906	36669	
3358	0	33208	32680	36664	
3359	0	33166	32753	36668	
3360	0	33156	32846	36701	
3361	0	33084	32948	36705	
3362	0	33168	32821	36721	
3363	0	33008	32868	36728	
3364	0	33004	32836	36733	
3365	0	32996	32797	36750	
3366	0	32892	32800	36780	
3367	0	32685	32926	36751	
3368	0	32404	32992	36776	
3369	0	32068	32932	36764	
3370	0	32084	32794	36764	
3371	0	32217	32598	36735	
3372	0	32340	32704	36724	
3373	0	32556	32762	36732	
3374	0	32656	32836	36726	
3375	0	32856	32769	36695	
3376	0	32908	32893	36692	
3377	0	33100	32932	36674	
3378	0	33212	32968	36649	
3379	0	33220	32812	36644	
3380	0	33305	32644	36628	
3381	0	33277	32709	36637	
3382	0	33177	32821	36644	
3383	0	33080	32781	36637	
3384	0	32932	32829	36640	
3385	0	32860	32910	36636	
3386	0	32640	32856	36643	
3387	0	32338	32892	36634	
3388	0	32164	32860	36640	
3389	0	32254	32908	36676	
3390	0	32267	32732	36660	
3391	0	32324	32762	36678	
3392	0	32692	32812	36696	
3393	0	32696	32753	36694	
3394	0	32752	32725	36684	
3395	0	32900	32713	36693	
3396	0	32988	32832	36681	
3397	0	33064	33053	36692	
3398	0	33152	32944	36694	
3399	0	33160	32840	36700	
3400	0	33244	32985	36676	
3401	0	33196	33008	36668	
3402	0	33144	33020	36652	
3403	0	33044	33073	36670	
3404	0	32836	32990	36668	
3405	0	32828	32828	36660	
3406	0	32576	32788	36656	
3407	0	32496	32840	36647	
3408	0	32280	32832	36658	
3409	0	32276	32708	36667	
3410	0	32185	32620	36668	
3411	0	32132	32724	36660	
3412	0	32288	32760	36686	
3413	0	32660	32884	36661	
3414	0	32880	32909	36684	
3415	0	33208	32800	36713	
3416	0	33320	32676	36710	
3417	0	33084	32890	36686	
3418	0	33112	32840	36704	
3419	0	33200	32820	36710	
3420	0	33168	32724	36692	
3421	0	33177	32677	36689	
3422	0	33164	32756	36668	
3423	0	32964	32964	36661	
3424	0	32874	32976	36668	
3425	0	32824	32832	36660	
3426	0	32632	32768	36644	
3427	0	32408	32905	36634	
3428	0	32396	32908	36620	
3429	0	32320	32808	36629	
3430	0	32280	32828	36633	
3431	0	32364	32794	36612	
3432	0	32468	32813	36605	
3433	0	32481	32676	36596	
3434	0	32606	32784	36584	
3435	0	32887	32756	36576	
3436	0	32886	32808	36580	
3437	0	33094	32810	36560	
3438	0	33172	32740	36544	
3439	0	33256	32660	36518	
3440	0	33304	32840	36516	
3441	0	33208	32912	36525	
3442	0	33173	32824	36532	
3443	0	33044	32868	36516	
3444	0	32916	32887	36517	
3445	0	32741	32868	36532	
3446	0	32632	32929	36536	
3447	0	32433	33046	36536	
3448	0	32408	33076	36560	
3449	0	32380	33029	36576	
3450	0	32296	32905	36588	
3451	0	32312	32732	36585	
3452	0	32401	32584	36592	
3453	0	32496	32641	36604	
3454	0	32604	32600	36612	
3455	0	32748	32708	36595	
3456	0	32949	32708	36591	
3457	0	33104	32822	36594	
3458	0	33248	32912	36614	
3459	0	33344	32756	36612	
3460	0	33324	32852	36631	
3461	0	33160	32897	36661	
3462	0	33108	32897	36641	
3463	0	33097	32874	36640	
3464	0	32964	32812	36645	
3465	0	32788	32905	36640	
3466	0	32725	32932	36636	
3467	0	32480	32996	36640	
3468	0	32264	32993	36642	
3469	0	32180	32832	36612	
3470	0	32276	32716	36627	
3471	0	32372	32586	36586	
3472	0	32492	32625	36592	
3473	0	32561	32736	36548	
3474	0	32468	32708	36527	
3475	0	32638	32768	36510	
3476	0	32881	32834	36485	
3477	0	33188	32884	36476	
3478	0	33472	33072	36480	
3479	0	33664	32927	36464	
3480	0	33396	32960	36460	
3481	0	33220	32920	36453	
3482	0	33120	33031	36454	
3483	0	33020	33021	36460	
3484	0	32868	32933	36481	
3485	0	32736	32858	36484	
3486	0	32520	32653	36487	
3487	0	32444	32657	36504	
3488	0	32340	32730	36484	
3489	0	32252	32773	36480	
3490	0	32280	32548	36484	
3491	0	32180	32454	36484	
3492	0	32345	32631	36502	
3493	0	32450	32783	36487	
3494	0	32624	32804	36503	
3495	0	32864	32920	36487	
3496	0	33052	32874	36500	
3497	0	33409	32836	36508	
3498	0	33376	32991	36519	
3499	0	33292	32872	36537	
3500	0	33156	32866	36549	
3501	0	33037	32893	36548	
3502	0	33149	32820	36538	
3503	0	33036	32834	36512	
3504	0	33016	32861	36528	
3505	0	32840	32936	36553	
3506	0	32700	32956	36568	
3507	0	32416	33020	36551	
3508	0	32332	32894	36548	
3509	0	32248	32596	36552	
3510	0	32216	32576	36538	
3511	0	32322	32756	36533	
3512	0	32420	32826	36550	
3513	0	32504	32815	36524	
3514	0	32640	32796	36492	
3515	0	32872	32920	36500	
3516	0	33020	32857	36488	
3517	0	33128	32796	36500	
3518	0	33204	32956	36498	
3519	0	33140	32736	36508	
3520	0	33236	32866	36516	
3521	0	33244	32916	36534	
3522	0	33324	32808	36532	
3523	0	33142	32876	36536	
3524	0	32932	32933	36552	
3525	0	32716	33028	36548	
3526	0	32557	32940	36551	
3527	0	32432	32832	36550	
3528	0	32328	32736	36543	
3529	0	32228	32756	36557	
3530	0	32342	32844	36559	
3531	0	32465	32840	36548	
3532	0	32484	32700	36524	
3533	0	32564	32839	36540	
3534	0	32512	32810	36537	
3535	0	32540	32903	36516	
3536	0	32426	32829	36504	
3537	0	32684	32876	36513	
3538	0	33182	32949	36514	
3539	0	33624	32872	36493	
3540	0	33736	32892	36484	
3541	0	33880	32974	36524	
3542	0	33732	32852	36522	
3543	0	33220	32736	36529	
3544	0	32888	32811	36510	
3545	0	32660	32740	36502	
3546	0	32329	32796	36508	
3547	0	32332	32982	36511	
3548	0	32330	32895	36532	
3549	0	32212	32809	36540	
3550	0	32252	32876	36533	
3551	0	32400	32700	36535	
3552	0	32488	32681	36516	
3553	0	32508	32877	36516	
3554	0	32630	32854	36500	
3555	0	32741	32728	36484	
3556	0	32869	32732	36469	
3557	0	33032	32956	36456	
3558	0	33177	32918	36441	
3559	0	33140	32910	36454	
3560	0	33140	32796	36461	
3561	0	33168	32724	36456	
3562	0	33220	32856	36478	
3563	0	33104	32846	36444	
3564	0	32941	32924	36464	
3565	0	32877	32864	36448	
3566	0	32640	32964	36452	
3567	0	32548	32944	36448	
3568	0	32396	32924	36450	
3569	0	32244	32836	36464	
3570	0	32224	32824	36463	
3571	0	32348	32820	36438	
3572	0	32448	32702	36437	
3573	0	32748	32774	36442	
3574	0	32760	32838	36453	
3575	0	32812	32842	36456	
3576	0	32904	32808	36434	
3577	0	33048	32775	36436	
3578	0	33120	32714	36442	
3579	0	33188	32744	36456	
3580	0	33137	32828	36469	
3581	0	33220	32900	36476	
3582	0	33224	32832	36488	
3583	0	33088	32813	36508	
3584	0	32980	32885	36500	
3585	0	32824	32804	36504	
3586	0	32692	32900	36540	
3587	0	32376	32984	36557	
3588	0	32376	32800	36562	
3589	0	32258	32774	36561	
3590	0	32196	32824	36581	
3591	0	32304	32677	36576	
3592	0	32426	32710	36596	
3593	0	32626	32788	36629	
3594	0	32868	32868	36628	
3595	0	33072	32900	36630	
3596	0	32784	32820	36644	
3597	0	32688	32608	36663	
3598	0	32933	32874	36696	
3599	0	33088	33010	36689	
3600	0	33281	32935	36672	
3601	0	33533	32749	36652	
3602	0	33596	32852	36633	
3603	0	33248	32846	36629	
3604	0	32964	32743	36624	
3605	0	32756	32812	36599	
3606	0	32544	32808	36576	
3607	0	32480	32904	36572	
3608	0	32380	32881	36566	
3609	0	32300	32856	36554	
3610	0	32273	32744	36564	
3611	0	32328	32853	36552	
3612	0	32385	32813	36560	
3613	0	32536	32745	36533	
3614	0	32624	32740	36544	
3615	0	32736	32832	36532	
3616	0	32896	32894	36516	
3617	0	33076	32938	36504	
3618	0	33100	33031	36520	
3619	0	33140	32948	36516	
3620	0	33196	32812	36516	
3621	0	33216	32857	36524	
3622	0	33248	32885	36520	
3623	0	33092	32855	36516	
3624	0	32989	32840	36537	
3625	0	32904	32988	36534	
3626	0	32680	32968	36532	
3627	0	32497	32925	36534	
3628	0	32432	32765	36540	
3629	0	32320	32616	36548	
3630	0	32257	32591	36548	
3631	0	32372	32732	36568	
3632	0	32391	32796	36576	
3633	0	32533	32678	36591	
3634	0	32680	32696	36590	
3635	0	32796	32706	36580	
3636	0	32828	32647	36545	
3637	0	33024	33028	36528	
3638	0	33132	32990	36536	
3639	0	33212	32844	36540	
3640	0	33292	32952	36527	
3641	0	33261	32926	36532	
3642	0	33280	32820	36544	
3643	0	33112	32888	36575	
3644	0	32968	33006	36553	
3645	0	32788	32836	36560	
3646	0	32572	32853	36564	
3647	0	32548	32780	36572	
3648	0	32373	32720	36569	
3649	0	32200	32688	36596	
3650	0	32216	32754	36604	
3651	0	32396	32834	36607	
3652	0	32412	32908	36614	
3653	0	32580	32812	36600	
3654	0	32612	32717	36608	
3655	0	32816	32828	36615	
3656	0	32932	32792	36612	
3657	0	33094	32760	36597	
3658	0	33088	32847	36588	
3659	0	33140	32911	36590	
3660	0	33216	32837	36592	
3661	0	32980	32863	36604	
3662	0	32740	32764	36604	
3663	0	32871	32876	36624	
3664	0	33096	32905	36636	
3665	0	33224	32908	36624	
3666	0	33240	32752	36632	
3667	0	33082	32940	36604	
3668	0	32532	32919	36592	
3669	0	32288	32953	36588	
3670	0	32228	32949	36582	
3671	0	32161	32718	36570	
3672	0	32292	32680	36572	
3673	0	32552	32676	36552	
3674	0	32656	32703	36531	
3675	0	32674	32784	36521	
3676	0	32840	32761	36529	
3677	0	33024	32856	36511	
3678	0	33080	32744	36492	
3679	0	33276	32784	36470	
3680	0	33180	32810	36473	
3681	0	33180	32751	36465	
3682	0	33288	32840	36465	
3683	0	33034	32917	36433	
3684	0	32908	32948	36423	
3685	0	32790	32940	36430	
3686	0	32584	32972	36445	
3687	0	32600	32864	36454	
3688	0	32360	32956	36446	
3689	0	32236	32888	36452	
3690	0	32252	32814	36426	
3691	0	32396	32710	36424	
3692	0	32524	32784	36420	
3693	0	32556	32758	36394	
3694	0	32697	32801	36410	
3695	0	32749	32860	36400	
3696	0	32980	32780	36421	
3697	0	33132	32814	36420	
3698	0	33156	32967	36407	
3699	0	33236	32857	36401	
3700	0	33188	32881	36392	
3701	0	33172	32793	36393	
3702	0	33176	32730	36406	
3703	0	32960	32797	36420	
3704	0	32565	32893	36418	
3705	0	32584	32877	36424	
3706	0	32601	32964	36440	
3707	0	32652	32964	36428	
3708	0	32753	32900	36412	
3709	0	32716	32844	36404	
3710	0	32556	32830	36417	
3711	0	32360	32838	36432	
3712	0	32388	32880	36436	
3713	0	32580	32934	36463	
3714	0	32596	32812	36449	
3715	0	32741	32763	36452	
3716	0	32824	32673	36456	
3717	0	33030	32689	36464	
3718	0	33044	32692	36466	
3719	0	33158	32690	36468	
3720	0	33217	32640	36468	
3721	0	33268	32839	36484	
3722	0	33140	32854	36508	
3723	0	33096	33000	36521	
3724	0	32892	32938	36521	
3725	0	32821	33004	36540	
3726	0	32481	32992	36566	
3727	0	32336	32946	36601	
3728	0	32284	32933	36608	
3729	0	32365	32740	36583	
3730	0	32565	32760	36576	
3731	0	32828	32696	36588	
3732	0	32600	32559	36612	
3733	0	32505	32665	36615	
3734	0	32582	32840	36626	
3735	0	32704	32840	36644	
3736	0	33000	32842	36672	
3737	0	33000	32904	36663	
3738	0	33172	32976	36645	
3739	0	33225	32925	36646	
3740	0	33190	32847	36658	
3741	0	33160	32797	36664	
3742	0	33060	32752	36657	
3743	0	32974	32785	36668	
3744	0	32972	32808	36644	
3745	0	33056	32822	36632	
3746	0	32736	32800	36645	
3747	0	32488	32857	36653	
3748	0	32316	32872	36652	
3749	0	32237	32772	36652	
3750	0	32220	32740	36648	
3751	0	32264	32741	36636	
3752	0	32348	32858	36620	
3753	0	32542	32902	36622	
3754	0	32668	32808	36615	
3755	0	32792	32824	36588	
3756	0	32968	32824	36596	
3757	0	33036	32850	36596	
3758	0	32988	32882	36588	
3759	0	33180	32940	36598	
3760	0	33249	32950	36593	
3761	0	33213	32909	36600	
3762	0	33260	32886	36588	
3763	0	33192	32876	36580	
3764	0	33040	32752	36582	
3765	0	32848	32696	36584	
3766	0	32604	32637	36592	
3767	0	32474	32752	36580	
3768	0	32412	32820	36580	
3769	0	32268	32836	36589	
3770	0	32296	32874	36588	
3771	0	32360	32812	36583	
3772	0	32424	32805	36564	
3773	0	32469	32751	36574	
3774	0	32701	32727	36568	
3775	0	32756	32781	36549	
3776	0	32962	32784	36556	
3777	0	33052	32985	36560	
3778	0	33124	33016	36548	
3779	0	33192	32916	36560	
3780	0	33188	32929	36560	
3781	0	33246	32882	36552	
3782	0	33216	32858	36536	
3783	0	33082	32714	36524	
3784	0	32964	32780	36532	
3785	0	32736	32833	36524	
3786	0	32468	32940	36533	
3787	0	32441	32976	36532	
3788	0	32548	32998	36526	
3789	0	32416	32792	36537	
3790	0	32568	32517	36520	
3791	0	32684	32688	36516	
3792	0	32432	32708	36519	
3793	0	32461	32768	36480	
3794	0	32508	32700	36468	
3795	0	32732	32789	36484	
3796	0	32896	32816	36484	
3797	0	32992	33012	36475	
3798	0	33100	32971	36458	
3799	0	33176	32996	36466	
3800	0	33222	32956	36445	
3801	0	33184	32996	36420	
3802	0	33258	33025	36436	
3803	0	33112	32982	36432	
3804	0	32900	32920	36428	
3805	0	32792	32870	36452	
3806	0	32538	32646	36457	
3807	0	32454	32808	36447	
3808	0	32492	32860	36471	
3809	0	32325	32903	36469	
3810	0	32404	32846	36484	
3811	0	32308	32915	36489	
3812	0	32268	32785	36489	
3813	0	32236	32628	36492	
3814	0	32480	32454	36497	
3815	0	32772	32640	36500	
3816	0	32972	32568	36504	
3817	0	33064	32733	36493	
3818	0	33232	32824	36472	
3819	0	33280	32865	36476	
3820	0	33368	32998	36488	
3821	0	33222	32978	36480	
3822	0	33292	32794	36462	
3823	0	33192	32932	36465	
3824	0	33022	32929	36463	
3825	0	32816	32852	36448	
3826	0	32608	32888	36436	
3827	0	32542	33037	36448	
3828	0	32372	32916	36441	
3829	0	32236	32852	36425	
3830	0	32248	32760	36408	
3831	0	32256	32772	36414	
3832	0	32340	32804	36416	
3833	0	32508	32881	36416	
3834	0	32580	32904	36420	
3835	0	32772	32864	36433	
3836	0	33068	32849	36452	
3837	0	33090	32866	36458	
3838	0	33132	32828	36476	
3839	0	33184	32697	36492	
3840	0	33126	32816	36520	
3841	0	33116	32740	36524	
3842	0	33168	32799	36536	
3843	0	33084	32760	36565	
3844	0	32992	33017	36588	
3845	0	32980	33000	36612	
3846	0	32832	32828	36640	
3847	0	32517	32732	36652	
3848	0	32360	32940	36664	
3849	0	32176	32914	36656	
3850	0	32300	32746	36676	
3851	0	32436	32598	36680	
3852	0	32476	32552	36660	
3853	0	32512	32657	36673	
3854	0	32365	32788	36666	
3855	0	32516	32968	36667	
3856	0	32744	32893	36648	
3857	0	33084	32945	36633	
3858	0	33498	32948	36648	
3859	0	33852	32913	36622	
3860	0	33508	32868	36636	
3861	0	33200	32788	36615	
3862	0	33037	33000	36636	
3863	0	32924	33061	36628	
3864	0	32837	33108	36615	
3865	0	32796	33036	36648	
3866	0	32544	32856	36656	
3867	0	32448	32740	36660	
3868	0	32312	32592	36687	
3869	0	32288	32660	36705	
3870	0	32352	32720	36732	
3871	0	32404	32765	36749	
3872	0	32332	32732	36761	
3873	0	32440	32752	36776	
3874	0	32592	32753	36766	
3875	0	32836	32646	36780	
3876	0	32940	32665	36772	
3877	0	33042	32847	36765	
3878	0	33122	32897	36781	
3879	0	33168	32865	36757	
3880	0	33153	32945	36736	
3881	0	33176	32990	36749	
3882	0	33132	32984	36740	
3883	0	33024	32864	36737	
3884	0	32952	33026	36736	
3885	0	32948	32946	36730	
3886	0	32804	32903	36732	
3887	0	32600	32888	36704	
3888	0	32432	32782	36704	
3889	0	32320	32796	36721	
3890	0	32246	32740	36716	
3891	0	32293	32732	36708	
3892	0	32432	32696	36672	
3893	0	32492	32797	36644	
3894	0	32633	32775	36628	
3895	0	32728	32760	36624	
3896	0	32936	32775	36628	
3897	0	33142	33029	36591	
3898	0	33184	33066	36560	
3899	0	33112	33096	36533	
3900	0	33156	33037	36520	
3901	0	33176	32972	36500	
3902	0	33172	32736	36520	
3903	0	33089	32724	36516	
3904	0	33140	32582	36494	
3905	0	32986	32767	36492	
3906	0	32648	32686	36469	
3907	0	32422	32790	36468	
3908	0	32288	32760	36476	
3909	0	32148	32928	36460	
3910	0	32220	32853	36464	
3911	0	32454	32764	36428	
3912	0	32481	32682	36412	
3913	0	32504	32916	36402	
3914	0	32667	32888	36388	
3915	0	32858	32896	36392	
3916	0	32916	32768	36365	
3917	0	33104	32868	36372	
3918	0	33124	32820	36332	
3919	0	33204	32589	36326	
3920	0	33280	32644	36328	
3921	0	33238	32816	36318	
3922	0	33076	32960	36298	
3923	0	32976	32936	36313	
3924	0	32924	32896	36319	
3925	0	32852	32832	36312	
3926	0	32724	32902	36296	
3927	0	32596	32876	36300	
3928	0	32488	32978	36300	
3929	0	32312	32805	36305	
3930	0	32312	32742	36320	
3931	0	32288	32764	36324	
3932	0	32357	32768	36338	
3933	0	32356	32733	36340	
3934	0	32476	32848	36373	
3935	0	32680	32869	36369	
3936	0	32940	32936	36358	
3937	0	33248	32764	36356	
3938	0	33672	32982	36356	
3939	0	33456	32920	36359	
3940	0	33308	32892	36361	
3941	0	33260	32740	36359	
3942	0	33104	32692	36374	
3943	0	33032	32590	36404	
3944	0	32830	32625	36424	
3945	0	32680	32765	36444	
3946	0	32636	32905	36452	
3947	0	32416	32916	36465	
3948	0	32284	32996	36492	
3949	0	32273	32881	36492	
3950	0	32408	32749	36505	
3951	0	32332	32741	36533	
3952	0	32428	32794	36552	
3953	0	32524	32784	36571	
3954	0	32484	32817	36592	
3955	0	32760	32814	36598	
3956	0	32992	32886	36612	
3957	0	33068	32956	36620	
3958	0	33324	32936	36593	
3959	0	33220	32820	36584	
3960	0	33150	32816	36592	
3961	0	33188	32828	36584	
3962	0	33128	32952	36620	
3963	0	33068	32984	36640	
3964	0	32936	32740	36620	
3965	0	32824	32798	36640	
3966	0	32580	32826	36636	
3967	0	32500	32876	36650	
3968	0	32334	32812	36684	
3969	0	32316	32775	36696	
3970	0	32292	32788	36708	
3971	0	32436	32807	36719	
3972	0	32478	32816	36736	
3973	0	32496	32772	36732	
3974	0	32632	32730	36756	
3975	0	32757	32720	36760	
3976	0	33108	32796	36757	
3977	0	33320	32926	36743	
3978	0	33192	32936	36724	
3979	0	33237	32792	36728	
3980	0	33070	32892	36716	
3981	0	33124	32800	36709	
3982	0	33145	32834	36708	
3983	0	33048	32973	36713	
3984	0	32908	32946	36697	
3985	0	32852	32948	36684	
3986	0	32548	32880	36692	
3987	0	32500	32948	36668	
3988	0	32248	33025	36668	
3989	0	32096	32870	36642	
3990	0	32181	32706	36596	
3991	0	32259	32744	36572	
3992	0	32576	32772	36564	
3993	0	32872	32665	36556	
3994	0	33032	32617	36540	
3995	0	32964	32690	36541	
3996	0	32936	32680	36519	
3997	0	32876	32913	36501	
3998	0	33092	32916	36520	
3999	0	33212	32980	36536	
4000	0	33168	32979	36532	
4001	0	33136	32871	36552	
4002	0	33089	32872	36549	
4003	0	33064	32916	36577	
4004	0	32852	32757	36588	
4005	0	32796	32694	36588	
4006	0	32584	32858	36608	
4007	0	32480	33066	36615	
4008	0	32392	33080	36632	
4009	0	32348	32997	36633	
4010	0	32496	32900	36612	
4011	0	32357	32703	36601	
4012	0	32392	32492	36572	
4013	0	32436	32596	36584	
4014	0	32576	32584	36564	
4015	0	32800	32672	36556	
4016	0	32960	32692	36533	
4017	0	33160	32868	36529	
4018	0	33174	33028	36476	
4019	0	33289	33061	36455	
4020	0	33204	32905	36436	
4021	0	33216	32780	36437	
4022	0	33138	32820	36432	
4023	0	32950	32800	36421	
4024	0	32885	32804	36412	
4025	0	32732	32840	36420	
4026	0	32552	32805	36411	
4027	0	32432	32912	36372	
4028	0	32372	32985	36372	
4029	0	32277	32956	36376	
4030	0	32472	32868	36344	
4031	0	32774	32841	36329	
4032	0	32413	32833	36333	
4033	0	32360	32740	36336	
4034	0	32600	32832	36325	
4035	0	32722	32878	36328	
4036	0	32957	33094	36336	
4037	0	33157	33031	36365	
4038	0	33236	32556	36372	
4039	0	33216	32486	36383	
4040	0	33167	32725	36392	
4041	0	33071	32748	36392	
4042	0	33184	32877	36388	
4043	0	33074	32760	36414	
4044	0	32898	32732	36424	
4045	0	32800	32710	36452	
4046	0	32638	32736	36476	
4047	0	32492	32789	36482	
4048	0	32380	32934	36497	
4049	0	32360	32825	36510	
4050	0	32372	32848	36533	
4051	0	32397	32828	36528	
4052	0	32496	32824	36528	
4053	0	32560	32774	36556	
4054	0	32612	32780	36568	
4055	0	32624	32775	36576	
4056	0	32796	32824	36588	
4057	0	32929	32948	36569	
4058	0	33284	33024	36586	
4059	0	33524	33016	36589	
4060	0	33532	32871	36552	
4061	0	33292	32873	36560	
4062	0	33080	32902	36546	
4063	0	32960	33023	36544	
4064	0	32865	33040	36554	
4065	0	32728	33034	36568	
4066	0	32721	32964	36574	
4067	0	32456	32908	36584	
4068	0	32474	32841	36600	
4069	0	32320	32728	36580	
4070	0	32277	32704	36578	
4071	0	32324	32617	36584	
4072	0	32464	32686	36596	
4073	0	32504	32647	36606	
4074	0	32564	32716	36582	
4075	0	32740	32756	36580	
4076	0	32915	32534	36572	
4077	0	33038	32681	36583	
4078	0	33092	32732	36570	
4079	0	33173	32786	36572	
4080	0	33328	32744	36562	
4081	0	33252	32887	36568	
4082	0	33164	32956	36556	
4083	0	33068	32964	36537	
4084	0	32890	32991	36544	
4085	0	32860	33021	36532	
4086	0	32712	32988	36544	
4087	0	32481	32884	36544	
4088	0	32424	32920	36549	
4089	0	32318	32822	36540	
4090	0	32240	32812	36516	
4091	0	32353	32872	36512	
4092	0	32408	32916	36513	
4093	0	32568	32960	36505	
4094	0	32646	32925	36512	
4095	0	32752	32808	36484	
4096	0	32856	32808	36486	
4097	0	33088	32680	36480	
4098	0	33136	32817	36476	
4099	0	33188	32734	36476	
4100	0	33288	32824	36453	
4101	0	33244	32768	36476	
4102	0	33188	32852	36460	
4103	0	33096	32792	36452	
4104	0	33038	32901	36461	
4105	0	32844	32836	36489	
4106	0	32576	32960	36496	
4107	0	32396	33009	36489	
4108	0	32354	32920	36497	
4109	0	32236	32864	36524	
4110	0	32368	32788	36516	
4111	0	32500	32923	36520	
4112	0	32476	32801	36517	
4113	0	32564	32775	36508	
4114	0	32544	32799	36517	
4115	0	32560	32938	36527	
4116	0	32804	32804	36520	
4117	0	33024	32892	36552	
4118	0	33364	32978	36550	
4119	0	33460	32841	36548	
4120	0	33676	32800	36540	
4121	0	33473	32752	36524	
4122	0	33105	32857	36510	
4123	0	32901	32785	36516	
4124	0	32794	32900	36511	
4125	0	32744	32916	36501	
4126	0	32535	32788	36514	
4127	0	32464	32885	36500	
4128	0	32412	32916	36521	
4129	0	32264	32833	36517	
4130	0	32198	32788	36493	
4131	0	32272	32890	36504	
4132	0	32420	32708	36476	
4133	0	32576	32662	36452	
4134	0	32702	32624	36454	
4135	0	32840	32793	36465	
4136	0	32902	32732	36486	
4137	0	33004	32697	36478	
4138	0	33108	32840	36464	
4139	0	33212	32820	36436	
4140	0	33274	32775	36416	
4141	0	33184	32912	36413	
4142	0	33132	32940	36420	
4143	0	33118	32960	36416	
4144	0	32958	33044	36402	
4145	0	32816	33004	36401	
4146	0	32624	33016	36408	
4147	0	32476	33048	36413	
4148	0	32440	33012	36424	
4149	0	32377	33148	36430	
4150	0	32312	32900	36421	
4151	0	32420	32530	36436	
4152	0	32572	32686	36432	
4153	0	32608	32865	36424	
4154	0	32624	32841	36420	
4155	0	32792	32660	36399	
4156	0	33092	32662	36393	
4157	0	32954	32377	36408	
4158	0	33078	32543	36424	
4159	0	33033	32745	36449	
4160	0	33117	32736	36468	
4161	0	33276	32857	36460	
4162	0	33182	32893	36464	
4163	0	33088	32891	36440	
4164	0	33026	32906	36434	
4165	0	32788	32844	36432	
4166	0	32560	32932	36419	
4167	0	32492	33063	36408	
4168	0	32468	32886	36416	
4169	0	32368	32880	36391	
4170	0	32372	32969	36373	
4171	0	32456	32908	36376	
4172	0	32396	32702	36393	
4173	0	32488	32686	36372	
4174	0	32608	32766	36352	
4175	0	32764	32720	36333	
4176	0	32876	32837	36329	
4177	0	32976	32840	36337	
4178	0	33188	32992	36344	
4179	0	33236	32903	36340	
4180	0	33244	32592	36345	
4181	0	33268	32688	36316	
4182	0	33232	32896	36328	
4183	0	33064	32996	36341	
4184	0	32944	33016	36357	
4185	0	32836	32934	36356	
4186	0	32622	32860	36367	
4187	0	32428	32824	36362	
4188	0	32340	32832	36397	
4189	0	32217	32876	36428	
4190	0	32360	32809	36440	
4191	0	32344	32780	36472	
4192	0	32252	32716	36504	
4193	0	32264	32728	36536	
4194	0	32294	32804	36526	
4195	0	32661	32692	36522	
4196	0	33024	32716	36540	
4197	0	33472	32837	36548	
4198	0	33700	32920	36582	
4199	0	33470	32860	36589	
4200	0	33316	32889	36597	
4201	0	33200	32916	36607	
4202	0	33040	32919	36600	
4203	0	33032	32933	36604	
4204	0	32970	32937	36593	
4205	0	32724	32900	36591	
4206	0	32580	32898	36596	
4207	0	32444	32948	36596	
4208	0	32204	32984	36604	
4209	0	32176	32720	36606	
4210	0	32288	32684	36592	
4211	0	32464	32701	36604	
4212	0	32648	32792	36612	
4213	0	32545	32714	36591	
4214	0	32640	32812	36588	
4215	0	32744	32886	36600	
4216	0	32872	32964	36612	
4217	0	33084	33043	36624	
4218	0	33156	33082	36624	
4219	0	33162	32864	36615	
4220	0	33264	32784	36627	
4221	0	33254	32757	36645	
4222	0	33180	32708	36652	
4223	0	33092	32725	36652	
4224	0	32997	32804	36664	
4225	0	32736	32959	36677	
4226	0	32468	32860	36673	
4227	0	32504	32916	36696	
4228	0	32464	32748	36710	
4229	0	32316	32812	36720	
4230	0	32316	32906	36704	
4231	0	32356	32808	36696	
4232	0	32432	32780	36685	
4233	0	32484	32744	36712	
4234	0	32418	32652	36720	
4235	0	32574	32856	36716	
4236	0	32892	32648	36716	
4237	0	32964	32902	36696	
4238	0	33305	32976	36671	
4239	0	33632	32790	36644	
4240	0	33624	32908	36640	
4241	0	33302	32904	36623	
4242	0	33124	32844	36596	
4243	0	33044	32880	36584	
4244	0	32880	32846	36577	
4245	0	32764	32784	36572	
4246	0	32650	32765	36572	
4247	0	32594	32893	36585	
4248	0	32392	32816	36576	
4249	0	32294	32760	36524	
4250	0	32218	32828	36532	
4251	0	32184	32921	36511	
4252	0	32186	32769	36484	
4253	0	32392	32772	36457	
4254	0	32613	32804	36462	
4255	0	33024	32791	36439	
4256	0	33304	32761	36437	
4257	0	33245	32760	36436	
4258	0	33192	32812	36444	
4259	0	33168	32828	36428	
4260	0	33132	32868	36436	
4261	0	33124	32828	36408	
4262	0	33116	32801	36420	
4263	0	33012	32980	36424	
4264	0	32844	32996	36440	
4265	0	32770	32946	36420	
4266	0	32592	33060	36436	
4267	0	32596	33183	36408	
4268	0	32512	33162	36404	
4269	0	32448	32897	36404	
4270	0	32377	32816	36407	
4271	0	32392	32733	36398	
4272	0	32444	32857	36396	
4273	0	32508	32848	36368	
4274	0	32676	32589	36385	
4275	0	32832	32504	36364	
4276	0	32916	32453	36352	
4277	0	32996	32600	36353	
4278	0	33128	32700	36336	
4279	0	33212	32784	36329	
4280	0	33226	32876	36334	
4281	0	33189	32820	36337	
4282	0	33134	32857	36312	
4283	0	33120	32960	36332	
4284	0	32894	32924	36332	
4285	0	32881	32962	36352	
4286	0	32602	32884	36354	
4287	0	32514	33068	36348	
4288	0	32368	33088	36341	
4289	0	32289	32930	36376	
4290	0	32328	32649	36354	
4291	0	32342	32673	36351	
4292	0	32400	32818	36361	
4293	0	32432	32894	36356	
4294	0	32632	32807	36394	
4295	0	32828	32814	36396	
4296	0	33004	32917	36424	
4297	0	33124	32908	36445	
4298	0	33356	32988	36456	
4299	0	33388	32906	36460	
4300	0	33256	32903	36477	
4301	0	33292	32856	36487	
4302	0	33228	32792	36516	
4303	0	32996	32836	36486	
4304	0	32788	32828	36500	
4305	0	32768	32892	36506	
4306	0	32472	32918	36525	
4307	0	32460	32827	36536	
4308	0	32412	32827	36540	
4309	0	32308	32692	36548	
4310	0	32253	32671	36548	
4311	0	32392	32480	36553	
4312	0	32464	32504	36569	
4313	0	32669	32629	36557	
4314	0	32712	32870	36555	
4315	0	32760	32833	36552	
4316	0	32908	32841	36540	
4317	0	33060	32990	36542	
4318	0	33124	33000	36544	
4319	0	33132	32857	36559	
4320	0	32976	32840	36581	
4321	0	32985	32961	36589	
4322	0	33148	32844	36630	
4323	0	33264	32684	36652	
4324	0	33320	32786	36660	
4325	0	33224	32855	36668	
4326	0	32736	32992	36676	
4327	0	32424	32848	36676	
4328	0	32264	32877	36673	
4329	0	32118	32884	36688	
4330	0	32210	32902	36692	
4331	0	32384	32864	36696	
4332	0	32408	32749	36660	
4333	0	32480	32710	36641	
4334	0	32624	32821	36629	
4335	0	32741	32880	36629	
4336	0	32924	32861	36629	
4337	0	32986	32880	36631	
4338	0	33064	32936	36609	
4339	0	33160	32827	36607	
4340	0	33061	32785	36600	
4341	0	33285	32820	36561	
4342	0	33412	32912	36553	
4343	0	33156	32876	36560	
4344	0	32936	32896	36578	
4345	0	32868	32840	36568	
4346	0	32830	32845	36600	
4347	0	32565	32868	36596	
4348	0	32456	32821	36581	
4349	0	32304	32852	36588	
4350	0	32244	32830	36573	
4351	0	32324	32744	36544	
4352	0	32316	32765	36548	
4353	0	32512	32804	36534	
4354	0	32665	32774	36526	
4355	0	32828	32849	36493	
4356	0	32936	32966	36488	
4357	0	33088	32868	36486	
4358	0	33220	32916	36487	
4359	0	33196	32860	36482	
4360	0	33260	32826	36482	
4361	0	33124	32684	36484	
4362	0	33180	32782	36474	
4363	0	33064	32774	36482	
4364	0	32908	32871	36478	
4365	0	32708	32917	36495	
4366	0	32526	32844	36505	
4367	0	32504	32969	36508	
4368	0	32413	32940	36518	
4369	0	32364	32810	36513	
4370	0	32217	32814	36519	
4371	0	32376	32756	36509	
4372	0	32432	32740	36504	
4373	0	32440	32868	36494	
4374	0	32676	32821	36496	
4375	0	32844	32804	36472	
4376	0	33057	32862	36464	
4377	0	33092	32964	36448	
4378	0	33268	32909	36440	
4379	0	33292	32744	36417	
4380	0	33202	32716	36396	
4381	0	33141	32869	36392	
4382	0	33180	32742	36379	
4383	0	33081	32649	36366	
4384	0	32840	32676	36380	
4385	0	32544	32816	36375	
4386	0	32481	32831	36381	
4387	0	32352	32864	36372	
4388	0	32536	32916	36384	
4389	0	32708	32780	36396	
4390	0	32780	32889	36380	
4391	0	32468	32913	36372	
4392	0	32296	32805	36384	
4393	0	32400	32764	36372	
4394	0	32549	32768	36349	
4395	0	32788	32852	36368	
4396	0	32852	32869	36368	
4397	0	33024	32896	36364	
4398	0	33117	32874	36362	
4399	0	33102	32846	36384	
4400	0	33124	32714	36384	
4401	0	33285	32830	36390	
4402	0	33280	32860	36390	
4403	0	33060	32830	36400	
4404	0	32856	32991	36428	
4405	0	32828	32862	36464	
4406	0	32662	32876	36470	
4407	0	32612	32916	36500	
4408	0	32468	32908	36524	
4409	0	32208	32856	36538	
4410	0	32276	32682	36580	
4411	0	32394	32671	36600	
4412	0	32612	32688	36604	
4413	0	32728	32790	36592	
4414	0	32588	32898	36585	
4415	0	32716	32890	36583	
4416	0	32912	32894	36608	
4417	0	33013	32900	36582	
4418	0	33086	32724	36578	
4419	0	33168	32907	36594	
4420	0	33164	32928	36608	
4421	0	33196	32805	36604	
4422	0	33181	32756	36625	
4423	0	33068	32820	36638	
4424	0	32929	32892	36649	
4425	0	32804	32992	36664	
4426	0	32586	32898	36676	
4427	0	32497	32845	36701	
4428	0	32421	32784	36712	
4429	0	32320	32871	36724	
4430	0	32288	32728	36748	
4431	0	32369	32710	36764	
4432	0	32372	32744	36751	
4433	0	32476	32804	36758	
4434	0	32656	32740	36757	
4435	0	32856	32689	36761	
4436	0	33052	32880	36780	
4437	0	33180	32908	36792	
4438	0	33156	32920	36788	
4439	0	33096	32788	36772	
4440	0	33198	32977	36760	
4441	0	33172	32869	36764	
4442	0	33216	32872	36756	
4443	0	33072	32868	36759	
4444	0	33000	32864	36761	
4445	0	32832	32916	36745	
4446	0	32708	32880	36742	
4447	0	32532	32960	36753	
4448	0	32396	32900	36750	
4449	0	32372	32912	36760	
4450	0	32316	32838	36768	
4451	0	32300	32854	36750	
4452	0	32280	32741	36754	
4453	0	32544	32636	36729	
4454	0	32604	32669	36680	
4455	0	32824	32764	36678	
4456	0	32980	32644	36656	
4457	0	33024	32804	36646	
4458	0	32976	32896	36636	
4459	0	33056	32920	36632	
4460	0	33200	32860	36628	
4461	0	33436	32724	36604	
4462	0	33676	32896	36609	
4463	0	33408	32908	36580	
4464	0	32980	32908	36589	
4465	0	32672	32817	36565	
4466	0	32368	32812	36544	
4467	0	32352	32972	36570	
4468	0	32326	32952	36580	
4469	0	32262	32906	36560	
4470	0	32364	32588	36545	
4471	0	32592	32728	36544	
4472	0	32432	32775	36548	
4473	0	32468	32896	36548	
4474	0	32669	32972	36532	
4475	0	32728	32857	36529	
4476	0	32836	32848	36496	
4477	0	33064	32603	36471	
4478	0	33176	32644	36494	
4479	0	33253	32711	36471	
4480	0	33284	32713	36452	
4481	0	33141	32817	36429	
4482	0	33024	32888	36448	
4483	0	32988	32900	36445	
4484	0	32877	32909	36444	
4485	0	32784	32873	36436	
4486	0	32684	32932	36428	
4487	0	32792	32873	36421	
4488	0	32484	32804	36412	
4489	0	32344	32816	36404	
4490	0	32312	32882	36404	
4491	0	32348	32802	36404	
4492	0	32408	32840	36404	
4493	0	32552	32780	36388	
4494	0	32612	32740	36380	
4495	0	32620	32901	36388	
4496	0	32865	32784	36385	
4497	0	33144	32940	36389	
4498	0	33096	33157	36359	
4499	0	33212	32964	36370	
4500	0	33237	32740	36368	
4501	0	33204	32698	36343	
4502	0	33164	32644	36336	
4503	0	33116	32516	36337	
4504	0	32888	32716	36348	
4505	0	32884	32844	36368	
4506	0	32641	32920	36378	
4507	0	32456	32820	36359	
4508	0	32424	32856	36368	
4509	0	32320	32772	36355	
4510	0	32312	32697	36352	
4511	0	32332	32736	36372	
4512	0	32364	32850	36385	
4513	0	32413	32980	36383	
4514	0	32573	32932	36388	
4515	0	32816	32865	36384	
4516	0	33032	32936	36392	
4517	0	33164	32972	36388	
4518	0	33120	33065	36400	
4519	0	33168	32979	36418	
4520	0	33224	32903	36410	
4521	0	33361	32946	36388	
4522	0	33204	32892	36384	
4523	0	33092	32799	36413	
4524	0	32701	32812	36421	
4525	0	32584	32768	36418	
4526	0	32420	32775	36417	
4527	0	32502	33004	36413	
4528	0	32663	32948	36412	
4529	0	32836	32838	36417	
4530	0	32551	32760	36420	
4531	0	32304	32792	36426	
4532	0	32396	32810	36428	
4533	0	32408	32845	36436	
4534	0	32584	32732	36452	
4535	0	32777	32775	36465	
4536	0	32908	32837	36470	
4537	0	32996	32796	36468	
4538	0	33158	32768	36468	
4539	0	33196	32752	36473	
4540	0	33156	32753	36484	
4541	0	33176	32872	36508	
4542	0	33184	32864	36508	
4543	0	33273	32796	36537	
4544	0	33070	32857	36540	
4545	0	32896	32984	36559	
4546	0	32582	32829	36584	
4547	0	32460	32836	36596	
4548	0	32342	32910	36596	
4549	0	32157	32903	36612	
4550	0	32220	32946	36671	
4551	0	32356	32829	36660	
4552	0	32420	32772	36661	
4553	0	32488	32670	36664	
4554	0	32608	32714	36676	
4555	0	32836	32661	36676	
4556	0	32964	32789	36670	
4557	0	33056	32935	36652	
4558	0	33116	32940	36648	
4559	0	33064	32824	36639	
4560	0	33124	32772	36640	
4561	0	33249	32736	36658	
4562	0	33236	32854	36656	
4563	0	33318	32860	36660	
4564	0	32988	32837	36661	
4565	0	33044	32892	36648	
4566	0	32752	32896	36649	
4567	0	32500	32972	36664	
4568	0	32384	32876	36676	
4569	0	32145	32892	36674	
4570	0	32226	32796	36680	
4571	0	32288	32902	36670	
4572	0	32362	32950	36678	
4573	0	32512	32775	36673	
4574	0	32644	32788	36680	
4575	0	32824	32884	36680	
4576	0	32952	32952	36668	
4577	0	33056	33052	36660	
4578	0	33118	32712	36656	
4579	0	33192	32392	36664	
4580	0	33252	32734	36666	
4581	0	33224	32692	36652	
4582	0	33108	32676	36633	
4583	0	32858	32696	36629	
4584	0	32949	32850	36640	
4585	0	32900	32944	36641	
4586	0	32656	32919	36656	
4587	0	32564	33000	36660	
4588	0	32408	32764	36664	
4589	0	32340	32792	36668	
4590	0	32264	32868	36688	
4591	0	32356	32812	36676	
4592	0	32448	32733	36668	
4593	0	32628	32898	36664	
4594	0	32688	32879	36668	
4595	0	32646	32816	36652	
4596	0	32620	32739	36644	
4597	0	33013	32760	36642	
4598	0	33216	32992	36632	
4599	0	33420	32832	36632	
4600	0	33640	32662	36644	
4601	0	33484	32852	36647	
4602	0	33185	32878	36620	
4603	0	33014	32826	36604	
4604	0	32828	32892	36636	
4605	0	32676	32876	36638	
4606	0	32408	32896	36652	
4607	0	32440	32980	36644	
4608	0	32356	32856	36652	
4609	0	32281	32824	36649	
4610	0	32256	32813	36634	
4611	0	32378	32751	36636	
4612	0	32492	32800	36640	
4613	0	32594	32840	36620	
4614	0	32696	32860	36644	
4615	0	32744	32762	36636	
4616	0	32948	32744	36632	
4617	0	33120	32753	36631	
4618	0	33212	32760	36628	
4619	0	33189	32856	36624	
4620	0	33208	32854	36620	
4621	0	33189	32834	36612	
4622	0	33100	32820	36612	
4623	0	33020	32725	36605	
4624	0	32888	32726	36610	
4625	0	32892	32962	36612	
4626	0	32737	33070	36612	
4627	0	32552	33008	36636	
4628	0	32388	32980	36608	
4629	0	32412	32950	36612	
4630	0	32409	32968	36608	
4631	0	32312	32812	36589	
4632	0	32488	32714	36564	
