# OpenSignals Text File Format
# {"00:07:80:4D:2E:AD": {"sensor": ["EMG", "EMG", "XYZ"], "device name": "00:07:80:4D:2E:AD", "column": ["nSeq", "DI", "CH1", "CH2", "CH3"], "sync interval": 2, "time": "15:32:40.586", "comments": "paper | ch1_flexor_digitorum_superficialis ch2_aductor_policis ch3_acc_z [trial 4]", "device connection": "BTH00:07:80:4D:2E:AD", "channels": [1, 2, 3], "keywords": "", "mode": 0, "digital IO": [0, 1], "firmware version": 773, "device": "biosignalsplux", "position": 0, "sampling rate": 1000, "label": ["CH1", "CH2", "CH3"], "resolution": [16, 16, 16], "date": "2019-1-23", "special": [{}, {}, {}]}}
# EndOfHeader
0	0	32880	32842	36036	
1	0	32726	32788	36012	
2	0	32596	32809	36028	
3	0	32608	32824	36021	
4	0	32552	32892	36028	
5	0	32600	32781	36004	
6	0	32613	32840	36029	
7	0	32668	32935	36026	
8	0	32684	32929	36024	
9	0	32704	32876	36022	
10	0	32804	32908	36016	
11	0	32884	32846	36000	
12	0	32873	32892	35992	
13	0	32925	32888	35992	
14	0	32916	32727	36016	
15	0	32961	32700	36004	
16	0	33036	32753	36004	
17	0	33005	32860	36008	
18	0	32885	32814	36005	
19	0	32918	32740	36017	
20	0	32826	32783	36008	
21	0	32728	32766	36032	
22	0	32620	32966	36034	
23	0	32604	32821	36068	
24	0	32564	32785	36072	
25	0	32604	32837	36064	
26	0	32612	32848	36044	
27	0	32616	32825	36044	
28	0	32656	32814	36028	
29	0	32712	32769	36036	
30	0	32736	32812	36041	
31	0	32904	32909	36008	
32	0	32900	32893	36030	
33	0	32916	32838	36036	
34	0	32924	32804	36009	
35	0	32972	32748	36008	
36	0	32976	32760	36020	
37	0	32966	32664	36012	
38	0	32956	32748	36020	
39	0	32864	32820	36012	
40	0	32764	32838	36028	
41	0	32714	32924	36038	
42	0	32752	32863	36045	
43	0	32652	32794	36040	
44	0	32632	32836	36020	
45	0	32600	32794	36025	
46	0	32616	32866	36016	
47	0	32653	32919	36029	
48	0	32640	32969	36037	
49	0	32740	32880	36034	
50	0	32796	32808	36044	
51	0	32824	32761	36054	
52	0	32928	32782	36020	
53	0	32968	32784	36000	
54	0	33000	32748	35988	
55	0	33064	32764	35988	
56	0	32964	32680	35989	
57	0	32948	32804	36002	
58	0	32944	32878	36008	
59	0	32852	32753	35994	
60	0	32778	32809	36008	
61	0	32712	32852	35988	
62	0	32628	32917	35988	
63	0	32652	32908	36008	
64	0	32556	32852	35998	
65	0	32592	32909	35990	
66	0	32568	32876	35997	
67	0	32592	32840	35987	
68	0	32658	32878	36001	
69	0	32680	32830	35999	
70	0	32768	32929	35992	
71	0	32904	32932	35988	
72	0	32940	32888	35983	
73	0	32892	32868	35972	
74	0	32932	32794	35984	
75	0	32972	32720	35977	
76	0	32964	32700	35988	
77	0	32924	32738	35996	
78	0	32992	32780	35985	
79	0	33004	32806	35988	
80	0	32828	32869	36005	
81	0	32696	32902	36004	
82	0	32672	32954	36008	
83	0	32664	32912	36020	
84	0	32632	32890	35984	
85	0	32600	32828	35976	
86	0	32540	32838	35997	
87	0	32644	32874	36000	
88	0	32660	32769	35996	
89	0	32758	32943	36000	
90	0	32724	32900	36004	
91	0	32848	32820	36027	
92	0	32973	32848	36006	
93	0	32920	32936	36006	
94	0	32952	32720	36024	
95	0	32984	32656	36024	
96	0	32888	32656	36012	
97	0	32849	32784	36016	
98	0	32932	32877	36004	
99	0	32884	32844	36021	
100	0	32824	32852	36028	
101	0	32676	32900	36017	
102	0	32656	32860	35972	
103	0	32637	32936	36000	
104	0	32684	32880	36008	
105	0	32609	32888	36012	
106	0	32572	32916	36020	
107	0	32637	32909	36016	
108	0	32684	32900	36016	
109	0	32728	32800	35986	
110	0	32672	32820	35987	
111	0	32768	32728	35989	
112	0	32948	32752	35992	
113	0	32940	32788	35976	
114	0	32885	32821	35977	
115	0	32984	32748	35984	
116	0	32992	32748	35993	
117	0	32988	32759	36008	
118	0	32945	32818	36004	
119	0	32878	32796	36022	
120	0	32801	32820	36014	
121	0	32801	32901	36006	
122	0	32729	32885	35996	
123	0	32597	32844	35992	
124	0	32544	32974	35993	
125	0	32496	32873	36001	
126	0	32516	32849	36007	
127	0	32628	32906	36001	
128	0	32601	32760	35988	
129	0	32766	32840	35976	
130	0	32800	32775	35978	
131	0	32857	32738	35972	
132	0	32912	32897	35960	
133	0	32932	32893	35968	
134	0	33000	32820	35960	
135	0	32954	32766	35944	
136	0	33008	32740	35952	
137	0	32936	32765	35945	
138	0	32985	32855	35949	
139	0	32924	32783	35968	
140	0	32864	32924	35974	
141	0	32712	32906	35999	
142	0	32592	32881	35998	
143	0	32593	32809	35982	
144	0	32600	32791	35992	
145	0	32598	32812	36004	
146	0	32556	32974	35991	
147	0	32588	32893	36002	
148	0	32676	32884	36008	
149	0	32692	32868	36012	
150	0	32752	32721	36004	
151	0	32808	32809	36008	
152	0	32884	32835	36004	
153	0	32900	32791	36000	
154	0	32956	32754	35992	
155	0	32948	32776	35978	
156	0	33034	32728	35972	
157	0	32946	32729	35967	
158	0	32980	32784	36004	
159	0	32964	32804	35990	
160	0	32860	32742	35972	
161	0	32784	32820	35990	
162	0	32678	32862	35987	
163	0	32568	32837	36004	
164	0	32544	32960	36024	
165	0	32556	32992	36012	
166	0	32548	32917	36004	
167	0	32684	32820	36004	
168	0	32656	32892	36004	
169	0	32694	32831	35998	
170	0	32834	32824	35986	
171	0	32836	32854	35980	
172	0	32932	32839	35978	
173	0	32974	32952	35973	
174	0	32893	32792	35968	
175	0	32908	32804	35969	
176	0	32924	32748	35973	
177	0	32988	32813	35983	
178	0	32880	32850	35996	
179	0	32928	32780	36001	
180	0	32776	32801	36028	
181	0	32704	32788	36028	
182	0	32684	32868	36032	
183	0	32668	32900	36044	
184	0	32522	32956	36045	
185	0	32560	32898	36040	
186	0	32576	32868	36068	
187	0	32580	32878	36064	
188	0	32684	32912	36044	
189	0	32728	32892	36041	
190	0	32756	32848	36025	
191	0	32864	32752	36013	
192	0	32894	32872	36020	
193	0	32924	32765	36012	
194	0	32964	32762	36037	
195	0	32996	32714	36032	
196	0	32928	32720	36016	
197	0	33009	32740	36025	
198	0	32944	32721	36020	
199	0	32900	32792	36014	
200	0	32860	32821	36014	
201	0	32744	32836	36020	
202	0	32764	32882	36020	
203	0	32605	32894	36014	
204	0	32566	32801	36009	
205	0	32553	32836	36002	
206	0	32540	32794	35996	
207	0	32672	32838	35988	
208	0	32668	32868	35984	
209	0	32692	32849	35984	
210	0	32824	32981	35980	
211	0	32828	32863	35950	
212	0	32932	32920	35956	
213	0	32916	32896	35944	
214	0	32924	32715	35964	
215	0	32944	32738	35984	
216	0	33004	32812	35968	
217	0	32944	32866	35953	
218	0	32876	32818	35952	
219	0	32874	32816	35965	
220	0	32756	32788	35964	
221	0	32744	32796	35972	
222	0	32652	32989	35985	
223	0	32544	32916	35982	
224	0	32628	32940	35976	
225	0	32600	32836	35968	
226	0	32588	32820	35973	
227	0	32580	32844	35968	
228	0	32688	32900	35988	
229	0	32716	32876	36008	
230	0	32778	32766	35993	
231	0	32820	32848	35984	
232	0	32844	32924	35988	
233	0	32900	32838	35996	
234	0	32948	32778	35968	
235	0	32996	32828	35962	
236	0	32988	32733	35980	
237	0	32992	32753	35974	
238	0	32900	32839	35976	
239	0	32916	32775	35984	
240	0	32840	32727	35974	
241	0	32788	32772	36007	
242	0	32716	32981	36009	
243	0	32664	32853	36002	
244	0	32596	32847	36000	
245	0	32556	32894	35998	
246	0	32504	32888	35980	
247	0	32576	32862	36004	
248	0	32613	32882	35988	
249	0	32676	32844	35980	
250	0	32808	32868	35972	
251	0	32837	32836	35958	
252	0	32880	32884	35950	
253	0	32896	32868	35941	
254	0	32982	32868	35938	
255	0	32952	32832	35934	
256	0	33000	32732	35928	
257	0	32980	32737	35952	
258	0	32916	32764	35961	
259	0	32888	32775	35969	
260	0	32854	32840	35972	
261	0	32806	32828	35978	
262	0	32728	32920	35992	
263	0	32652	32872	35988	
264	0	32496	32868	36012	
265	0	32532	32871	36033	
266	0	32584	32821	36032	
267	0	32661	32744	36032	
268	0	32644	32920	36026	
269	0	32648	32873	36016	
270	0	32800	32885	36004	
271	0	32972	32865	35980	
272	0	32912	32828	35985	
273	0	32953	32848	35977	
274	0	32972	32736	35997	
275	0	32964	32750	35981	
276	0	33000	32753	35988	
277	0	32980	32728	35988	
278	0	32932	32726	35986	
279	0	32880	32768	35984	
280	0	32780	32842	35983	
281	0	32733	32964	35998	
282	0	32596	32916	36024	
283	0	32664	32892	36026	
284	0	32692	32801	36038	
285	0	32621	32789	36042	
286	0	32548	32844	36029	
287	0	32560	32868	36032	
288	0	32629	33006	36005	
289	0	32692	32917	36016	
290	0	32788	32799	35996	
291	0	32856	32736	35969	
292	0	32916	32797	35952	
293	0	32938	32836	35966	
294	0	32962	32852	35961	
295	0	32909	32804	35956	
296	0	32901	32728	35984	
297	0	32932	32748	35990	
298	0	32886	32716	36001	
299	0	32886	32806	36000	
300	0	32796	32792	36004	
301	0	32748	32864	36006	
302	0	32689	32924	35988	
303	0	32620	32804	35992	
304	0	32613	32857	36005	
305	0	32552	32830	36028	
306	0	32568	32868	36016	
307	0	32620	32858	36005	
308	0	32636	32934	36004	
309	0	32684	32944	36006	
310	0	32720	32985	35996	
311	0	32845	32784	35984	
312	0	32894	32808	36008	
313	0	32912	32752	35992	
314	0	32961	32836	35998	
315	0	32948	32841	35981	
316	0	33036	32724	35968	
317	0	32992	32721	35948	
318	0	32869	32749	35984	
319	0	32916	32750	35997	
320	0	32808	32790	36004	
321	0	32764	32861	35991	
322	0	32712	32952	35988	
323	0	32596	32944	36008	
324	0	32537	32872	36012	
325	0	32582	32764	36011	
326	0	32596	32900	36000	
327	0	32648	32856	36000	
328	0	32676	32900	35997	
329	0	32649	32820	35988	
330	0	32804	32812	35980	
331	0	32732	32785	35972	
332	0	32876	32920	35975	
333	0	32924	32785	35950	
334	0	32952	32722	35960	
335	0	32964	32716	35956	
336	0	32996	32792	35964	
337	0	33028	32753	35976	
338	0	33012	32848	35989	
339	0	32865	32792	35988	
340	0	32834	32684	36005	
341	0	32754	32792	35996	
342	0	32636	32874	35994	
343	0	32609	32896	36008	
344	0	32540	32952	36028	
345	0	32594	32864	36012	
346	0	32580	32840	36005	
347	0	32590	32788	36020	
348	0	32652	32941	36000	
349	0	32692	32909	36004	
350	0	32848	32860	36003	
351	0	32893	32841	35999	
352	0	32968	32912	35986	
353	0	32805	32875	35980	
354	0	32908	32676	35982	
355	0	32896	32738	35992	
356	0	32984	32729	35972	
357	0	32932	32805	35992	
358	0	32984	32713	35993	
359	0	32888	32716	36016	
360	0	32790	32853	36024	
361	0	32752	32832	36025	
362	0	32728	32909	36021	
363	0	32650	32889	36020	
364	0	32576	32933	36032	
365	0	32584	32788	36013	
366	0	32532	32836	35997	
367	0	32653	32885	35994	
368	0	32656	32941	35993	
369	0	32664	32900	36008	
370	0	32756	32808	35991	
371	0	32804	32800	35997	
372	0	32945	32822	35975	
373	0	32949	32895	35968	
374	0	32916	32782	35972	
375	0	32972	32814	35957	
376	0	33004	32762	35972	
377	0	32968	32716	35985	
378	0	32960	32742	35977	
379	0	33020	32748	35972	
380	0	32856	32812	35985	
381	0	32784	32860	35998	
382	0	32700	32910	35992	
383	0	32568	32837	35990	
384	0	32496	32882	35976	
385	0	32624	32905	35974	
386	0	32519	32968	35972	
387	0	32584	32892	36000	
388	0	32617	32832	35990	
389	0	32716	32812	35978	
390	0	32788	32775	35970	
391	0	32796	32881	35965	
392	0	32868	32812	35956	
393	0	32841	32806	35975	
394	0	33016	32752	35964	
395	0	32992	32762	35940	
396	0	33000	32807	35944	
397	0	32984	32776	35966	
398	0	32964	32734	35969	
399	0	32924	32740	35988	
400	0	32829	32900	35989	
401	0	32746	32868	35968	
402	0	32798	32845	35973	
403	0	32686	32890	35988	
404	0	32632	32876	35981	
405	0	32528	32868	36004	
406	0	32564	32884	36016	
407	0	32604	32824	36018	
408	0	32602	32818	36000	
409	0	32696	32878	36003	
410	0	32728	32849	35997	
411	0	32746	32848	35972	
412	0	32836	32853	35977	
413	0	33021	32864	35984	
414	0	32996	32877	35990	
415	0	32944	32756	36004	
416	0	33024	32764	35998	
417	0	33060	32788	36002	
418	0	32948	32852	35999	
419	0	32876	32868	36012	
420	0	32844	32805	36008	
421	0	32788	32871	36000	
422	0	32688	32968	36014	
423	0	32638	32968	36045	
424	0	32592	32862	36056	
425	0	32628	32928	36053	
426	0	32622	32846	36054	
427	0	32616	32856	36060	
428	0	32640	32780	36042	
429	0	32688	32804	36032	
430	0	32738	32812	36020	
431	0	32816	32795	36017	
432	0	32826	32772	36013	
433	0	32952	32716	35987	
434	0	32972	32813	35992	
435	0	32980	32804	35998	
436	0	32964	32836	36000	
437	0	32908	32854	36006	
438	0	32924	32862	36013	
439	0	32884	32789	36013	
440	0	32808	32774	36028	
441	0	32784	32857	36028	
442	0	32670	32897	36032	
443	0	32540	32878	36036	
444	0	32628	32877	36028	
445	0	32684	32860	36028	
446	0	32572	32788	36024	
447	0	32600	32856	36024	
448	0	32696	32842	36009	
449	0	32701	32856	36024	
450	0	32780	32889	36004	
451	0	32756	32791	35984	
452	0	32860	32868	35972	
453	0	32944	32793	35966	
454	0	32989	32780	35974	
455	0	32993	32775	35969	
456	0	32960	32762	35977	
457	0	32952	32704	35977	
458	0	32932	32722	35964	
459	0	32888	32826	35980	
460	0	32732	32857	35996	
461	0	32812	32959	36004	
462	0	32704	32930	36005	
463	0	32629	32777	35984	
464	0	32598	32890	35994	
465	0	32569	32956	36004	
466	0	32588	32924	35992	
467	0	32618	32962	35985	
468	0	32624	32928	35972	
469	0	32700	32964	35968	
470	0	32698	32884	35953	
471	0	32762	32904	35984	
472	0	32956	32884	36014	
473	0	32957	32856	36004	
474	0	32970	32733	35989	
475	0	33052	32715	35960	
476	0	32948	32745	35974	
477	0	32932	32672	35984	
478	0	32912	32668	35984	
479	0	32934	32757	35988	
480	0	32816	32816	35996	
481	0	32768	32836	36006	
482	0	32650	32844	36022	
483	0	32680	32888	36036	
484	0	32728	32876	36028	
485	0	32616	32936	36028	
486	0	32548	32912	36041	
487	0	32638	32877	36020	
488	0	32628	32860	36029	
489	0	32700	32832	36030	
490	0	32720	32873	36022	
491	0	32758	32756	36036	
492	0	32894	32740	36012	
493	0	32904	32788	36006	
494	0	33008	32740	36001	
495	0	32996	32775	35966	
496	0	33000	32760	35972	
497	0	32960	32771	35957	
498	0	32948	32708	35972	
499	0	32864	32880	36002	
500	0	32797	32812	35993	
501	0	32740	32853	35996	
502	0	32676	32900	36001	
503	0	32636	32990	36015	
504	0	32576	32926	36026	
505	0	32604	32912	36028	
506	0	32585	32901	36022	
507	0	32559	32900	36016	
508	0	32586	32916	36005	
509	0	32732	32862	36032	
510	0	32898	32832	36008	
511	0	32824	32812	36005	
512	0	32796	32828	36001	
513	0	32908	32826	36006	
514	0	32974	32854	35996	
515	0	32984	32780	36004	
516	0	33032	32774	35994	
517	0	32981	32839	35975	
518	0	32944	32892	35996	
519	0	32884	32900	35998	
520	0	32844	32799	35993	
521	0	32820	32766	36004	
522	0	32737	32805	36002	
523	0	32648	32940	36012	
524	0	32592	32866	35993	
525	0	32480	32848	35992	
526	0	32637	32829	35992	
527	0	32530	32840	36000	
528	0	32714	32908	35984	
529	0	32714	32833	35996	
530	0	32752	32896	35977	
531	0	32753	32894	35964	
532	0	32864	32801	35969	
533	0	33012	32696	35972	
534	0	33024	32752	35965	
535	0	33000	32786	35944	
536	0	33000	32872	35956	
537	0	32926	32836	35986	
538	0	32972	32706	35984	
539	0	32900	32740	35981	
540	0	32850	32812	35992	
541	0	32776	32841	36006	
542	0	32624	32824	36004	
543	0	32612	32880	36014	
544	0	32544	32863	36002	
545	0	32628	32870	36010	
546	0	32598	32748	36006	
547	0	32574	32748	36004	
548	0	32616	32800	36001	
549	0	32692	32960	36021	
550	0	32708	32948	36007	
551	0	32793	32850	36005	
552	0	32896	32866	35984	
553	0	32952	32898	35994	
554	0	32981	32816	36000	
555	0	33016	32672	36000	
556	0	32930	32672	35998	
557	0	32996	32740	35995	
558	0	32945	32752	35992	
559	0	32857	32878	35985	
560	0	32844	32904	36008	
561	0	32752	32852	36021	
562	0	32688	32824	36005	
563	0	32618	32861	36000	
564	0	32640	32980	36012	
565	0	32625	32860	35993	
566	0	32620	32772	35992	
567	0	32566	32881	35996	
568	0	32652	32900	35990	
569	0	32668	32812	35981	
570	0	32732	32825	36000	
571	0	32800	32856	35984	
572	0	32872	32869	35981	
573	0	32848	32892	35980	
574	0	32904	32767	35984	
575	0	32980	32806	36004	
576	0	32988	32815	35976	
577	0	33028	32808	35976	
578	0	32984	32898	35967	
579	0	32900	32772	35978	
580	0	32876	32773	35982	
581	0	32774	32838	35988	
582	0	32712	32871	35976	
583	0	32681	32846	35989	
584	0	32552	32878	35992	
585	0	32550	32924	35998	
586	0	32590	32836	36009	
587	0	32701	32894	36012	
588	0	32588	32886	36005	
589	0	32764	32908	36005	
590	0	32720	32874	35994	
591	0	32760	32709	35992	
592	0	32828	32797	35990	
593	0	32890	32781	35980	
594	0	32908	32834	35976	
595	0	33028	32732	35976	
596	0	33076	32736	35984	
597	0	33044	32832	35994	
598	0	32928	32761	36000	
599	0	32876	32816	36020	
600	0	32744	32825	36020	
601	0	32713	32800	36024	
602	0	32816	32908	36030	
603	0	32613	32880	36020	
604	0	32600	32772	36020	
605	0	32608	32880	36016	
606	0	32537	32912	36028	
607	0	32570	32796	36038	
608	0	32573	32888	36028	
609	0	32637	32878	36026	
610	0	32776	32878	36028	
611	0	32848	32868	36003	
612	0	32941	32866	36002	
613	0	32932	32832	35989	
614	0	32928	32824	35996	
615	0	32858	32754	35999	
616	0	32980	32712	35982	
617	0	32916	32824	35976	
618	0	32962	32768	35972	
619	0	32904	32728	35975	
620	0	32840	32856	35981	
621	0	32816	32832	35992	
622	0	32752	32981	36020	
623	0	32621	32978	36008	
624	0	32644	32976	35996	
625	0	32586	32916	35996	
626	0	32561	32880	36008	
627	0	32600	32804	36005	
628	0	32616	32876	35984	
629	0	32716	32800	35995	
630	0	32776	32748	35996	
631	0	32801	32748	35977	
632	0	32828	32753	35980	
633	0	32842	32868	35968	
634	0	32900	32732	35959	
635	0	32944	32673	35961	
636	0	33010	32664	35976	
637	0	33004	32700	35976	
638	0	32928	32794	35984	
639	0	32988	32759	35979	
640	0	32932	32808	35978	
641	0	32762	32840	35984	
642	0	32720	32976	35984	
643	0	32664	32932	35980	
644	0	32584	32917	35969	
645	0	32508	32933	35972	
646	0	32593	32938	35992	
647	0	32584	32884	35996	
648	0	32668	32858	35987	
649	0	32690	32876	35988	
650	0	32770	32833	35976	
651	0	32847	32822	35966	
652	0	32896	32864	35940	
653	0	32916	32882	35972	
654	0	32956	32757	35961	
655	0	32976	32684	35944	
656	0	32940	32660	35952	
657	0	33020	32774	35975	
658	0	32932	32864	35976	
659	0	32901	32872	35969	
660	0	32796	32881	35976	
661	0	32728	32772	35984	
662	0	32704	32743	36002	
663	0	32688	32821	36024	
664	0	32612	32865	36040	
665	0	32696	32840	36025	
666	0	32609	32844	36012	
667	0	32584	32856	36005	
668	0	32640	32838	36004	
669	0	32640	32871	36028	
670	0	32740	32789	36018	
671	0	32762	32860	36012	
672	0	32856	32847	36016	
673	0	32916	32796	36001	
674	0	32912	32696	35999	
675	0	32920	32736	35985	
676	0	32981	32774	35970	
677	0	32984	32893	35982	
678	0	32868	32786	35988	
679	0	32884	32744	35988	
680	0	32852	32809	35996	
681	0	32872	32794	36004	
682	0	32736	32896	35998	
683	0	32612	32930	36005	
684	0	32564	32832	36014	
685	0	32652	32831	36016	
686	0	32568	32927	36004	
687	0	32548	32972	36012	
688	0	32641	32769	36020	
689	0	32782	32772	36016	
690	0	32745	32821	35982	
691	0	32820	32909	35982	
692	0	32849	32773	35984	
693	0	32948	32804	35972	
694	0	32984	32852	35976	
695	0	32956	32788	35968	
696	0	32992	32861	35961	
697	0	33018	32793	35972	
698	0	32866	32694	35957	
699	0	32884	32821	35948	
700	0	32800	32839	35944	
701	0	32760	32812	35964	
702	0	32676	32836	35974	
703	0	32596	32920	35996	
704	0	32623	32838	36000	
705	0	32616	32868	35996	
706	0	32608	32924	36004	
707	0	32588	32804	35990	
708	0	32590	32837	35993	
709	0	32640	32828	36012	
710	0	32732	32859	36008	
711	0	32836	32829	36012	
712	0	32864	32725	36018	
713	0	32900	32872	36014	
714	0	32968	32828	36017	
715	0	33036	32738	35985	
716	0	33036	32815	35958	
717	0	33028	32861	35951	
718	0	32960	32753	35965	
719	0	32948	32872	35968	
720	0	32800	32853	35975	
721	0	32720	32809	36008	
722	0	32692	32860	36006	
723	0	32700	32888	35984	
724	0	32656	32801	36000	
725	0	32656	32860	35967	
726	0	32552	32847	35992	
727	0	32632	32810	35972	
728	0	32620	32864	35974	
729	0	32677	32808	35988	
730	0	32724	32784	35990	
731	0	32762	32760	35980	
732	0	32832	32762	35957	
733	0	32836	32896	35957	
734	0	32864	32884	35976	
735	0	33032	32764	35978	
736	0	32936	32724	35975	
737	0	33101	32764	35976	
738	0	33024	32813	35968	
739	0	32940	32749	35972	
740	0	32761	32805	35970	
741	0	32720	32912	35972	
742	0	32680	32920	35984	
743	0	32701	32924	35996	
744	0	32498	32964	35985	
745	0	32504	32927	35989	
746	0	32604	32936	35975	
747	0	32624	32884	35992	
748	0	32673	32791	35975	
749	0	32668	32848	35960	
750	0	32712	32836	35964	
751	0	32880	32814	35974	
752	0	32936	32894	36004	
753	0	32918	32743	35992	
754	0	32900	32728	35972	
755	0	32944	32670	35972	
756	0	32952	32741	35972	
757	0	32938	32674	35956	
758	0	32968	32724	35981	
759	0	32944	32748	35984	
760	0	32912	32784	35987	
761	0	32760	32849	36000	
762	0	32712	33022	36009	
763	0	32728	32906	36022	
764	0	32571	32988	36034	
765	0	32592	32956	36024	
766	0	32545	32740	36026	
767	0	32581	32872	36028	
768	0	32661	32894	36046	
769	0	32636	32904	36012	
770	0	32740	32758	36004	
771	0	32920	32864	36002	
772	0	32880	32828	36016	
773	0	32940	32780	36016	
774	0	32880	32762	36000	
775	0	32968	32828	35996	
776	0	32994	32744	35994	
777	0	33000	32692	35978	
778	0	32916	32773	35964	
779	0	32948	32836	35969	
780	0	32832	32812	36012	
781	0	32740	32744	36024	
782	0	32745	32832	36024	
783	0	32736	32929	36022	
784	0	32560	32868	36020	
785	0	32588	33032	36008	
786	0	32584	32900	36001	
787	0	32612	32774	36015	
788	0	32664	32820	36000	
789	0	32646	32868	36004	
790	0	32712	32852	35990	
791	0	32776	32821	35980	
792	0	32878	32811	35980	
793	0	32944	32837	35952	
794	0	33008	32816	35964	
795	0	32988	32832	35969	
796	0	33008	32822	35966	
797	0	33008	32805	35969	
798	0	32940	32741	35968	
799	0	32932	32743	35972	
800	0	32834	32929	35988	
801	0	32780	32820	35990	
802	0	32608	32856	35977	
803	0	32630	32908	36000	
804	0	32576	32846	35993	
805	0	32636	32972	35976	
806	0	32596	32802	35974	
807	0	32632	32876	35984	
808	0	32588	32812	35973	
809	0	32664	32816	35964	
810	0	32726	32728	35973	
811	0	32784	32797	35943	
812	0	32850	32873	35952	
813	0	32928	32792	35960	
814	0	32920	32794	35952	
815	0	33008	32789	35944	
816	0	33024	32844	35956	
817	0	32925	32852	35948	
818	0	32924	32750	35962	
819	0	32888	32748	35961	
820	0	32844	32848	35967	
821	0	32828	32852	35968	
822	0	32684	32896	35996	
823	0	32568	32938	36012	
824	0	32660	32860	35997	
825	0	32686	32817	36012	
826	0	32612	32836	36024	
827	0	32644	32909	36021	
828	0	32632	32852	36013	
829	0	32656	32817	35992	
830	0	32704	32862	36004	
831	0	32772	32828	35960	
832	0	32821	32694	35984	
833	0	32930	32775	35976	
834	0	32905	32822	35976	
835	0	32996	32824	35974	
836	0	32996	32820	35950	
837	0	32936	32801	35984	
838	0	32912	32840	36001	
839	0	32877	32932	35985	
840	0	32832	32775	36005	
841	0	32812	32812	36002	
842	0	32752	32916	36000	
843	0	32646	32908	36000	
844	0	32660	32826	36002	
845	0	32596	32842	36026	
846	0	32536	32796	36025	
847	0	32584	32807	36022	
848	0	32645	32836	36044	
849	0	32668	32860	36032	
850	0	32728	32836	36036	
851	0	32874	32792	36017	
852	0	32916	32776	36032	
853	0	32916	32905	36010	
854	0	32956	32775	36006	
855	0	32968	32734	36012	
856	0	32989	32807	36013	
857	0	32964	32796	36010	
858	0	32880	32896	36004	
859	0	32908	32884	36028	
860	0	32912	32770	36012	
861	0	32776	32760	36024	
862	0	32732	32832	36048	
863	0	32620	32933	36043	
864	0	32612	32852	36048	
865	0	32605	32800	36036	
866	0	32604	32848	36039	
867	0	32576	32920	36024	
868	0	32546	32836	36034	
869	0	32621	32806	36028	
870	0	32688	32869	36042	
871	0	32804	32855	36016	
872	0	32796	32863	36012	
873	0	32884	32844	36005	
874	0	32964	32832	35980	
875	0	32921	32860	35974	
876	0	32892	32785	35992	
877	0	33029	32756	35990	
878	0	33103	32768	36009	
879	0	32964	32829	36004	
880	0	32848	32760	35981	
881	0	32820	32840	35994	
882	0	32720	32976	36001	
883	0	32664	32840	36012	
884	0	32576	32844	36015	
885	0	32536	32874	36015	
886	0	32636	32836	35993	
887	0	32564	32822	36006	
888	0	32649	32752	36016	
889	0	32684	32761	36004	
890	0	32668	32894	35994	
891	0	32816	32831	35983	
892	0	32952	32820	35972	
893	0	32984	32825	35964	
894	0	32965	32824	35956	
895	0	32988	32804	35952	
896	0	32920	32850	35968	
897	0	32985	32764	35960	
898	0	32961	32736	35984	
899	0	32840	32733	36008	
900	0	32900	32724	35984	
901	0	32832	32823	35968	
902	0	32696	32938	35980	
903	0	32688	32973	36005	
904	0	32597	32852	36022	
905	0	32570	32905	35989	
906	0	32558	32891	35990	
907	0	32580	32924	35996	
908	0	32636	32908	35992	
909	0	32600	32808	35996	
910	0	32685	32817	36000	
911	0	32800	32751	35968	
912	0	32898	32964	35978	
913	0	32993	32912	35972	
914	0	33010	32812	35998	
915	0	32916	32748	35999	
916	0	32968	32700	35979	
917	0	32900	32893	35986	
918	0	32940	33188	35984	
919	0	32885	32604	35992	
920	0	32780	32720	36001	
921	0	32799	32732	35990	
922	0	32824	32770	35985	
923	0	32608	32916	36004	
924	0	32544	32892	36053	
925	0	32680	32876	36078	
926	0	32688	32833	36060	
927	0	32796	32903	36084	
928	0	32641	32937	36097	
929	0	32688	33052	36088	
930	0	32652	33033	36088	
931	0	32712	32821	36092	
932	0	32756	32869	36074	
933	0	32900	32889	36109	
934	0	32805	32804	36121	
935	0	32676	32617	36124	
936	0	32714	32616	36133	
937	0	32740	32714	36137	
938	0	32885	32892	36176	
939	0	33112	32681	36180	
940	0	33248	32768	36200	
941	0	33268	32774	36278	
942	0	33540	32856	36364	
943	0	33044	32780	36433	
944	0	32494	32626	36512	
945	0	32364	32756	36566	
946	0	32337	32740	36637	
947	0	32336	32711	36648	
948	0	32364	33012	36652	
949	0	32577	33072	36688	
950	0	32728	33073	36716	
951	0	32784	32841	36761	
952	0	32864	32921	36793	
953	0	33020	32865	36782	
954	0	33144	32757	36801	
955	0	32932	32609	36834	
956	0	32896	32568	36836	
957	0	32852	32564	36816	
958	0	32884	32580	36797	
959	0	32812	32663	36788	
960	0	32876	32805	36792	
961	0	32956	32946	36749	
962	0	32976	32793	36701	
963	0	32708	32976	36648	
964	0	32624	32980	36604	
965	0	32562	32965	36572	
966	0	32512	33136	36517	
967	0	32580	33141	36480	
968	0	32628	33046	36477	
969	0	32638	33209	36449	
970	0	32832	33308	36456	
971	0	32848	33168	36437	
972	0	32820	33099	36428	
973	0	32996	32999	36461	
974	0	33000	32714	36448	
975	0	32864	32606	36460	
976	0	32668	32669	36537	
977	0	32500	32502	36637	
978	0	32768	32356	36718	
979	0	33176	32881	36780	
980	0	32974	32864	36820	
981	0	32376	33071	36916	
982	0	32300	33116	37028	
983	0	32705	32753	37172	
984	0	33135	32525	37292	
985	0	33076	32824	37356	
986	0	32836	32900	37392	
987	0	32824	32858	37364	
988	0	32756	33042	37280	
989	0	32396	32921	37156	
990	0	31852	32724	36988	
991	0	31613	32932	36821	
992	0	31872	33280	36652	
993	0	32692	33009	36508	
994	0	34392	32484	36409	
995	0	34432	32716	36348	
996	0	33572	32844	36372	
997	0	32908	32933	36436	
998	0	32270	32528	36560	
999	0	32080	32000	36736	
1000	0	32629	32278	36888	
1001	0	33892	32440	37036	
1002	0	33600	32584	37196	
1003	0	32549	32245	37348	
1004	0	33520	31960	37500	
1005	0	33532	32057	37630	
1006	0	33016	32306	37744	
1007	0	32848	32528	37892	
1008	0	32805	32740	37861	
1009	0	31884	32804	37784	
1010	0	31769	32838	37702	
1011	0	32172	33004	37610	
1012	0	32740	32850	37569	
1013	0	32428	32968	37525	
1014	0	32400	32527	37508	
1015	0	33008	32432	37516	
1016	0	33628	32188	37496	
1017	0	33368	32356	37500	
1018	0	32901	32769	37504	
1019	0	32501	32876	37518	
1020	0	33289	33224	37488	
1021	0	32392	33038	37384	
1022	0	31985	33132	37280	
1023	0	31881	33532	37112	
1024	0	31384	33476	36993	
1025	0	32112	33399	36778	
1026	0	33164	33130	36542	
1027	0	33144	33300	36280	
1028	0	34010	33200	36048	
1029	0	34556	32596	35804	
1030	0	32892	32013	35564	
1031	0	32436	32092	35367	
1032	0	32322	32308	35164	
1033	0	32432	32430	35036	
1034	0	32637	32420	34968	
1035	0	32016	32704	34948	
1036	0	30325	32992	34934	
1037	0	29558	32775	34949	
1038	0	32216	32469	34964	
1039	0	34296	32644	35004	
1040	0	33452	33159	35088	
1041	0	33380	33041	35120	
1042	0	33928	33028	35202	
1043	0	33541	32825	35284	
1044	0	33632	32584	35380	
1045	0	33385	32913	35440	
1046	0	33076	32880	35484	
1047	0	33261	32828	35549	
1048	0	33400	32828	35590	
1049	0	33201	32960	35628	
1050	0	33060	33380	35666	
1051	0	32964	33620	35717	
1052	0	32712	33424	35736	
1053	0	32664	33188	35770	
1054	0	32853	32949	35783	
1055	0	32868	32906	35768	
1056	0	33264	33021	35752	
1057	0	33288	32751	35729	
1058	0	32700	32437	35686	
1059	0	32300	32473	35652	
1060	0	32116	32932	35652	
1061	0	31916	32850	35649	
1062	0	32116	32528	35692	
1063	0	32176	32328	35721	
1064	0	32272	32484	35836	
1065	0	32561	32516	35996	
1066	0	32608	32261	36168	
1067	0	32703	32182	36388	
1068	0	32736	32328	36574	
1069	0	32712	32800	36764	
1070	0	32948	32903	36973	
1071	0	33244	33089	37344	
1072	0	33272	33274	37400	
1073	0	33288	33148	37398	
1074	0	33277	32980	37440	
1075	0	33068	32873	37574	
1076	0	33036	32696	37668	
1077	0	33008	32856	37720	
1078	0	33024	33006	37760	
1079	0	32908	33212	37782	
1080	0	32734	33240	37814	
1081	0	32504	33192	37890	
1082	0	32312	33228	37964	
1083	0	32392	33017	37937	
1084	0	32224	33092	37912	
1085	0	32216	32984	37895	
1086	0	32512	32717	37932	
1087	0	32688	32529	37911	
1088	0	32872	32445	37919	
1089	0	33144	32408	37918	
1090	0	33076	32716	37905	
1091	0	33250	33070	37882	
1092	0	33568	33154	37876	
1093	0	33617	33244	37861	
1094	0	33644	33338	37776	
1095	0	33744	33401	37678	
1096	0	33528	33353	37609	
1097	0	33476	33193	37578	
1098	0	33466	32676	37556	
1099	0	33080	32452	37512	
1100	0	32492	32519	37480	
1101	0	31330	32676	37456	
1102	0	30328	32450	37484	
1103	0	29140	32296	37502	
1104	0	30600	32340	37516	
1105	0	31712	32636	37532	
1106	0	32993	32564	37560	
1107	0	32924	32532	37612	
1108	0	33084	32712	37724	
1109	0	33200	32789	37692	
1110	0	32924	32484	37670	
1111	0	33013	32444	37672	
1112	0	33796	32649	37717	
1113	0	33460	32901	37735	
1114	0	33648	33132	37680	
1115	0	34218	33190	37660	
1116	0	34332	33268	37604	
1117	0	34245	33384	37545	
1118	0	34104	33561	37522	
1119	0	33276	33392	37479	
1120	0	31552	33031	37424	
1121	0	30772	32856	37370	
1122	0	31976	33064	37332	
1123	0	32648	32984	37268	
1124	0	32812	32698	37224	
1125	0	33048	32958	37180	
1126	0	32532	32936	37112	
1127	0	32156	32856	37068	
1128	0	31676	32712	37052	
1129	0	32248	32336	36988	
1130	0	32844	32464	36956	
1131	0	33174	33089	36898	
1132	0	33788	33329	36822	
1133	0	33864	32754	36756	
1134	0	33376	32548	36680	
1135	0	32652	32702	36604	
1136	0	32649	32836	36541	
1137	0	32969	32360	36488	
1138	0	33260	32270	36432	
1139	0	33260	32308	36388	
1140	0	33684	32649	36340	
1141	0	33645	32535	36336	
1142	0	33172	32896	36340	
1143	0	32622	33040	36336	
1144	0	31961	33084	36364	
1145	0	31668	33144	36406	
1146	0	31433	33228	36456	
1147	0	31748	32932	36512	
1148	0	32164	32612	36562	
1149	0	32357	32440	36624	
1150	0	32256	32645	36658	
1151	0	32924	32922	36716	
1152	0	33257	32906	36765	
1153	0	33349	33064	36788	
1154	0	33552	33080	36796	
1155	0	33602	33077	36796	
1156	0	33598	33108	36788	
1157	0	33688	33060	36796	
1158	0	33096	32864	36779	
1159	0	32352	32844	36777	
1160	0	32368	32721	36756	
1161	0	32812	32613	36776	
1162	0	32356	32623	36772	
1163	0	32093	32860	36913	
1164	0	32064	32926	36804	
1165	0	31752	32884	36708	
1166	0	31776	32756	36660	
1167	0	32281	32736	36688	
1168	0	32474	32792	36685	
1169	0	32772	33037	36697	
1170	0	33008	32837	36725	
1171	0	33068	32708	36752	
1172	0	33014	32646	36788	
1173	0	33252	32673	36812	
1174	0	33422	32756	36868	
1175	0	33344	32759	36920	
1176	0	33528	32884	36956	
1177	0	34004	32856	36964	
1178	0	33236	32856	37012	
1179	0	32704	32892	37077	
1180	0	33496	33017	37141	
1181	0	32968	33026	37200	
1182	0	32348	32918	37221	
1183	0	32060	32814	37276	
1184	0	31564	32593	37340	
1185	0	31804	32524	37373	
1186	0	32093	32552	37388	
1187	0	32373	32526	37426	
1188	0	32628	32749	37440	
1189	0	32728	32782	37447	
1190	0	32973	32826	37449	
1191	0	33204	32788	37456	
1192	0	33380	32716	37440	
1193	0	33492	32745	37431	
1194	0	33572	32778	37409	
1195	0	33516	32821	37404	
1196	0	33520	32884	37368	
1197	0	33368	32969	37352	
1198	0	33128	32976	37313	
1199	0	32892	33096	37272	
1200	0	32664	33260	37256	
1201	0	32464	33011	37240	
1202	0	32292	32893	37209	
1203	0	32028	32788	37168	
1204	0	31812	32804	37124	
1205	0	31952	32593	37101	
1206	0	32198	32552	37048	
1207	0	32564	32745	37016	
1208	0	32704	32636	36965	
1209	0	33182	32653	36924	
1210	0	33096	32748	36880	
1211	0	33031	32860	36856	
1212	0	33012	32954	36820	
1213	0	32964	32856	36801	
1214	0	33025	32796	36752	
1215	0	33528	32926	36709	
1216	0	33496	32983	36652	
1217	0	33036	32796	36630	
1218	0	32448	32825	36592	
1219	0	32639	32820	36576	
1220	0	33104	32852	36581	
1221	0	32926	32985	36549	
1222	0	32564	33114	36565	
1223	0	32252	32960	36564	
1224	0	32004	32772	36564	
1225	0	32116	32829	36552	
1226	0	32320	32852	36565	
1227	0	32597	32988	36564	
1228	0	32561	33050	36553	
1229	0	32780	33012	36548	
1230	0	33068	32852	36508	
1231	0	33192	32962	36501	
1232	0	33036	32756	36484	
1233	0	33036	32829	36447	
1234	0	33220	32597	36404	
1235	0	33304	32682	36328	
1236	0	33440	32516	36268	
1237	0	32672	32672	36214	
1238	0	32377	32765	36167	
1239	0	32532	33056	36124	
1240	0	32880	33070	36086	
1241	0	32948	33103	36036	
1242	0	32736	33461	35994	
1243	0	32508	33016	35965	
1244	0	32528	32850	35960	
1245	0	32376	32697	35940	
1246	0	32136	32241	35943	
1247	0	32645	32351	35933	
1248	0	32736	32489	35948	
1249	0	32280	32649	35944	
1250	0	32312	32872	35940	
1251	0	32976	32984	35928	
1252	0	33284	33125	35933	
1253	0	33170	33106	35924	
1254	0	33916	32905	35902	
1255	0	33692	32778	35878	
1256	0	33060	32796	35884	
1257	0	33081	32740	35860	
1258	0	33053	32532	35808	
1259	0	33046	32684	35771	
1260	0	32704	32660	35716	
1261	0	32348	32753	35652	
1262	0	32372	33072	35599	
1263	0	32273	33004	35538	
1264	0	32324	33061	35460	
1265	0	32500	32966	35380	
1266	0	32628	33180	35327	
1267	0	32573	33108	35263	
1268	0	32896	32984	35212	
1269	0	32976	32676	35148	
1270	0	32952	32532	35129	
1271	0	32080	32532	35100	
1272	0	32400	32568	35102	
1273	0	32220	32785	35092	
1274	0	32484	33100	35109	
1275	0	33332	33164	35140	
1276	0	33909	33092	35196	
1277	0	34310	33084	35212	
1278	0	33524	32408	35230	
1279	0	33320	32140	35261	
1280	0	32909	32568	35284	
1281	0	31909	32701	35319	
1282	0	31732	32729	35376	
1283	0	32260	32908	35428	
1284	0	32220	33013	35450	
1285	0	32148	33046	35476	
1286	0	32365	32886	35496	
1287	0	32524	32774	35520	
1288	0	32720	32736	35544	
1289	0	32706	32854	35552	
1290	0	32932	32908	35556	
1291	0	33004	32932	35544	
1292	0	33105	32928	35563	
1293	0	33197	33001	35562	
1294	0	33252	32945	35568	
1295	0	33188	32824	35614	
1296	0	33204	32816	35640	
1297	0	33336	32892	35693	
1298	0	33109	32806	35740	
1299	0	32904	32996	35812	
1300	0	32850	32948	35844	
1301	0	32725	32940	35898	
1302	0	32513	32918	35940	
1303	0	32320	32992	36014	
1304	0	32076	33020	36100	
1305	0	32164	32888	36176	
1306	0	32288	32653	36208	
1307	0	32516	32700	36268	
1308	0	32756	32941	36324	
1309	0	33072	33000	36396	
1310	0	32892	33066	36452	
1311	0	32872	32806	36504	
1312	0	33032	32728	36568	
1313	0	33092	32892	36620	
1314	0	33278	32640	36688	
1315	0	33009	32508	36750	
1316	0	32764	32512	36793	
1317	0	32888	32628	36852	
1318	0	33244	32852	36908	
1319	0	33064	32862	36966	
1320	0	32772	33108	37012	
1321	0	32564	32961	37049	
1322	0	32744	33017	37069	
1323	0	32738	32983	37089	
1324	0	32020	32948	37120	
1325	0	31892	32864	37130	
1326	0	32226	32932	37137	
1327	0	32357	32950	37168	
1328	0	32456	32876	37178	
1329	0	32752	32764	37198	
1330	0	33124	32852	37205	
1331	0	33308	32855	37212	
1332	0	33140	32715	37230	
1333	0	33056	32700	37256	
1334	0	32797	33016	37261	
1335	0	32840	32925	37255	
1336	0	33041	32557	37260	
1337	0	33252	32605	37270	
1338	0	33532	32676	37281	
1339	0	33512	32647	37273	
1340	0	33445	32926	37225	
1341	0	32808	32889	37191	
1342	0	32186	33045	37176	
1343	0	31804	33108	37152	
1344	0	32000	33016	37120	
1345	0	32217	33101	37088	
1346	0	32732	33056	37056	
1347	0	32888	32817	36976	
1348	0	33165	32726	36934	
1349	0	32612	32656	36885	
1350	0	32254	32753	36837	
1351	0	32268	32726	36776	
1352	0	32989	32948	36717	
1353	0	34024	32980	36684	
1354	0	33392	32952	36652	
1355	0	33172	32848	36604	
1356	0	32992	32861	36580	
1357	0	33384	32980	36560	
1358	0	32960	33078	36525	
1359	0	32377	33153	36487	
1360	0	32188	33128	36439	
1361	0	32328	33018	36404	
1362	0	32460	33300	36364	
1363	0	32832	33261	36324	
1364	0	32580	32942	36252	
1365	0	32556	32621	36184	
1366	0	32388	32474	36112	
1367	0	32189	32256	36036	
1368	0	32253	32007	35960	
1369	0	32440	32132	35892	
1370	0	32801	32424	35822	
1371	0	32924	32565	35732	
1372	0	33056	32745	35722	
1373	0	33360	32940	35673	
1374	0	33252	33143	35629	
1375	0	33200	33135	35572	
1376	0	33346	33048	35556	
1377	0	33289	33208	35534	
1378	0	33089	33031	35532	
1379	0	33018	32718	35553	
1380	0	32884	32798	35561	
1381	0	32521	32799	35604	
1382	0	32772	32965	35643	
1383	0	32892	32966	35665	
1384	0	32404	32892	35719	
1385	0	32064	32828	35792	
1386	0	31544	32966	35840	
1387	0	31600	33076	35906	
1388	0	32689	32902	35972	
1389	0	33444	32952	36048	
1390	0	33688	32796	36168	
1391	0	33664	32766	36244	
1392	0	33109	32781	36348	
1393	0	32628	32914	36432	
1394	0	32436	32752	36500	
1395	0	32600	32461	36554	
1396	0	32894	32770	36628	
1397	0	33056	32900	36664	
1398	0	34077	32790	36688	
1399	0	33344	32772	36758	
1400	0	32886	32665	36797	
1401	0	32716	32775	36812	
1402	0	32448	32758	36828	
1403	0	32056	32756	36836	
1404	0	32156	32652	36836	
1405	0	32378	32664	36836	
1406	0	32336	32740	36813	
1407	0	32426	32760	36805	
1408	0	32736	32745	36816	
1409	0	32722	32901	36796	
1410	0	32647	32900	36796	
1411	0	32636	32904	36764	
1412	0	32685	32912	36748	
1413	0	32880	32833	36732	
1414	0	33012	32972	36708	
1415	0	33272	32896	36688	
1416	0	33576	33086	36648	
1417	0	33624	33208	36615	
1418	0	33644	33052	36590	
1419	0	33028	33108	36580	
1420	0	32800	33000	36528	
1421	0	32668	32841	36488	
1422	0	32620	32846	36487	
1423	0	32478	32845	36452	
1424	0	32261	32919	36396	
1425	0	32264	32737	36359	
1426	0	32224	32460	36307	
1427	0	32220	32348	36268	
1428	0	32336	32646	36252	
1429	0	32581	32696	36232	
1430	0	32684	32760	36192	
1431	0	32960	32720	36172	
1432	0	33324	32932	36138	
1433	0	33368	33028	36105	
1434	0	33288	33152	36083	
1435	0	33188	33040	36075	
1436	0	33042	32956	36068	
1437	0	33036	32911	36080	
1438	0	32880	32816	36100	
1439	0	32594	32546	36124	
1440	0	32420	32796	36120	
1441	0	32328	32875	36121	
1442	0	32532	32942	36120	
1443	0	32845	32988	36152	
1444	0	32954	32812	36149	
1445	0	32996	32888	36144	
1446	0	32612	33164	36156	
1447	0	32304	33188	36132	
1448	0	32328	33097	36140	
1449	0	32584	32813	36149	
1450	0	32660	32726	36148	
1451	0	32832	32561	36108	
1452	0	32888	32676	36093	
1453	0	33132	32785	36086	
1454	0	33272	32933	36062	
1455	0	33197	32984	36042	
1456	0	33200	32968	36017	
1457	0	32992	32935	35990	
1458	0	32724	32826	35956	
1459	0	32696	32917	35930	
1460	0	32732	32930	35920	
1461	0	32768	32709	35884	
1462	0	32848	32660	35862	
1463	0	32944	32816	35852	
1464	0	32556	32852	35832	
1465	0	32352	32704	35832	
1466	0	32623	32758	35792	
1467	0	32596	32824	35808	
1468	0	32388	32865	35837	
1469	0	32340	32748	35852	
1470	0	32432	32974	35892	
1471	0	32854	33024	35916	
1472	0	32956	32701	35984	
1473	0	33089	32668	36033	
1474	0	33053	32650	36092	
1475	0	33077	32682	36172	
1476	0	33208	32764	36253	
1477	0	33112	32898	36352	
1478	0	33272	32911	36429	
1479	0	33368	33104	36532	
1480	0	33172	33105	36648	
1481	0	32752	33164	36733	
1482	0	32448	33093	36836	
1483	0	32232	32856	36940	
1484	0	32084	32730	37052	
1485	0	32008	32544	37148	
1486	0	32190	32400	37229	
1487	0	32536	32300	37310	
1488	0	32762	32432	37407	
1489	0	32632	32652	37484	
1490	0	32552	32865	37572	
1491	0	32770	32958	37664	
1492	0	33197	32996	37745	
1493	0	33640	32841	37820	
1494	0	33680	32936	37895	
1495	0	33432	32954	37981	
1496	0	32970	32752	38061	
1497	0	32842	32996	38148	
1498	0	32864	33064	38240	
1499	0	32820	32930	38303	
1500	0	32756	32674	38372	
1501	0	32597	32818	38480	
1502	0	32460	32869	38548	
1503	0	32419	32736	38633	
1504	0	32344	32728	38700	
1505	0	32280	32784	38748	
1506	0	32409	32893	38788	
1507	0	32480	32826	38799	
1508	0	32568	32824	38804	
1509	0	32696	32758	38840	
1510	0	32828	32812	38846	
1511	0	32849	32624	38824	
1512	0	33020	32640	38804	
1513	0	33169	32734	38804	
1514	0	33164	32704	38790	
1515	0	32982	32909	38751	
1516	0	32928	32872	38736	
1517	0	32836	32988	38852	
1518	0	32685	33116	38603	
1519	0	32936	33149	38448	
1520	0	33324	33256	38404	
1521	0	33509	33295	38349	
1522	0	33268	33132	38300	
1523	0	32964	32784	38225	
1524	0	32418	32436	38170	
1525	0	31816	32428	38108	
1526	0	31956	32508	38046	
1527	0	32404	32432	37976	
1528	0	32576	32508	37884	
1529	0	32920	32689	37799	
1530	0	32968	32669	37724	
1531	0	32816	32889	37652	
1532	0	32676	33069	37569	
1533	0	32096	33127	37493	
1534	0	33604	33100	37396	
1535	0	33789	33159	37308	
1536	0	33161	32960	37201	
1537	0	33008	32902	37148	
1538	0	32952	32932	37092	
1539	0	33068	32924	37032	
1540	0	32904	32842	36980	
1541	0	32768	32796	36934	
1542	0	32424	32764	36861	
1543	0	32462	32676	36810	
1544	0	32196	32698	36766	
1545	0	32008	32828	36717	
1546	0	31964	32760	36668	
1547	0	32484	32826	36596	
1548	0	32854	32628	36550	
1549	0	32888	32712	36511	
1550	0	32845	32880	36434	
1551	0	33088	33052	36373	
1552	0	33017	32956	36324	
1553	0	33008	32860	36288	
1554	0	33117	32677	36222	
1555	0	33184	32678	36148	
1556	0	33204	33077	36103	
1557	0	33016	33206	36032	
1558	0	33033	32989	35964	
1559	0	33080	32852	35898	
1560	0	32725	32704	35841	
1561	0	32518	32652	35800	
1562	0	32396	32844	35765	
1563	0	32372	32676	35722	
1564	0	32456	32809	35708	
1565	0	32553	32698	35700	
1566	0	32624	32766	35678	
1567	0	32540	32792	35653	
1568	0	32456	32852	35640	
1569	0	32696	32917	35648	
1570	0	32788	32935	35652	
1571	0	32884	32884	35678	
1572	0	32832	32768	35702	
1573	0	32844	32791	35730	
1574	0	32900	32880	35772	
1575	0	33284	32782	35806	
1576	0	33384	32708	35861	
1577	0	33532	32772	35900	
1578	0	33572	32762	35940	
1579	0	33212	32852	36004	
1580	0	32788	32854	36057	
1581	0	32584	32966	36080	
1582	0	32196	32976	36120	
1583	0	31781	32926	36152	
1584	0	31796	32836	36197	
1585	0	32260	32722	36238	
1586	0	32548	33048	36282	
1587	0	32944	33006	36336	
1588	0	33032	32704	36360	
1589	0	32820	32377	36380	
1590	0	32812	32465	36404	
1591	0	32901	32557	36430	
1592	0	32804	32756	36456	
1593	0	32892	33003	36452	
1594	0	33144	32846	36461	
1595	0	33208	32809	36460	
1596	0	33210	32845	36456	
1597	0	33140	32932	36477	
1598	0	32848	33092	36481	
1599	0	32772	32996	36512	
1600	0	32760	32886	36524	
1601	0	32744	32980	36549	
1602	0	32904	33089	36544	
1603	0	32904	32864	36558	
1604	0	32585	32774	36588	
1605	0	32284	32826	36572	
1606	0	32288	32629	36564	
1607	0	32256	32703	36574	
1608	0	32360	32808	36591	
1609	0	32352	32897	36588	
1610	0	32673	32880	36601	
1611	0	32828	32929	36600	
1612	0	33128	32825	36596	
1613	0	33272	33221	36592	
1614	0	34068	33180	36578	
1615	0	33168	32854	36598	
1616	0	33008	32556	36620	
1617	0	33260	32577	36644	
1618	0	33094	32428	36656	
1619	0	33148	32377	36656	
1620	0	32724	32757	36693	
1621	0	32000	32812	36705	
1622	0	32232	32836	36709	
1623	0	32316	32897	36743	
1624	0	31916	32925	36726	
1625	0	31984	32850	36748	
1626	0	32084	32900	36748	
1627	0	32156	32996	36734	
1628	0	32692	32877	36740	
1629	0	33212	32775	36740	
1630	0	33025	32696	36729	
1631	0	33072	32793	36700	
1632	0	33161	32912	36705	
1633	0	33008	32906	36681	
1634	0	33196	32919	36664	
1635	0	33488	32812	36636	
1636	0	33529	32780	36614	
1637	0	33488	32856	36580	
1638	0	33273	32881	36577	
1639	0	32789	33052	36589	
1640	0	32356	32812	36596	
1641	0	32388	32856	36620	
1642	0	32609	32944	36644	
1643	0	32720	33109	36660	
1644	0	32800	32822	36685	
1645	0	32892	32636	36700	
1646	0	32524	32692	36729	
1647	0	32192	32668	36757	
1648	0	32432	32798	36816	
1649	0	32344	32724	36838	
1650	0	32197	32808	36834	
1651	0	32800	32742	36860	
1652	0	33098	32700	36864	
1653	0	33100	32821	36900	
1654	0	33244	32841	36868	
1655	0	33304	32813	36870	
1656	0	33150	32809	36859	
1657	0	33156	32805	36821	
1658	0	33088	32840	36791	
1659	0	32880	32908	36792	
1660	0	32712	32932	36756	
1661	0	32516	32952	36740	
1662	0	32256	32920	36692	
1663	0	32076	33040	36661	
1664	0	32272	32869	36640	
1665	0	32580	32892	36615	
1666	0	32860	32916	36590	
1667	0	32908	32932	36548	
1668	0	32996	32794	36516	
1669	0	32936	32624	36484	
1670	0	32596	32668	36440	
1671	0	32628	32384	36382	
1672	0	32832	32424	36348	
1673	0	32960	32632	36317	
1674	0	33052	32936	36296	
1675	0	33168	32968	36266	
1676	0	33176	32976	36241	
1677	0	32984	33110	36244	
1678	0	32848	33086	36228	
1679	0	32880	32922	36216	
1680	0	32917	32872	36231	
1681	0	32878	32800	36260	
1682	0	32966	32712	36253	
1683	0	32650	32918	36267	
1684	0	32360	32822	36288	
1685	0	32224	32893	36298	
1686	0	32364	32951	36292	
1687	0	32320	32993	36314	
1688	0	32325	32853	36308	
1689	0	32524	32856	36314	
1690	0	32844	32788	36324	
1691	0	32948	32854	36340	
1692	0	33176	32529	36320	
1693	0	33258	32552	36324	
1694	0	33220	32918	36344	
1695	0	33180	32937	36333	
1696	0	32968	32969	36342	
1697	0	32926	32824	36336	
1698	0	32944	32884	36318	
1699	0	33009	32864	36340	
1700	0	32884	32696	36321	
1701	0	32604	32720	36330	
1702	0	32540	32837	36324	
1703	0	32480	32876	36359	
1704	0	32306	32861	36359	
1705	0	32316	32781	36348	
1706	0	32372	32688	36353	
1707	0	32484	32668	36340	
1708	0	32532	32638	36334	
1709	0	32673	32834	36352	
1710	0	32856	32897	36359	
1711	0	32870	32948	36370	
1712	0	32917	32954	36392	
1713	0	33132	33112	36396	
1714	0	33060	32998	36436	
1715	0	33228	32894	36457	
1716	0	33290	32910	36447	
1717	0	33116	32796	36456	
1718	0	32716	32808	36482	
1719	0	32680	32876	36516	
1720	0	32697	32852	36513	
1721	0	32698	32568	36536	
1722	0	33012	32858	36549	
1723	0	33018	33020	36544	
1724	0	32838	33116	36560	
1725	0	32416	32928	36588	
1726	0	32508	32912	36568	
1727	0	32252	32836	36580	
1728	0	32168	32921	36572	
1729	0	32224	32868	36597	
1730	0	32384	32775	36597	
1731	0	32818	32686	36615	
1732	0	33150	32704	36612	
1733	0	33604	32645	36594	
1734	0	33496	32796	36582	
1735	0	33292	32557	36557	
1736	0	33348	32768	36556	
1737	0	33240	32879	36544	
1738	0	33156	32849	36549	
1739	0	33038	32972	36549	
1740	0	32906	32805	36562	
1741	0	32496	32714	36596	
1742	0	32296	32849	36601	
1743	0	32044	33080	36628	
1744	0	32104	33236	36662	
1745	0	32288	33284	36693	
1746	0	32616	32970	36724	
1747	0	32654	32576	36752	
1748	0	32680	32400	36796	
1749	0	32744	32474	36865	
1750	0	32640	32164	36893	
1751	0	32580	32580	36924	
1752	0	32724	32837	36964	
1753	0	32952	32972	36997	
1754	0	33100	32980	37021	
1755	0	33255	32951	37032	
1756	0	33492	32921	37050	
1757	0	33492	32934	37068	
1758	0	33304	32892	37076	
1759	0	33044	32864	37091	
1760	0	32824	32973	37078	
1761	0	32670	32956	37093	
1762	0	32476	32856	37092	
1763	0	32392	32927	37088	
1764	0	32356	32790	37100	
1765	0	32412	32804	37081	
1766	0	32392	32724	37092	
1767	0	32313	32756	37060	
1768	0	32193	32821	37020	
1769	0	32360	32953	37012	
1770	0	32556	32841	37020	
1771	0	32740	32790	37013	
1772	0	32864	32842	36980	
1773	0	33096	32878	36937	
1774	0	32976	32820	36916	
1775	0	32864	32805	36888	
1776	0	32409	32948	36888	
1777	0	32168	32908	36876	
1778	0	32624	33031	36840	
1779	0	32980	32976	36847	
1780	0	33361	32984	36824	
1781	0	33604	32756	36802	
1782	0	33805	32704	36760	
1783	0	34072	32814	36734	
1784	0	34064	32765	36708	
1785	0	33572	32572	36688	
1786	0	32728	32562	36662	
1787	0	32120	32657	36614	
1788	0	31810	32805	36556	
1789	0	32172	32717	36540	
1790	0	32780	32744	36484	
1791	0	32732	33016	36424	
1792	0	32065	32925	36398	
1793	0	31670	32804	36354	
1794	0	32838	32831	36312	
1795	0	33092	32768	36248	
1796	0	33209	32668	36207	
1797	0	33304	32737	36168	
1798	0	33274	32890	36156	
1799	0	32881	32990	36120	
1800	0	32764	33190	36100	
1801	0	32660	33128	36072	
1802	0	32548	32613	36056	
1803	0	32464	32784	36040	
1804	0	32417	32999	36016	
1805	0	32132	32648	36016	
1806	0	32272	32652	35994	
1807	0	32556	32784	35978	
1808	0	32608	32956	36005	
1809	0	32730	32844	36016	
1810	0	32804	32871	35992	
1811	0	32952	32856	35981	
1812	0	33180	32864	35972	
1813	0	33124	32896	35959	
1814	0	33172	32888	35950	
1815	0	33004	32720	35946	
1816	0	33096	32760	35948	
1817	0	33080	32904	35948	
1818	0	33064	32792	35926	
1819	0	33073	32932	35943	
1820	0	32772	32792	35936	
1821	0	32530	32781	35953	
1822	0	32420	32844	35956	
1823	0	32494	32909	35952	
1824	0	32508	33002	35984	
1825	0	32432	32886	36006	
1826	0	32501	32768	35992	
1827	0	32632	32862	35997	
1828	0	32484	32856	36009	
1829	0	32592	32972	36025	
1830	0	32781	33014	36049	
1831	0	32660	32551	36060	
1832	0	32858	32805	36070	
1833	0	32968	32841	36092	
1834	0	33152	32826	36121	
1835	0	33224	32654	36152	
1836	0	33288	32852	36180	
1837	0	33166	32932	36204	
1838	0	32894	32943	36237	
1839	0	32882	33056	36287	
1840	0	32934	33036	36340	
1841	0	33026	32796	36386	
1842	0	32848	32703	36392	
1843	0	32663	32666	36420	
1844	0	32524	32609	36447	
1845	0	32412	32632	36461	
1846	0	32237	32680	36501	
1847	0	32400	32672	36540	
1848	0	32524	32697	36564	
1849	0	32576	32836	36566	
1850	0	32712	32709	36601	
1851	0	32704	32736	36625	
1852	0	32804	32759	36656	
1853	0	33016	33128	36672	
1854	0	33132	33010	36696	
1855	0	33256	33030	36720	
1856	0	33168	32822	36718	
1857	0	33232	32820	36756	
1858	0	33176	32824	36781	
1859	0	33016	32840	36809	
1860	0	32988	32959	36825	
1861	0	32768	32925	36840	
1862	0	32631	32916	36870	
1863	0	32380	33001	36848	
1864	0	32296	32879	36881	
1865	0	32280	32784	36884	
1866	0	32462	32836	36892	
1867	0	32468	32738	36892	
1868	0	32522	32620	36900	
1869	0	32628	32680	36904	
1870	0	32680	32775	36888	
1871	0	32624	32870	36900	
1872	0	32924	32772	36892	
1873	0	32829	32813	36884	
1874	0	32712	32916	36888	
1875	0	32921	33072	36910	
1876	0	33080	32973	36900	
1877	0	33384	32813	36889	
1878	0	33596	32754	36877	
1879	0	33716	32668	36896	
1880	0	33304	32752	36896	
1881	0	32776	32650	36920	
1882	0	32392	32598	36953	
1883	0	32356	32842	36960	
1884	0	32184	32824	36976	
1885	0	32172	32935	36999	
1886	0	32398	32964	36980	
1887	0	32442	32964	36996	
1888	0	32417	32765	37012	
1889	0	32620	32869	37013	
1890	0	32824	32877	37006	
1891	0	32961	32836	36996	
1892	0	33108	32741	36986	
1893	0	33024	32816	36980	
1894	0	32960	33000	36940	
1895	0	33100	32950	36917	
1896	0	32885	33014	36895	
1897	0	32886	32955	36870	
1898	0	32864	32900	36836	
1899	0	33092	32740	36828	
1900	0	33268	32847	36800	
1901	0	33040	32700	36756	
1902	0	32724	32686	36726	
1903	0	32576	32752	36652	
1904	0	32264	32967	36629	
1905	0	32248	32948	36604	
1906	0	32438	32760	36561	
1907	0	32740	32622	36517	
1908	0	32504	32828	36476	
1909	0	32530	32892	36439	
1910	0	32522	32756	36423	
1911	0	32684	32588	36408	
1912	0	32888	32608	36398	
1913	0	33092	32698	36364	
1914	0	33380	32613	36344	
1915	0	33448	32772	36352	
1916	0	33440	32900	36340	
1917	0	33340	32902	36342	
1918	0	33024	32900	36346	
1919	0	32956	33030	36336	
1920	0	32820	33132	36366	
1921	0	32548	32960	36388	
1922	0	32500	33217	36366	
1923	0	32280	33310	36348	
1924	0	32308	33008	36352	
1925	0	32344	32793	36375	
1926	0	32421	32740	36370	
1927	0	32448	32489	36380	
1928	0	32584	32514	36384	
1929	0	32905	32572	36386	
1930	0	32929	32872	36408	
1931	0	32804	32432	36408	
1932	0	32692	32549	36416	
1933	0	32744	32749	36404	
1934	0	33133	32836	36400	
1935	0	33180	32964	36432	
1936	0	33053	32952	36440	
1937	0	33109	32968	36436	
1938	0	33012	33031	36468	
1939	0	33001	32932	36512	
1940	0	32834	32936	36506	
1941	0	32816	32862	36520	
1942	0	32624	32856	36537	
1943	0	32632	32910	36564	
1944	0	32388	32983	36593	
1945	0	32290	32836	36628	
1946	0	32368	32636	36641	
1947	0	32488	32684	36682	
1948	0	32352	32776	36684	
1949	0	32380	32652	36709	
1950	0	32677	32625	36740	
1951	0	33116	32596	36792	
1952	0	33509	32848	36831	
1953	0	33561	32928	36849	
1954	0	33260	32820	36860	
1955	0	33094	32778	36886	
1956	0	33027	32858	36911	
1957	0	32980	32880	36940	
1958	0	33041	32916	36968	
1959	0	32809	32828	36993	
1960	0	32896	32908	37004	
1961	0	32574	32910	37038	
1962	0	32494	32860	37085	
1963	0	32545	32830	37124	
1964	0	32613	32876	37148	
1965	0	32396	32757	37125	
1966	0	32406	32836	37152	
1967	0	32440	32917	37148	
1968	0	32538	32940	37190	
1969	0	32688	32836	37196	
1970	0	32776	32692	37196	
1971	0	32872	32720	37223	
1972	0	33009	32644	37209	
1973	0	32652	32580	37164	
1974	0	32600	32688	37160	
1975	0	32876	32626	37143	
1976	0	33151	32808	37100	
1977	0	33445	32960	37092	
1978	0	33644	33172	37066	
1979	0	33588	33284	37068	
1980	0	32990	33094	37040	
1981	0	32537	32885	37016	
1982	0	32285	32766	36999	
1983	0	32282	32960	36977	
1984	0	32220	32869	36964	
1985	0	32288	32780	36943	
1986	0	32424	32564	36920	
1987	0	32664	32625	36888	
1988	0	32631	32672	36878	
1989	0	32336	32854	36868	
1990	0	32496	32924	36832	
1991	0	32878	32876	36832	
1992	0	33212	32914	36822	
1993	0	33312	32973	36777	
1994	0	33516	32856	36765	
1995	0	33336	32748	36736	
1996	0	33030	32782	36725	
1997	0	33036	32999	36733	
1998	0	32965	33060	36708	
1999	0	32806	33132	36696	
2000	0	32596	33036	36688	
2001	0	32548	32944	36676	
2002	0	32612	32953	36648	
2003	0	32728	32774	36645	
2004	0	32696	32628	36638	
2005	0	32598	32528	36615	
2006	0	32484	32656	36601	
2007	0	32417	32762	36576	
2008	0	32514	32846	36540	
2009	0	32640	32700	36528	
2010	0	32680	32773	36484	
2011	0	32820	32997	36453	
2012	0	32876	32869	36439	
2013	0	32880	32912	36430	
2014	0	32972	32832	36412	
2015	0	32912	32985	36396	
2016	0	32824	32942	36392	
2017	0	33181	32910	36392	
2018	0	33257	33008	36389	
2019	0	33104	32949	36436	
2020	0	33024	32912	36444	
2021	0	33088	33049	36468	
2022	0	32782	33009	36481	
2023	0	32516	32926	36480	
2024	0	32417	32800	36501	
2025	0	32441	32640	36512	
2026	0	32584	32504	36500	
2027	0	32528	32584	36496	
2028	0	32444	32436	36479	
2029	0	32488	32538	36465	
2030	0	32652	32541	36461	
2031	0	32756	32704	36436	
2032	0	32940	32884	36428	
2033	0	32980	32912	36439	
2034	0	33118	32885	36424	
2035	0	33084	32718	36420	
2036	0	33180	32716	36428	
2037	0	33168	32781	36429	
2038	0	33026	32927	36428	
2039	0	32952	32916	36449	
2040	0	32788	32884	36452	
2041	0	32612	32708	36477	
2042	0	32596	32704	36487	
2043	0	32502	32830	36476	
2044	0	32512	32821	36519	
2045	0	32462	32840	36527	
2046	0	32501	32942	36544	
2047	0	32488	32960	36545	
2048	0	32560	32908	36550	
2049	0	32600	32856	36557	
2050	0	32704	33100	36580	
2051	0	32832	33004	36576	
2052	0	32980	32852	36624	
2053	0	33040	32912	36636	
2054	0	32980	33028	36641	
2055	0	33060	32862	36644	
2056	0	33184	32668	36665	
2057	0	33161	32568	36684	
2058	0	33096	32541	36696	
2059	0	32984	32774	36704	
2060	0	32880	32809	36729	
2061	0	32533	32804	36740	
2062	0	32370	32845	36768	
2063	0	32380	32940	36772	
2064	0	32316	32960	36756	
2065	0	32636	32809	36786	
2066	0	33188	32782	36773	
2067	0	32928	32809	36772	
2068	0	32532	32860	36750	
2069	0	32477	32886	36756	
2070	0	32560	32714	36740	
2071	0	32744	32766	36752	
2072	0	32792	32723	36756	
2073	0	33060	32808	36756	
2074	0	33284	33146	36772	
2075	0	33312	32666	36790	
2076	0	33086	32844	36808	
2077	0	33136	32848	36824	
2078	0	33024	32877	36844	
2079	0	32692	32999	36852	
2080	0	32812	33012	36848	
2081	0	32773	32881	36884	
2082	0	32404	32932	36909	
2083	0	32300	32829	36918	
2084	0	32128	32685	36924	
2085	0	32440	32616	36927	
2086	0	32816	32748	36928	
2087	0	33081	32832	36960	
2088	0	32988	33028	36964	
2089	0	32664	32876	36980	
2090	0	32518	32876	36988	
2091	0	32588	32909	36993	
2092	0	32780	32846	37009	
2093	0	32894	32645	37032	
2094	0	33049	32618	37032	
2095	0	33244	32633	37036	
2096	0	33193	32806	37045	
2097	0	32976	32741	37038	
2098	0	33005	32758	37056	
2099	0	32986	32908	37057	
2100	0	32772	32968	37066	
2101	0	32636	32900	37065	
2102	0	32516	32631	37053	
2103	0	32649	32878	37050	
2104	0	32500	32845	37044	
2105	0	32416	32874	37026	
2106	0	32392	32952	37008	
2107	0	32520	32733	36964	
2108	0	32572	32845	36920	
2109	0	32564	32873	36892	
2110	0	32617	32920	36871	
2111	0	32820	32812	36812	
2112	0	33052	32781	36774	
2113	0	32984	32948	36744	
2114	0	32928	32856	36712	
2115	0	32944	32918	36688	
2116	0	33209	32817	36644	
2117	0	33384	32928	36593	
2118	0	33480	33006	36578	
2119	0	33156	32774	36568	
2120	0	32748	32704	36548	
2121	0	32592	32879	36532	
2122	0	32404	32940	36505	
2123	0	32460	33053	36513	
2124	0	32260	33076	36485	
2125	0	32208	32816	36472	
2126	0	32624	32964	36477	
2127	0	32552	32932	36452	
2128	0	32680	32804	36460	
2129	0	32877	32794	36464	
2130	0	33048	32780	36448	
2131	0	32788	32560	36440	
2132	0	32732	32360	36426	
2133	0	32773	32596	36396	
2134	0	32837	32698	36384	
2135	0	33016	32769	36376	
2136	0	33184	32856	36344	
2137	0	33200	32986	36342	
2138	0	33240	32780	36332	
2139	0	33081	32742	36328	
2140	0	32772	32845	36344	
2141	0	32733	32976	36336	
2142	0	32508	33036	36348	
2143	0	32544	32964	36340	
2144	0	32556	32865	36352	
2145	0	32452	32900	36328	
2146	0	32408	32644	36345	
2147	0	32366	32620	36348	
2148	0	32501	32743	36358	
2149	0	32692	32884	36380	
2150	0	32724	32826	36380	
2151	0	32805	32888	36356	
2152	0	32879	32965	36328	
2153	0	32997	33109	36336	
2154	0	33124	33064	36340	
2155	0	33200	32868	36335	
2156	0	33215	32752	36321	
2157	0	33052	32812	36319	
2158	0	32948	32702	36316	
2159	0	32744	32745	36292	
2160	0	32800	32880	36304	
2161	0	32924	32892	36302	
2162	0	32928	32817	36320	
2163	0	32740	32869	36328	
2164	0	32408	32914	36320	
2165	0	32236	32888	36308	
2166	0	32597	32752	36308	
2167	0	32410	32768	36294	
2168	0	32006	32801	36284	
2169	0	32176	32608	36276	
2170	0	32509	32673	36273	
2171	0	33076	32788	36302	
2172	0	33728	32804	36273	
2173	0	33773	32964	36276	
2174	0	33228	33009	36280	
2175	0	32788	32886	36297	
2176	0	32784	33064	36306	
2177	0	32968	33101	36329	
2178	0	33170	32903	36335	
2179	0	33244	32834	36340	
2180	0	33228	32765	36359	
2181	0	32956	32639	36384	
2182	0	32502	32696	36428	
2183	0	32308	32928	36460	
2184	0	32250	32913	36489	
2185	0	32252	32853	36504	
2186	0	32367	32736	36533	
2187	0	32448	32813	36544	
2188	0	32480	32785	36560	
2189	0	32668	32713	36596	
2190	0	32716	32685	36620	
2191	0	32744	32807	36644	
2192	0	32910	32868	36690	
2193	0	32996	32906	36700	
2194	0	33032	32830	36724	
2195	0	33244	32920	36744	
2196	0	33098	33196	36756	
2197	0	33048	32663	36797	
2198	0	33064	32924	36800	
2199	0	33009	32956	36824	
2200	0	32948	32840	36840	
2201	0	32856	32836	36880	
2202	0	32640	32821	36904	
2203	0	32437	32886	36940	
2204	0	32290	32954	36964	
2205	0	32252	32736	36975	
2206	0	32332	32860	36966	
2207	0	32426	32710	36989	
2208	0	32652	32836	36986	
2209	0	32784	32762	36962	
2210	0	32828	32553	36936	
2211	0	32892	32685	36932	
2212	0	32864	32859	36944	
2213	0	33025	32924	36952	
2214	0	33052	32884	36934	
2215	0	33032	32890	36913	
2216	0	33104	33078	36904	
2217	0	33120	33124	36868	
2218	0	32932	33165	36844	
2219	0	32992	33092	36839	
2220	0	32948	32860	36809	
2221	0	32846	32664	36792	
2222	0	32928	32548	36772	
2223	0	32904	32524	36748	
2224	0	32576	32519	36724	
2225	0	32260	32712	36690	
2226	0	32302	32769	36672	
2227	0	32300	32744	36646	
2228	0	32468	32774	36637	
2229	0	32568	32817	36636	
2230	0	32724	33016	36636	
2231	0	32856	33025	36600	
2232	0	32932	32944	36596	
2233	0	33128	32797	36600	
2234	0	33190	32753	36592	
2235	0	33184	32804	36572	
2236	0	33108	32790	36568	
2237	0	33037	32800	36568	
2238	0	33142	32764	36541	
2239	0	32992	32846	36532	
2240	0	32868	32892	36516	
2241	0	32788	32982	36503	
2242	0	32586	33004	36492	
2243	0	32548	32933	36462	
2244	0	32365	32936	36428	
2245	0	32302	32870	36410	
2246	0	32328	32826	36418	
2247	0	32446	32668	36396	
2248	0	32404	32615	36370	
2249	0	32601	32684	36352	
2250	0	32750	32798	36324	
2251	0	32716	32726	36312	
2252	0	32700	32824	36256	
2253	0	33004	33008	36237	
2254	0	32848	32860	36196	
2255	0	32906	32781	36160	
2256	0	33504	32780	36144	
2257	0	33800	32874	36141	
2258	0	33692	32729	36111	
2259	0	33312	32928	36096	
2260	0	32892	33152	36118	
2261	0	32700	32925	36103	
2262	0	32480	32980	36082	
2263	0	32276	33065	36064	
2264	0	32292	32975	36057	
2265	0	32266	32820	36080	
2266	0	32288	32580	36088	
2267	0	32456	32599	36064	
2268	0	32449	32572	36061	
2269	0	32756	32625	36052	
2270	0	32708	32747	36056	
2271	0	32882	32801	36056	
2272	0	32856	32929	36042	
2273	0	32969	32929	36057	
2274	0	33072	33068	36041	
2275	0	32900	32900	36074	
2276	0	32908	32756	36094	
2277	0	33129	32692	36138	
2278	0	33212	32832	36168	
2279	0	33200	32814	36199	
2280	0	33156	32896	36230	
2281	0	33053	33133	36296	
2282	0	32356	33008	36340	
2283	0	32304	32996	36356	
2284	0	32496	32945	36392	
2285	0	32616	32754	36444	
2286	0	32632	32641	36476	
2287	0	32876	32728	36540	
2288	0	32744	32722	36556	
2289	0	32496	32453	36576	
2290	0	32436	32484	36572	
2291	0	32632	32677	36588	
2292	0	32818	32801	36588	
2293	0	32920	32804	36615	
2294	0	33172	32958	36628	
2295	0	33125	33112	36644	
2296	0	33268	32904	36657	
2297	0	33136	32908	36676	
2298	0	33161	32934	36696	
2299	0	32970	32884	36694	
2300	0	32826	32764	36708	
2301	0	32721	32812	36693	
2302	0	32432	32767	36716	
2303	0	32376	32942	36732	
2304	0	32313	32918	36761	
2305	0	32337	32852	36760	
2306	0	32344	32797	36772	
2307	0	32508	32924	36813	
2308	0	32608	32824	36792	
2309	0	32748	32864	36807	
2310	0	32854	32740	36800	
2311	0	32892	32866	36792	
2312	0	33032	32729	36792	
2313	0	32992	32868	36783	
2314	0	33134	32824	36796	
2315	0	32962	32688	36796	
2316	0	33012	32780	36796	
2317	0	33069	32953	36780	
2318	0	33016	33092	36764	
2319	0	33036	33034	36758	
2320	0	32996	32830	36753	
2321	0	33078	32857	36748	
2322	0	32784	32962	36735	
2323	0	32495	32964	36693	
2324	0	32274	32765	36672	
2325	0	32304	32628	36669	
2326	0	32404	32760	36636	
2327	0	32384	32798	36637	
2328	0	32436	32908	36636	
2329	0	32564	32816	36612	
2330	0	32698	32760	36601	
2331	0	32768	32761	36580	
2332	0	32720	32808	36569	
2333	0	32872	32909	36552	
2334	0	32960	32812	36540	
2335	0	33200	32664	36524	
2336	0	33436	32728	36496	
2337	0	33568	32834	36493	
2338	0	33360	32918	36488	
2339	0	33088	33088	36476	
2340	0	32913	33051	36460	
2341	0	32712	32822	36481	
2342	0	32582	32782	36464	
2343	0	32500	32952	36452	
2344	0	32388	32804	36436	
2345	0	32224	32792	36449	
2346	0	32284	32762	36412	
2347	0	32384	32741	36420	
2348	0	32586	32700	36386	
2349	0	32832	32677	36384	
2350	0	32788	32559	36376	
2351	0	32756	32676	36356	
2352	0	32868	32721	36336	
2353	0	32852	32851	36317	
2354	0	32990	32892	36284	
2355	0	33108	32848	36244	
2356	0	33184	32937	36245	
2357	0	33192	32942	36250	
2358	0	33197	32982	36244	
2359	0	33076	32940	36231	
2360	0	33037	32915	36220	
2361	0	32752	32820	36229	
2362	0	32505	32892	36216	
2363	0	32514	33012	36252	
2364	0	32393	32954	36240	
2365	0	32328	32796	36272	
2366	0	32444	32844	36262	
2367	0	32656	32796	36254	
2368	0	32548	32789	36264	
2369	0	32624	32624	36264	
2370	0	32756	32677	36284	
2371	0	32760	32764	36280	
2372	0	32960	32769	36298	
2373	0	33052	32932	36316	
2374	0	32840	32908	36320	
2375	0	32399	32683	36346	
2376	0	32596	32672	36356	
2377	0	32796	32744	36356	
2378	0	33260	32865	36373	
2379	0	33688	32836	36391	
2380	0	34041	32809	36412	
2381	0	33428	32932	36420	
2382	0	32734	33008	36437	
2383	0	32360	33311	36484	
2384	0	32220	33060	36503	
2385	0	32103	32820	36517	
2386	0	32121	32788	36517	
2387	0	32157	32672	36513	
2388	0	32380	32628	36516	
2389	0	32584	32588	36501	
2390	0	32656	32700	36512	
2391	0	32880	32792	36516	
2392	0	33022	32834	36535	
2393	0	33228	32808	36540	
2394	0	33188	32934	36544	
2395	0	33212	32982	36551	
2396	0	33060	32954	36558	
2397	0	33072	32852	36556	
2398	0	33044	32901	36592	
2399	0	32872	32833	36624	
2400	0	32840	32775	36652	
2401	0	32740	32890	36660	
2402	0	32664	32789	36660	
2403	0	32585	32813	36668	
2404	0	32400	32908	36686	
2405	0	32316	32768	36696	
2406	0	32352	32756	36704	
2407	0	32492	32789	36743	
2408	0	32536	32814	36748	
2409	0	32438	32896	36792	
2410	0	32400	32738	36844	
2411	0	32776	32791	36862	
2412	0	32965	32964	36889	
2413	0	33156	33105	36888	
2414	0	33544	32928	36880	
2415	0	33608	32792	36886	
2416	0	33456	32832	36905	
2417	0	33080	32940	36876	
2418	0	32952	32945	36904	
2419	0	33052	32838	36920	
2420	0	32880	32853	36916	
2421	0	32638	32854	36912	
2422	0	32504	32844	36924	
2423	0	32360	32927	36921	
2424	0	32436	32825	36944	
2425	0	32352	32800	36944	
2426	0	32333	32710	36934	
2427	0	32300	32768	36912	
2428	0	32524	32708	36900	
2429	0	32621	32884	36900	
2430	0	32760	32864	36892	
2431	0	32953	32861	36904	
2432	0	33057	32791	36889	
2433	0	32856	32732	36877	
2434	0	32796	32924	36881	
2435	0	32904	32766	36887	
2436	0	33156	32793	36874	
2437	0	33252	32980	36860	
2438	0	33444	32728	36865	
2439	0	33256	32620	36884	
2440	0	33032	32520	36892	
2441	0	32788	32828	36868	
2442	0	32556	32775	36896	
2443	0	32484	32754	36911	
2444	0	32268	32736	36916	
2445	0	32284	32697	36924	
2446	0	32385	32761	36898	
2447	0	32436	32846	36905	
2448	0	32528	32956	36886	
2449	0	32530	32852	36890	
2450	0	32612	32844	36855	
2451	0	32856	32996	36836	
2452	0	33044	32814	36821	
2453	0	32988	32768	36796	
2454	0	33045	32946	36760	
2455	0	32980	32914	36740	
2456	0	32988	32860	36720	
2457	0	33112	33002	36661	
2458	0	33228	33074	36612	
2459	0	33364	33036	36573	
2460	0	33312	32834	36561	
2461	0	32840	32880	36556	
2462	0	32820	32775	36552	
2463	0	32512	32904	36520	
2464	0	32372	32797	36505	
2465	0	32244	32788	36488	
2466	0	32368	32684	36468	
2467	0	32372	32762	36443	
2468	0	32464	32724	36432	
2469	0	32605	32636	36397	
2470	0	32552	32621	36353	
2471	0	32884	32703	36352	
2472	0	33038	32814	36332	
2473	0	33040	32968	36341	
2474	0	32988	33016	36321	
2475	0	33052	33024	36284	
2476	0	33132	32958	36260	
2477	0	33214	33077	36240	
2478	0	33136	32896	36228	
2479	0	32958	32664	36220	
2480	0	32661	32992	36212	
2481	0	32242	33012	36218	
2482	0	32188	32798	36240	
2483	0	32388	32988	36212	
2484	0	32516	32938	36217	
2485	0	32677	32772	36213	
2486	0	32988	32756	36214	
2487	0	32892	32606	36204	
2488	0	32632	32425	36227	
2489	0	32748	32564	36224	
2490	0	33020	32720	36204	
2491	0	32808	32768	36220	
2492	0	32800	32844	36248	
2493	0	32965	32848	36284	
2494	0	33080	33040	36281	
2495	0	33068	32954	36312	
2496	0	32838	32956	36313	
2497	0	32992	32948	36352	
2498	0	32860	33041	36364	
2499	0	32608	33012	36401	
2500	0	32748	32972	36424	
2501	0	32936	33056	36469	
2502	0	32952	32981	36510	
2503	0	32964	32876	36537	
2504	0	32808	32708	36558	
2505	0	32452	32712	36599	
2506	0	32352	32636	36594	
2507	0	32276	32528	36624	
2508	0	32388	32637	36660	
2509	0	32518	32708	36701	
2510	0	32624	32652	36748	
2511	0	32814	32768	36766	
2512	0	32796	32772	36782	
2513	0	33128	32972	36796	
2514	0	33156	32917	36836	
2515	0	33144	32800	36844	
2516	0	33060	32825	36871	
2517	0	33094	32864	36884	
2518	0	33036	32857	36864	
2519	0	32886	33085	36886	
2520	0	32824	33057	36908	
2521	0	32770	33092	36920	
2522	0	32676	32928	36956	
2523	0	32558	32816	36938	
2524	0	32580	32761	36934	
2525	0	32473	32711	36936	
2526	0	32410	32704	36949	
2527	0	32604	32728	36944	
2528	0	32492	32716	36932	
2529	0	32548	32551	36924	
2530	0	32620	32641	36896	
2531	0	32848	32733	36884	
2532	0	32938	32762	36844	
2533	0	33045	32833	36836	
2534	0	33196	32892	36840	
2535	0	33026	32852	36808	
2536	0	33020	32951	36813	
2537	0	33040	33046	36804	
2538	0	33208	33084	36792	
2539	0	32968	32872	36765	
2540	0	32620	32774	36732	
2541	0	32628	32880	36696	
2542	0	32652	32848	36705	
2543	0	32668	32890	36709	
2544	0	32692	32887	36684	
2545	0	32560	32840	36699	
2546	0	32449	32898	36680	
2547	0	32484	32911	36668	
2548	0	32608	32836	36669	
2549	0	32749	32848	36664	
2550	0	32845	32726	36656	
2551	0	32789	32729	36652	
2552	0	32756	32725	36644	
2553	0	32868	32806	36646	
2554	0	32980	32799	36620	
2555	0	33000	32838	36597	
2556	0	33024	32859	36600	
2557	0	32988	32775	36596	
2558	0	33028	32740	36594	
2559	0	33012	32884	36593	
2560	0	33033	32873	36583	
2561	0	32964	32829	36582	
2562	0	32740	32820	36563	
2563	0	32556	32837	36560	
2564	0	32440	32829	36556	
2565	0	32248	32692	36512	
2566	0	32400	32780	36488	
2567	0	32556	32857	36452	
2568	0	32500	32712	36424	
2569	0	32570	32727	36401	
2570	0	32628	32836	36408	
2571	0	32788	32908	36372	
2572	0	32996	32833	36358	
2573	0	33088	32840	36348	
2574	0	33168	32976	36350	
2575	0	33112	32908	36328	
2576	0	33204	32884	36329	
2577	0	33012	32932	36324	
2578	0	32852	32959	36321	
2579	0	32656	32913	36316	
2580	0	33066	32908	36288	
2581	0	32932	32871	36282	
2582	0	32868	32676	36294	
2583	0	33048	32865	36294	
2584	0	32940	32724	36305	
2585	0	32432	32528	36309	
2586	0	32198	32756	36312	
2587	0	32245	32910	36288	
2588	0	32185	32871	36285	
2589	0	32348	32802	36278	
2590	0	32532	32796	36257	
2591	0	32768	32932	36272	
2592	0	32799	32901	36265	
2593	0	32896	32873	36261	
2594	0	33004	32932	36268	
2595	0	32818	32820	36252	
2596	0	32724	32752	36268	
2597	0	32970	32856	36276	
2598	0	33260	32969	36280	
2599	0	33317	32911	36268	
2600	0	33704	32864	36268	
2601	0	33812	32784	36281	
2602	0	32888	32965	36292	
2603	0	32544	32913	36320	
2604	0	32228	32900	36344	
2605	0	32164	32801	36372	
2606	0	32228	32629	36380	
2607	0	32288	32622	36396	
2608	0	32436	32698	36416	
2609	0	32438	32788	36441	
2610	0	32628	32876	36472	
2611	0	32849	32820	36476	
2612	0	32820	32898	36492	
2613	0	33020	33046	36517	
2614	0	33141	32881	36544	
2615	0	33134	32821	36584	
2616	0	33180	32760	36606	
2617	0	33064	32825	36658	
2618	0	33016	32900	36676	
2619	0	33012	32839	36701	
2620	0	32974	32831	36716	
2621	0	32812	32921	36762	
2622	0	32620	32912	36784	
2623	0	32516	32892	36812	
2624	0	32568	33021	36832	
2625	0	32368	32922	36860	
2626	0	32392	32838	36881	
2627	0	32369	32751	36868	
2628	0	32468	32756	36876	
2629	0	32607	32775	36878	
2630	0	32664	32729	36844	
2631	0	32664	32748	36848	
2632	0	32752	32808	36844	
2633	0	32943	32688	36852	
2634	0	32976	32815	36848	
2635	0	33255	32848	36836	
2636	0	33168	32905	36824	
2637	0	33284	32932	36830	
2638	0	33380	32758	36820	
2639	0	33200	32764	36820	
2640	0	33056	32841	36812	
2641	0	32919	32789	36812	
2642	0	32528	32792	36839	
2643	0	32606	33024	36812	
2644	0	32436	32924	36815	
2645	0	32264	33008	36829	
2646	0	32262	32809	36797	
2647	0	32304	32724	36805	
2648	0	32388	32600	36788	
2649	0	32584	32668	36768	
2650	0	32624	32599	36765	
2651	0	32790	32610	36772	
2652	0	32868	32647	36754	
2653	0	32936	32792	36741	
2654	0	33005	32924	36735	
2655	0	33276	32960	36709	
2656	0	33598	32969	36708	
2657	0	33548	33031	36705	
2658	0	33224	32952	36687	
2659	0	32741	32897	36662	
2660	0	32469	32884	36669	
2661	0	32696	32880	36654	
2662	0	32560	32788	36657	
2663	0	32733	32839	36625	
2664	0	32832	32876	36631	
2665	0	32708	32813	36609	
2666	0	32408	32769	36570	
2667	0	32412	32798	36531	
2668	0	32484	32825	36512	
2669	0	32324	32698	36508	
2670	0	32525	32740	36488	
2671	0	32716	32791	36468	
2672	0	32852	32827	36436	
2673	0	33032	32992	36425	
2674	0	33020	32980	36404	
2675	0	33036	32941	36392	
2676	0	33214	32900	36377	
2677	0	33273	32824	36359	
2678	0	33348	32984	36348	
2679	0	33114	32868	36368	
2680	0	32916	32943	36384	
2681	0	32752	32925	36381	
2682	0	32481	32705	36366	
2683	0	32472	32791	36366	
2684	0	32440	32956	36384	
2685	0	32416	32706	36388	
2686	0	32372	32604	36388	
2687	0	32360	32657	36385	
2688	0	32452	32780	36383	
2689	0	32638	32661	36372	
2690	0	32653	32684	36391	
2691	0	32764	32869	36404	
2692	0	33060	32925	36420	
2693	0	33030	32764	36420	
2694	0	33250	32796	36409	
2695	0	33145	32820	36412	
2696	0	33100	32832	36409	
2697	0	33120	32974	36420	
2698	0	33209	32724	36428	
2699	0	32980	32775	36445	
2700	0	32804	32888	36460	
2701	0	32740	32976	36470	
2702	0	32640	33004	36486	
2703	0	32552	33130	36484	
2704	0	32482	32764	36511	
2705	0	32468	32696	36518	
2706	0	32548	32704	36524	
2707	0	32288	32604	36548	
2708	0	32230	32764	36553	
2709	0	32236	32726	36574	
2710	0	32528	32668	36604	
2711	0	32700	32697	36605	
2712	0	32745	32661	36584	
2713	0	33116	32852	36596	
2714	0	33240	32892	36640	
2715	0	33492	32944	36652	
2716	0	33824	32908	36660	
2717	0	33862	32932	36666	
2718	0	33412	32832	36666	
2719	0	32976	32828	36680	
2720	0	32628	32868	36686	
2721	0	32468	32832	36704	
2722	0	32264	33189	36732	
2723	0	32136	32685	36732	
2724	0	32166	32741	36769	
2725	0	32328	32869	36808	
2726	0	32576	32760	36816	
2727	0	32792	32912	36826	
2728	0	32876	32878	36835	
2729	0	32500	32985	36822	
2730	0	32708	32876	36832	
2731	0	32930	32910	36832	
2732	0	32816	32933	36812	
2733	0	32860	32920	36840	
2734	0	33064	32903	36857	
2735	0	33076	32774	36857	
2736	0	33156	32450	36856	
2737	0	33064	32508	36846	
2738	0	33033	32664	36861	
2739	0	33009	32742	36860	
2740	0	32920	32884	36870	
2741	0	32772	33116	36840	
2742	0	32780	33028	36812	
2743	0	32584	32848	36804	
2744	0	32420	32960	36812	
2745	0	32284	32768	36768	
2746	0	32344	32704	36757	
2747	0	32384	32646	36732	
2748	0	32450	32863	36714	
2749	0	32640	32732	36697	
2750	0	32474	32748	36684	
2751	0	32492	32749	36664	
2752	0	32776	32804	36639	
2753	0	33024	32790	36620	
2754	0	33329	32968	36596	
2755	0	33673	33020	36602	
2756	0	33529	33000	36614	
2757	0	33108	32993	36609	
2758	0	32988	32852	36621	
2759	0	32960	32917	36636	
2760	0	32816	32936	36644	
2761	0	32564	32799	36642	
2762	0	32364	32848	36658	
2763	0	32552	33040	36640	
2764	0	32616	32980	36640	
2765	0	32576	32973	36631	
2766	0	32785	32960	36606	
2767	0	32511	32824	36608	
2768	0	32424	32688	36604	
2769	0	32503	32697	36568	
2770	0	32460	32716	36566	
2771	0	32568	32580	36550	
2772	0	32790	32468	36532	
2773	0	32994	32356	36532	
2774	0	33080	32534	36540	
2775	0	33124	32660	36528	
2776	0	33124	32898	36516	
2777	0	33144	32928	36517	
2778	0	33120	32964	36524	
2779	0	33072	32997	36548	
2780	0	32980	33008	36562	
2781	0	32904	32938	36576	
2782	0	32660	32887	36576	
2783	0	32552	32997	36596	
2784	0	32482	32978	36613	
2785	0	32336	32724	36636	
2786	0	32402	32736	36624	
2787	0	32342	32788	36612	
2788	0	32439	32804	36626	
2789	0	32433	32886	36620	
2790	0	32616	32800	36641	
2791	0	32828	32933	36636	
2792	0	32880	32768	36649	
2793	0	32912	32697	36664	
2794	0	33001	32902	36676	
2795	0	33109	32820	36673	
2796	0	33108	32828	36672	
2797	0	33112	33000	36673	
2798	0	33152	32752	36688	
2799	0	33226	32838	36692	
2800	0	33080	32897	36688	
2801	0	33012	32889	36689	
2802	0	32800	32781	36700	
2803	0	32624	32758	36741	
2804	0	32360	32796	36741	
2805	0	32264	32741	36748	
2806	0	32302	32716	36743	
2807	0	32432	32746	36765	
2808	0	32536	32804	36751	
2809	0	32608	32775	36741	
2810	0	32585	32773	36756	
2811	0	32746	32740	36757	
2812	0	32876	32751	36756	
2813	0	33064	32815	36740	
2814	0	33132	32812	36736	
2815	0	33160	32862	36729	
2816	0	33216	32874	36720	
2817	0	33117	32804	36736	
2818	0	33068	32956	36741	
2819	0	33004	32952	36742	
2820	0	32884	32744	36732	
2821	0	32800	32946	36730	
2822	0	32532	33030	36743	
2823	0	32496	32884	36742	
2824	0	32444	32884	36724	
2825	0	32392	32748	36714	
2826	0	32424	32861	36708	
2827	0	32326	32848	36676	
2828	0	32288	32812	36656	
2829	0	32396	32830	36644	
2830	0	32672	32680	36629	
2831	0	32836	32825	36604	
2832	0	33188	32853	36584	
2833	0	33416	32765	36573	
2834	0	33261	32688	36568	
2835	0	33210	32700	36560	
2836	0	33092	32636	36556	
2837	0	33140	32760	36541	
2838	0	33228	32940	36520	
2839	0	33144	32758	36508	
2840	0	32920	32964	36494	
2841	0	32672	32928	36468	
2842	0	32524	32841	36452	
2843	0	32384	32855	36461	
2844	0	31940	32920	36453	
2845	0	31840	33018	36440	
2846	0	31908	32840	36445	
2847	0	32268	32841	36440	
2848	0	32532	32800	36424	
2849	0	33180	32855	36404	
2850	0	33272	32844	36348	
2851	0	33346	32772	36401	
2852	0	33472	32740	36367	
2853	0	33108	32762	36359	
2854	0	33088	32873	36350	
2855	0	33136	32714	36367	
2856	0	33028	32840	36384	
2857	0	32936	32816	36388	
2858	0	32944	32754	36394	
2859	0	33002	32764	36401	
2860	0	32896	32860	36408	
2861	0	32732	32820	36418	
2862	0	32512	32793	36438	
2863	0	32432	32848	36445	
2864	0	32410	33000	36453	
2865	0	32522	32942	36439	
2866	0	32424	32836	36438	
2867	0	32536	32848	36442	
2868	0	32456	32820	36440	
2869	0	32560	32702	36436	
2870	0	32617	32673	36453	
2871	0	32792	32772	36478	
2872	0	32780	32716	36461	
2873	0	33052	32775	36484	
2874	0	33132	32852	36494	
2875	0	33084	32984	36484	
2876	0	33025	32957	36512	
2877	0	33072	32828	36533	
2878	0	33110	32628	36521	
2879	0	33184	32884	36516	
2880	0	33148	32943	36508	
2881	0	32850	32800	36500	
2882	0	32524	32681	36504	
2883	0	32532	32884	36495	
2884	0	32476	32999	36528	
2885	0	32660	32720	36532	
2886	0	32656	32925	36516	
2887	0	32352	32938	36516	
2888	0	32201	32840	36505	
2889	0	32330	32640	36516	
2890	0	32658	32708	36525	
2891	0	32910	32824	36517	
2892	0	33082	32629	36512	
2893	0	33068	32752	36548	
2894	0	33026	32952	36574	
2895	0	33028	32936	36561	
2896	0	33094	32756	36584	
2897	0	33148	32802	36604	
2898	0	33140	32832	36636	
2899	0	32996	32890	36653	
2900	0	32842	32772	36688	
2901	0	32820	32722	36708	
2902	0	32785	32812	36728	
2903	0	32656	32808	36724	
2904	0	32552	32944	36725	
2905	0	32376	33020	36758	
2906	0	32238	32824	36777	
2907	0	32320	32836	36776	
2908	0	32462	32816	36768	
2909	0	32532	32848	36776	
2910	0	32644	32856	36769	
2911	0	32816	32886	36772	
2912	0	32862	32856	36764	
2913	0	33004	32757	36745	
2914	0	33220	32783	36737	
2915	0	33264	32703	36700	
2916	0	33080	32792	36697	
2917	0	33152	32890	36692	
2918	0	33244	32721	36693	
2919	0	33120	32704	36680	
2920	0	32908	32839	36667	
2921	0	32772	32870	36661	
2922	0	32572	32888	36652	
2923	0	32460	32964	36636	
2924	0	32324	32949	36631	
2925	0	32116	32968	36628	
2926	0	32058	32844	36622	
2927	0	32176	32785	36588	
2928	0	32512	32681	36596	
2929	0	32696	32697	36568	
2930	0	32726	32834	36572	
2931	0	32924	32878	36566	
2932	0	33036	32959	36540	
2933	0	32932	33036	36524	
2934	0	33540	32990	36503	
2935	0	33862	32852	36478	
2936	0	33712	32628	36492	
2937	0	33148	32689	36484	
2938	0	32976	32748	36480	
2939	0	32976	32652	36462	
2940	0	32652	32768	36448	
2941	0	32580	32788	36428	
2942	0	32644	32751	36452	
2943	0	32644	32820	36461	
2944	0	32432	32994	36469	
2945	0	32353	32980	36476	
2946	0	32077	32905	36471	
2947	0	32300	32772	36448	
2948	0	32436	32775	36438	
2949	0	32460	32789	36453	
2950	0	32480	32760	36444	
2951	0	32832	32892	36448	
2952	0	32972	32774	36470	
2953	0	33028	32884	36516	
2954	0	33040	32926	36580	
2955	0	33388	32775	36644	
2956	0	33488	32780	36664	
2957	0	33240	32565	36636	
2958	0	32996	32519	36552	
2959	0	32816	32732	36480	
2960	0	32748	32968	36378	
2961	0	32876	33044	36324	
2962	0	32500	33157	36276	
2963	0	32471	33126	36262	
2964	0	32528	33014	36231	
2965	0	32648	32866	36260	
2966	0	32476	32884	36247	
2967	0	32408	32769	36252	
2968	0	32389	32558	36236	
2969	0	32492	32712	36241	
2970	0	32580	32844	36256	
2971	0	32804	32740	36269	
2972	0	32948	32732	36276	
2973	0	33102	32676	36264	
2974	0	33140	32868	36288	
2975	0	33216	32884	36311	
2976	0	33210	33049	36302	
2977	0	33088	33036	36319	
2978	0	33096	33005	36344	
2979	0	32924	33112	36367	
2980	0	32799	32981	36388	
2981	0	32874	32880	36408	
2982	0	32693	32673	36440	
2983	0	32612	32652	36457	
2984	0	32328	32780	36464	
2985	0	32310	32872	36488	
2986	0	32216	32670	36528	
2987	0	32376	32692	36546	
2988	0	32440	32725	36560	
2989	0	32472	32820	36600	
2990	0	32640	32838	36588	
2991	0	32814	32798	36604	
2992	0	32808	32962	36615	
2993	0	32952	32810	36634	
2994	0	33169	32826	36652	
2995	0	33302	32956	36655	
2996	0	33384	32844	36652	
2997	0	33524	32508	36670	
2998	0	33320	32676	36704	
2999	0	33172	32644	36733	
3000	0	32900	32948	36760	
3001	0	32704	33009	36804	
3002	0	32677	32918	36836	
3003	0	32637	32876	36861	
3004	0	32568	32852	36882	
3005	0	32280	32865	36892	
3006	0	32226	32784	36913	
3007	0	32264	32754	36933	
3008	0	32388	32625	36953	
3009	0	32532	32916	36960	
3010	0	32537	32826	36961	
3011	0	32620	32692	36964	
3012	0	32560	32882	36975	
3013	0	32876	32894	36968	
3014	0	33196	32781	36959	
3015	0	33248	32720	36956	
3016	0	33616	32788	36940	
3017	0	33593	32900	36934	
3018	0	33332	32793	36936	
3019	0	32864	32920	36956	
3020	0	32794	32976	36996	
3021	0	32852	32921	37012	
3022	0	32556	32976	37029	
3023	0	32392	33078	37037	
3024	0	32340	33037	37044	
3025	0	32172	32884	37060	
3026	0	32196	32712	37088	
3027	0	32288	32784	37101	
3028	0	32484	32640	37081	
3029	0	32728	32676	37064	
3030	0	32920	32783	37080	
3031	0	33284	32670	37077	
3032	0	33296	32704	37060	
3033	0	33084	32580	37044	
3034	0	32961	32712	37014	
3035	0	33004	32866	36975	
3036	0	33108	32824	36946	
3037	0	33036	32844	36900	
3038	0	33080	33028	36870	
3039	0	33049	32849	36840	
3040	0	32881	32824	36813	
3041	0	32736	32736	36777	
3042	0	32608	32789	36756	
3043	0	32484	32880	36704	
3044	0	32372	33009	36700	
3045	0	32134	32932	36688	
3046	0	32164	32718	36640	
3047	0	32052	32700	36598	
3048	0	32296	32829	36570	
3049	0	32478	32975	36549	
3050	0	32924	32911	36516	
3051	0	33084	32844	36495	
3052	0	33548	32944	36477	
3053	0	33760	32728	36453	
3054	0	33292	32634	36452	
3055	0	33109	32672	36433	
3056	0	33096	32668	36452	
3057	0	32925	32562	36424	
3058	0	32928	32708	36412	
3059	0	32924	32838	36416	
3060	0	32849	32892	36416	
3061	0	32764	32893	36389	
3062	0	32573	32864	36388	
3063	0	32494	33013	36374	
3064	0	32384	33021	36420	
3065	0	32380	32965	36460	
3066	0	32320	32925	36462	
3067	0	32345	32812	36476	
3068	0	32492	32744	36532	
3069	0	32636	32826	36570	
3070	0	32664	32822	36596	
3071	0	32802	32913	36602	
3072	0	32844	32796	36656	
3073	0	33000	32852	36688	
3074	0	33181	32760	36704	
3075	0	33172	32640	36708	
3076	0	33204	32742	36717	
3077	0	33218	32836	36748	
3078	0	33052	32845	36741	
3079	0	32980	32791	36773	
3080	0	32920	32714	36792	
3081	0	32741	32910	36776	
3082	0	32696	32941	36812	
3083	0	32588	32940	36814	
3084	0	32444	32998	36800	
3085	0	32374	32928	36784	
3086	0	32286	32944	36776	
3087	0	32452	32964	36760	
3088	0	32498	32860	36749	
3089	0	32592	32663	36728	
3090	0	32396	32604	36716	
3091	0	32505	32640	36704	
3092	0	32696	32700	36696	
3093	0	32968	32772	36692	
3094	0	33344	32884	36688	
3095	0	33548	32816	36697	
3096	0	33564	32708	36696	
3097	0	33412	32992	36668	
3098	0	33420	32984	36678	
3099	0	33137	32929	36668	
3100	0	32772	32956	36656	
3101	0	32861	32924	36656	
3102	0	32612	32832	36652	
3103	0	32464	32716	36645	
3104	0	32400	32798	36616	
3105	0	32338	32860	36612	
3106	0	32308	32749	36616	
3107	0	32345	32652	36589	
3108	0	32458	32794	36589	
3109	0	32378	32844	36596	
3110	0	32480	32832	36590	
3111	0	32710	32926	36566	
3112	0	32884	33060	36564	
3113	0	32966	32877	36564	
3114	0	33016	32630	36537	
3115	0	33084	32800	36532	
3116	0	33332	32724	36500	
3117	0	33376	32736	36504	
3118	0	33256	32756	36493	
3119	0	33212	32902	36484	
3120	0	33060	32876	36476	
3121	0	32832	32775	36445	
3122	0	32396	32898	36421	
3123	0	32364	32916	36424	
3124	0	32553	32864	36416	
3125	0	32364	32888	36394	
3126	0	32356	32809	36388	
3127	0	32348	32964	36370	
3128	0	32200	33054	36352	
3129	0	32388	32824	36359	
3130	0	32736	32700	36340	
3131	0	33048	32768	36318	
3132	0	33461	32740	36289	
3133	0	33446	32860	36294	
3134	0	33156	32905	36280	
3135	0	32924	32852	36280	
3136	0	32884	32672	36264	
3137	0	33000	32775	36264	
3138	0	33000	32988	36244	
3139	0	32968	32922	36231	
3140	0	32896	32666	36230	
3141	0	32984	32900	36246	
3142	0	32752	32808	36254	
3143	0	32608	32796	36241	
3144	0	32448	32800	36258	
3145	0	32369	32862	36263	
3146	0	32192	32690	36272	
3147	0	32288	32764	36288	
3148	0	32292	32835	36304	
3149	0	32269	32861	36298	
3150	0	32420	32792	36314	
3151	0	32736	32829	36316	
3152	0	32994	32908	36328	
3153	0	33464	32700	36329	
3154	0	33544	32796	36332	
3155	0	33280	32742	36348	
3156	0	33189	32628	36359	
3157	0	33156	32800	36376	
3158	0	33072	32976	36388	
3159	0	33016	32880	36437	
3160	0	32860	32775	36453	
3161	0	32656	32836	36478	
3162	0	32558	32916	36505	
3163	0	32420	32864	36532	
3164	0	32492	33022	36540	
3165	0	32512	32880	36557	
3166	0	32390	32689	36576	
3167	0	32472	32744	36574	
3168	0	32472	32866	36581	
3169	0	32584	32724	36592	
3170	0	32624	32521	36614	
3171	0	32652	32726	36612	
3172	0	32220	32796	36620	
3173	0	32664	32879	36648	
3174	0	33064	33012	36637	
3175	0	33258	32964	36646	
3176	0	33493	32926	36661	
3177	0	33602	32900	36674	
3178	0	33638	32917	36660	
3179	0	33252	32760	36690	
3180	0	32964	32794	36708	
3181	0	32794	32876	36736	
3182	0	32620	32918	36752	
3183	0	32528	32852	36753	
3184	0	32414	32909	36775	
3185	0	32306	32956	36824	
3186	0	32225	32800	36841	
3187	0	32225	32948	36854	
3188	0	32344	32768	36886	
3189	0	32608	32548	36909	
3190	0	32652	32696	36904	
3191	0	32868	32774	36908	
3192	0	32860	32812	36934	
3193	0	33252	32896	36932	
3194	0	33296	32976	36960	
3195	0	33260	32912	36964	
3196	0	33212	32868	36980	
3197	0	33100	32912	36972	
3198	0	33080	32869	36964	
3199	0	33052	32717	36977	
3200	0	33044	32816	36980	
3201	0	32896	32962	36984	
3202	0	32580	32924	36975	
3203	0	32232	32936	36972	
3204	0	32204	33082	36964	
3205	0	32244	33012	36964	
3206	0	32396	32752	36952	
3207	0	32644	32524	36952	
3208	0	32632	32584	36901	
3209	0	32568	32548	36897	
3210	0	32662	32660	36883	
3211	0	32676	32451	36836	
3212	0	32832	32700	36821	
3213	0	33108	32864	36796	
3214	0	33152	32951	36768	
3215	0	33152	32840	36748	
3216	0	33149	32836	36709	
3217	0	33272	32922	36692	
3218	0	33252	32905	36672	
3219	0	33188	32980	36641	
3220	0	32970	32972	36651	
3221	0	32756	33101	36636	
3222	0	32613	33196	36628	
3223	0	32424	32945	36612	
3224	0	32480	32929	36632	
3225	0	32356	32750	36641	
3226	0	32076	32748	36648	
3227	0	32064	32738	36612	
3228	0	32328	32652	36600	
3229	0	32512	32697	36609	
3230	0	32828	32468	36599	
3231	0	33204	32624	36610	
3232	0	33248	32830	36580	
3233	0	33146	32810	36564	
3234	0	32992	32736	36577	
3235	0	32992	32830	36589	
3236	0	32986	32950	36576	
3237	0	33238	32924	36557	
3238	0	33228	32900	36556	
3239	0	32996	32986	36540	
3240	0	32948	32741	36540	
3241	0	32924	32880	36544	
3242	0	32872	32968	36534	
3243	0	32568	32812	36508	
3244	0	32464	32828	36476	
3245	0	32397	32970	36465	
3246	0	32292	32852	36443	
3247	0	32317	32748	36444	
3248	0	32412	32757	36421	
3249	0	32508	32700	36425	
3250	0	32644	32728	36401	
3251	0	32622	32929	36384	
3252	0	32868	32952	36376	
3253	0	33120	32935	36346	
3254	0	33292	32904	36330	
3255	0	33136	32880	36320	
3256	0	33172	32826	36324	
3257	0	33232	32889	36292	
3258	0	33196	32796	36304	
3259	0	33108	32647	36306	
3260	0	32864	32700	36300	
3261	0	32734	32674	36330	
3262	0	32580	32856	36340	
3263	0	32528	33027	36372	
3264	0	32464	33052	36382	
3265	0	32332	33028	36408	
3266	0	32224	32928	36424	
3267	0	32236	32708	36428	
3268	0	32300	32696	36448	
3269	0	32481	32796	36472	
3270	0	32800	32853	36500	
3271	0	33142	32752	36525	
3272	0	33336	32638	36560	
3273	0	33172	32708	36557	
3274	0	33122	32841	36580	
3275	0	32924	32964	36588	
3276	0	32929	32836	36592	
3277	0	32956	32854	36615	
3278	0	33004	32773	36628	
3279	0	33028	32660	36666	
3280	0	32920	32793	36684	
3281	0	33102	32932	36688	
3282	0	32796	32846	36702	
3283	0	32566	32744	36688	
3284	0	32424	32912	36713	
3285	0	32188	32988	36716	
3286	0	32276	32800	36702	
3287	0	32312	32839	36672	
3288	0	32494	32746	36665	
3289	0	32602	32783	36672	
3290	0	32657	32750	36684	
3291	0	32800	32774	36688	
3292	0	32892	32932	36700	
3293	0	33000	32836	36704	
3294	0	33105	32756	36704	
3295	0	33122	32684	36736	
3296	0	33148	32678	36730	
3297	0	33244	32828	36752	
3298	0	33285	32928	36752	
3299	0	33191	32782	36748	
3300	0	32940	32807	36744	
3301	0	32772	32788	36741	
3302	0	32570	32976	36764	
3303	0	32604	33057	36752	
3304	0	32553	33133	36740	
3305	0	32364	32953	36736	
3306	0	32304	32868	36746	
3307	0	32390	32656	36740	
3308	0	32408	32606	36748	
3309	0	32356	32584	36737	
3310	0	32479	32710	36722	
3311	0	32669	32770	36696	
3312	0	32908	32807	36689	
3313	0	33092	32871	36672	
3314	0	33212	33026	36662	
3315	0	33292	32985	36644	
3316	0	33140	32932	36644	
3317	0	33168	32978	36635	
3318	0	33140	32916	36609	
3319	0	33153	32993	36588	
3320	0	32982	32982	36596	
3321	0	32904	32812	36560	
3322	0	32816	32877	36560	
3323	0	32608	32728	36552	
3324	0	32415	32756	36548	
3325	0	32004	32750	36521	
3326	0	31816	32796	36505	
3327	0	32080	32832	36498	
3328	0	32436	32632	36506	
3329	0	32832	32780	36516	
3330	0	33316	32788	36517	
3331	0	33452	32713	36508	
3332	0	33133	32752	36517	
3333	0	33036	32749	36516	
3334	0	33072	32944	36512	
3335	0	33038	32908	36502	
3336	0	33124	32985	36485	
3337	0	33044	32944	36476	
3338	0	33056	32740	36469	
3339	0	33080	32680	36460	
3340	0	32950	32710	36479	
3341	0	32668	32814	36496	
3342	0	32648	32964	36500	
3343	0	32584	32981	36528	
3344	0	32413	32904	36564	
3345	0	32268	33028	36544	
3346	0	32322	33050	36550	
3347	0	32380	33116	36580	
3348	0	32244	32845	36560	
3349	0	32292	32736	36548	
3350	0	32664	32864	36545	
3351	0	32860	32645	36536	
3352	0	32942	32602	36516	
3353	0	33217	32590	36512	
3354	0	33572	32616	36511	
3355	0	33412	32541	36496	
3356	0	33047	32696	36504	
3357	0	33072	32788	36472	
3358	0	33092	32880	36484	
3359	0	32976	32941	36490	
3360	0	32920	32916	36524	
3361	0	32854	32912	36492	
3362	0	32681	33000	36512	
3363	0	32478	33100	36537	
3364	0	32441	32944	36566	
3365	0	32428	32884	36582	
3366	0	32309	32834	36592	
3367	0	32276	32818	36596	
3368	0	32220	32813	36612	
3369	0	32353	32909	36612	
3370	0	32576	32909	36600	
3371	0	32824	32892	36612	
3372	0	33272	32997	36633	
3373	0	33436	32752	36633	
3374	0	33308	32868	36648	
3375	0	33208	32844	36666	
3376	0	33116	32694	36664	
3377	0	33040	32616	36660	
3378	0	33068	32742	36660	
3379	0	32888	32804	36660	
3380	0	32638	32960	36676	
3381	0	32660	32794	36686	
3382	0	32606	32789	36708	
3383	0	32600	32996	36736	
3384	0	32712	32968	36768	
3385	0	32736	32932	36768	
3386	0	32404	32753	36760	
3387	0	32286	32652	36748	
3388	0	32370	32733	36736	
3389	0	32492	32936	36748	
3390	0	32610	32786	36742	
3391	0	32580	32748	36716	
3392	0	32736	32753	36736	
3393	0	32945	32768	36748	
3394	0	33148	32942	36756	
3395	0	33064	32942	36744	
3396	0	33152	32695	36734	
3397	0	33176	32616	36728	
3398	0	33196	32690	36713	
3399	0	33148	32767	36731	
3400	0	32996	32892	36708	
3401	0	32896	32912	36721	
3402	0	32644	32732	36728	
3403	0	32536	32828	36729	
3404	0	32464	33028	36729	
3405	0	32469	33113	36728	
3406	0	32424	32888	36720	
3407	0	32440	32828	36701	
3408	0	32516	32785	36681	
3409	0	32564	32728	36681	
3410	0	32672	32647	36665	
3411	0	32832	32756	36650	
3412	0	32757	32772	36636	
3413	0	32714	32848	36628	
3414	0	32994	32708	36630	
3415	0	33069	32912	36632	
3416	0	33204	32888	36631	
3417	0	33564	32820	36624	
3418	0	33604	32956	36620	
3419	0	33216	32772	36624	
3420	0	32816	32896	36612	
3421	0	32640	32760	36625	
3422	0	32596	32752	36608	
3423	0	32484	32948	36597	
3424	0	32636	33048	36590	
3425	0	32460	32900	36580	
3426	0	32148	32829	36592	
3427	0	32132	32801	36604	
3428	0	32253	32861	36615	
3429	0	32552	32652	36625	
3430	0	32840	32832	36628	
3431	0	32989	32829	36630	
3432	0	33040	32801	36604	
3433	0	33066	32858	36614	
3434	0	33136	32806	36596	
3435	0	33000	32865	36591	
3436	0	33108	32804	36608	
3437	0	33081	32823	36596	
3438	0	33048	32836	36568	
3439	0	33000	32886	36530	
3440	0	32848	33007	36512	
3441	0	32880	32916	36488	
3442	0	32644	33014	36497	
3443	0	32360	33022	36480	
3444	0	32312	32944	36428	
3445	0	32348	32928	36408	
3446	0	32364	32829	36378	
3447	0	32820	32849	36390	
3448	0	32969	32767	36388	
3449	0	32682	32728	36384	
3450	0	32835	32613	36345	
3451	0	32654	32786	36320	
3452	0	32904	32831	36309	
3453	0	32932	32708	36282	
3454	0	32960	32710	36272	
3455	0	33220	32864	36255	
3456	0	33216	32760	36244	
3457	0	33088	32640	36251	
3458	0	32976	32692	36244	
3459	0	32916	32837	36265	
3460	0	32932	32863	36277	
3461	0	32940	32828	36290	
3462	0	32612	32921	36281	
3463	0	32244	32925	36293	
3464	0	32340	32992	36324	
3465	0	32444	32981	36330	
3466	0	32556	32915	36344	
3467	0	32752	32841	36352	
3468	0	32844	32804	36364	
3469	0	32708	32838	36364	
3470	0	32588	32788	36396	
3471	0	32520	32742	36393	
3472	0	32492	32725	36382	
3473	0	32410	32816	36401	
3474	0	32690	32838	36405	
3475	0	33020	32904	36444	
3476	0	33412	32837	36451	
3477	0	33804	32868	36440	
3478	0	34180	33024	36476	
3479	0	33856	33028	36485	
3480	0	32964	33041	36512	
3481	0	32480	32929	36512	
3482	0	32328	32891	36529	
3483	0	32388	32852	36568	
3484	0	32276	32864	36584	
3485	0	32204	32800	36620	
3486	0	32344	32681	36622	
3487	0	32412	32628	36628	
3488	0	32552	32661	36633	
3489	0	32676	32789	36636	
3490	0	32804	32844	36656	
3491	0	32788	32804	36668	
3492	0	32704	32996	36673	
3493	0	32790	32948	36660	
3494	0	32832	32902	36660	
3495	0	32985	32772	36649	
3496	0	33092	32744	36645	
3497	0	33096	32812	36640	
3498	0	33192	32772	36676	
3499	0	33205	32604	36700	
3500	0	33052	32784	36736	
3501	0	32908	32839	36764	
3502	0	32656	32960	36812	
3503	0	32548	32817	36858	
3504	0	32508	32883	36878	
3505	0	32388	33055	36888	
3506	0	32260	33033	36914	
3507	0	32318	32892	36997	
3508	0	32464	32832	37092	
3509	0	32516	32828	37170	
3510	0	32652	32812	37228	
3511	0	32764	32732	37206	
3512	0	32920	32775	37116	
3513	0	32948	32804	37017	
3514	0	33057	32780	36908	
3515	0	33100	32828	36820	
3516	0	33157	32785	36742	
3517	0	33237	32780	36701	
3518	0	33156	32861	36668	
3519	0	33124	32882	36672	
3520	0	33224	32909	36682	
3521	0	32897	32868	36720	
3522	0	32417	32893	36776	
3523	0	32372	32896	36810	
3524	0	32434	32970	36844	
3525	0	32424	33008	36856	
3526	0	32413	32976	36853	
3527	0	32668	32612	36880	
3528	0	32876	32552	36894	
3529	0	32744	32646	36886	
3530	0	32590	32756	36866	
3531	0	32632	32724	36845	
3532	0	32948	32948	36853	
3533	0	33018	32802	36836	
3534	0	33044	32692	36820	
3535	0	32996	32800	36832	
3536	0	33028	32809	36813	
3537	0	33123	32740	36786	
3538	0	33009	32793	36768	
3539	0	32916	32784	36753	
3540	0	32812	32774	36748	
3541	0	32760	32864	36728	
3542	0	32772	32904	36720	
3543	0	32736	32856	36702	
3544	0	32572	32873	36677	
3545	0	32432	32909	36666	
3546	0	32342	33009	36636	
3547	0	32364	33058	36624	
3548	0	32364	32891	36606	
3549	0	32532	32772	36572	
3550	0	32684	32775	36548	
3551	0	32608	32813	36524	
3552	0	32652	32767	36492	
3553	0	32820	32760	36462	
3554	0	33176	32804	36396	
3555	0	33540	32834	36380	
3556	0	33564	32704	36359	
3557	0	33321	32764	36352	
3558	0	33034	32909	36335	
3559	0	32852	32836	36313	
3560	0	32896	32896	36292	
3561	0	32880	32788	36301	
3562	0	32888	32826	36274	
3563	0	32588	32892	36257	
3564	0	32553	32966	36247	
3565	0	32366	32980	36224	
3566	0	32322	32925	36190	
3567	0	32408	32740	36169	
3568	0	32488	32811	36148	
3569	0	32436	32754	36160	
3570	0	32485	32644	36143	
3571	0	32632	32585	36140	
3572	0	32808	32796	36148	
3573	0	32993	32792	36167	
3574	0	33078	32860	36174	
3575	0	33072	32908	36172	
3576	0	33205	32902	36178	
3577	0	33202	32777	36216	
3578	0	33088	32828	36232	
3579	0	33172	32782	36260	
3580	0	32984	32775	36293	
3581	0	32925	32900	36326	
3582	0	32876	32952	36357	
3583	0	32688	32910	36393	
3584	0	32408	32998	36412	
3585	0	32312	32924	36432	
3586	0	32292	32726	36468	
3587	0	32348	32505	36460	
3588	0	32340	32702	36480	
3589	0	32468	32877	36484	
3590	0	32592	32821	36528	
3591	0	32752	32770	36544	
3592	0	32912	32789	36556	
3593	0	33150	32708	36591	
3594	0	33140	32889	36583	
3595	0	33068	32996	36604	
3596	0	33048	32937	36621	
3597	0	33109	32927	36624	
3598	0	33030	32996	36648	
3599	0	32936	32847	36668	
3600	0	32900	32596	36665	
3601	0	32864	32712	36660	
3602	0	32996	32757	36670	
3603	0	32972	32844	36677	
3604	0	32880	32948	36680	
3605	0	32484	32932	36677	
3606	0	32276	32700	36684	
3607	0	32288	32774	36697	
3608	0	32448	32749	36676	
3609	0	32388	32785	36676	
3610	0	32388	32616	36700	
3611	0	32560	32808	36706	
3612	0	32861	32968	36692	
3613	0	33040	32928	36669	
3614	0	33141	32952	36657	
3615	0	33280	33036	36673	
3616	0	33192	33017	36682	
3617	0	33100	32856	36665	
3618	0	32884	32780	36672	
3619	0	32764	32793	36684	
3620	0	32889	32970	36689	
3621	0	32956	32873	36680	
3622	0	33008	32976	36697	
3623	0	33061	32892	36692	
3624	0	32640	33048	36668	
3625	0	32352	32881	36664	
3626	0	32294	32857	36647	
3627	0	32410	32843	36615	
3628	0	32345	32817	36641	
3629	0	32325	32791	36638	
3630	0	32553	32705	36621	
3631	0	32660	32724	36626	
3632	0	32760	32825	36628	
3633	0	32905	32772	36641	
3634	0	32960	32950	36636	
3635	0	32960	32892	36640	
3636	0	33140	32837	36633	
3637	0	33336	32740	36622	
3638	0	33348	32852	36626	
3639	0	33465	32796	36644	
3640	0	33340	33014	36657	
3641	0	33004	33062	36660	
3642	0	32560	32952	36647	
3643	0	32384	32793	36640	
3644	0	32429	33000	36660	
3645	0	32540	32840	36656	
3646	0	32401	32816	36644	
3647	0	32384	32720	36636	
3648	0	32248	32782	36620	
3649	0	32492	32713	36604	
3650	0	32612	32633	36574	
3651	0	32676	32822	36545	
3652	0	32865	32850	36520	
3653	0	33016	32588	36503	
3654	0	33204	32834	36524	
3655	0	33200	32737	36534	
3656	0	33140	32848	36526	
3657	0	32988	32838	36522	
3658	0	32844	32940	36532	
3659	0	32858	33090	36518	
3660	0	32932	32832	36519	
3661	0	32920	32816	36516	
3662	0	33000	32992	36500	
3663	0	32772	33124	36525	
3664	0	32696	33086	36524	
3665	0	32632	33080	36520	
3666	0	32512	32956	36504	
3667	0	32492	32646	36508	
3668	0	32328	32520	36492	
3669	0	32424	32756	36478	
3670	0	32536	32724	36479	
3671	0	32652	32656	36445	
3672	0	32672	32840	36428	
3673	0	32865	32792	36389	
3674	0	32980	32808	36398	
3675	0	33157	32784	36404	
3676	0	33228	32608	36359	
3677	0	33280	32618	36353	
3678	0	33172	32764	36348	
3679	0	33012	32743	36328	
3680	0	32960	32760	36336	
3681	0	32608	32900	36334	
3682	0	32480	32980	36342	
3683	0	32376	33023	36343	
3684	0	32489	33006	36372	
3685	0	32661	32948	36383	
3686	0	32840	32826	36412	
3687	0	32616	32797	36452	
3688	0	32512	32878	36473	
3689	0	32472	32909	36518	
3690	0	32486	32792	36540	
3691	0	32612	32792	36556	
3692	0	32744	32972	36584	
3693	0	32912	32788	36624	
3694	0	33032	32940	36660	
3695	0	33388	32892	36687	
3696	0	33261	32700	36722	
3697	0	33316	32668	36743	
3698	0	33112	32834	36736	
3699	0	33162	32777	36750	
3700	0	32992	32742	36768	
3701	0	32865	32930	36769	
3702	0	32669	32924	36774	
3703	0	32436	32644	36776	
3704	0	31996	32833	36800	
3705	0	31997	32927	36804	
3706	0	32108	32926	36809	
3707	0	32416	32756	36788	
3708	0	32808	32704	36777	
3709	0	33136	32725	36781	
3710	0	33152	32912	36756	
3711	0	32900	32880	36765	
3712	0	32688	32860	36730	
3713	0	32716	32872	36716	
3714	0	32906	32895	36708	
3715	0	33180	32816	36704	
3716	0	33308	32766	36680	
3717	0	33100	32748	36672	
3718	0	33208	32722	36648	
3719	0	33219	32792	36628	
3720	0	32956	32908	36588	
3721	0	32868	33052	36588	
3722	0	32666	33152	36572	
3723	0	32329	32885	36573	
3724	0	32402	32860	36562	
3725	0	32504	32789	36549	
3726	0	32330	32724	36544	
3727	0	32568	32822	36537	
3728	0	32548	32729	36528	
3729	0	32376	32640	36518	
3730	0	32488	32732	36496	
3731	0	32808	32680	36476	
3732	0	32804	32764	36472	
3733	0	32696	32804	36455	
3734	0	32764	32960	36423	
3735	0	32980	33014	36422	
3736	0	33224	32741	36412	
3737	0	33384	32772	36400	
3738	0	33496	32834	36376	
3739	0	33052	32858	36374	
3740	0	32720	32826	36358	
3741	0	32660	32800	36369	
3742	0	32716	32946	36359	
3743	0	32864	32900	36357	
3744	0	33101	32886	36349	
3745	0	33000	32970	36368	
3746	0	32645	32836	36369	
3747	0	32288	32784	36353	
3748	0	32320	32665	36358	
3749	0	32324	32681	36352	
3750	0	32510	32857	36333	
3751	0	32601	32886	36316	
3752	0	32581	32852	36326	
3753	0	32717	32892	36283	
3754	0	32900	32798	36260	
3755	0	33168	32886	36264	
3756	0	33313	32960	36260	
3757	0	33368	32924	36268	
3758	0	33456	32623	36250	
3759	0	33284	32804	36256	
3760	0	32916	32868	36269	
3761	0	32673	32972	36261	
3762	0	32612	33004	36272	
3763	0	32524	32868	36276	
3764	0	32428	33080	36296	
3765	0	32356	33100	36292	
3766	0	32248	32792	36312	
3767	0	32304	32548	36280	
3768	0	32452	32665	36289	
3769	0	32485	32732	36290	
3770	0	32540	32753	36328	
3771	0	32716	32652	36336	
3772	0	32706	32744	36338	
3773	0	32872	32743	36324	
3774	0	33000	32977	36342	
3775	0	33374	32984	36390	
3776	0	33636	33049	36397	
3777	0	33516	32944	36405	
3778	0	33322	32968	36408	
3779	0	33012	32996	36408	
3780	0	33008	32969	36441	
3781	0	32804	32859	36448	
3782	0	32680	32857	36469	
3783	0	32534	32633	36472	
3784	0	32408	32661	36492	
3785	0	32340	32839	36517	
3786	0	32276	32812	36516	
3787	0	32372	32892	36532	
3788	0	32390	32622	36509	
3789	0	32308	32918	36502	
3790	0	32400	32877	36532	
3791	0	32628	32697	36556	
3792	0	32957	32808	36580	
3793	0	33240	32814	36578	
3794	0	33360	32940	36589	
3795	0	33269	32858	36615	
3796	0	33136	32708	36649	
3797	0	33004	32972	36672	
3798	0	33288	32918	36662	
3799	0	33204	32712	36684	
3800	0	33136	32702	36668	
3801	0	32812	32866	36672	
3802	0	32694	32913	36684	
3803	0	32528	32966	36680	
3804	0	32500	32986	36678	
3805	0	32394	32974	36666	
3806	0	32200	32844	36662	
3807	0	32200	32864	36654	
3808	0	32296	32826	36665	
3809	0	32359	32694	36660	
3810	0	32484	32784	36652	
3811	0	32613	32848	36639	
3812	0	32812	32836	36615	
3813	0	33140	32808	36606	
3814	0	33516	33060	36620	
3815	0	33484	32789	36620	
3816	0	33496	32612	36620	
3817	0	33204	32704	36608	
3818	0	33096	32896	36604	
3819	0	33069	32836	36576	
3820	0	32976	32790	36584	
3821	0	32808	32739	36614	
3822	0	32637	32804	36632	
3823	0	32548	32892	36632	
3824	0	32528	33033	36637	
3825	0	32374	33016	36638	
3826	0	32260	32868	36620	
3827	0	32180	32830	36628	
3828	0	32356	32852	36644	
3829	0	32460	32817	36647	
3830	0	32664	32921	36632	
3831	0	32740	32904	36637	
3832	0	32828	32756	36605	
3833	0	32988	32817	36596	
3834	0	33108	32830	36577	
3835	0	33144	32916	36576	
3836	0	33000	32826	36564	
3837	0	33056	32900	36564	
3838	0	33136	32804	36537	
3839	0	33040	32926	36534	
3840	0	33241	32712	36548	
3841	0	33244	32775	36562	
3842	0	32990	32881	36577	
3843	0	32632	32969	36565	
3844	0	32516	32829	36570	
3845	0	32288	32926	36600	
3846	0	32172	33008	36608	
3847	0	32308	32994	36622	
3848	0	32368	32927	36592	
3849	0	32420	32820	36584	
3850	0	32652	32652	36588	
3851	0	32760	32820	36589	
3852	0	32864	32736	36592	
3853	0	32964	32692	36596	
3854	0	33152	32792	36596	
3855	0	33088	32615	36585	
3856	0	33066	32680	36580	
3857	0	33092	32708	36582	
3858	0	33036	32814	36589	
3859	0	33006	32896	36601	
3860	0	33144	32906	36612	
3861	0	32976	33063	36596	
3862	0	32912	33204	36637	
3863	0	32664	32968	36606	
3864	0	32413	32949	36624	
3865	0	32204	33108	36625	
3866	0	32096	32774	36633	
3867	0	32236	32613	36637	
3868	0	32464	32734	36628	
3869	0	32816	32672	36637	
3870	0	33116	32757	36634	
3871	0	32872	32879	36624	
3872	0	32752	32892	36639	
3873	0	32860	32753	36616	
3874	0	32937	32884	36605	
3875	0	33116	32874	36596	
3876	0	33161	32830	36583	
3877	0	33221	32775	36568	
3878	0	33205	32738	36580	
3879	0	33116	32752	36582	
3880	0	32980	32672	36588	
3881	0	32876	32786	36597	
3882	0	32793	32836	36607	
3883	0	32576	32917	36588	
3884	0	32492	32992	36604	
3885	0	32472	32824	36620	
3886	0	32365	32798	36633	
3887	0	32264	32820	36628	
3888	0	32304	32554	36604	
3889	0	32368	32852	36604	
3890	0	32584	32724	36596	
3891	0	32572	32789	36584	
3892	0	32844	32832	36590	
3893	0	32968	32793	36593	
3894	0	32996	32866	36612	
3895	0	32944	33008	36615	
3896	0	33040	32965	36605	
3897	0	33096	33057	36597	
3898	0	33233	32992	36598	
3899	0	33524	32728	36596	
3900	0	33172	32692	36580	
3901	0	33224	32683	36548	
3902	0	33142	32788	36580	
3903	0	32924	32836	36564	
3904	0	32638	32925	36584	
3905	0	32280	32898	36588	
3906	0	32300	32892	36593	
3907	0	32260	32876	36588	
3908	0	32332	32757	36612	
3909	0	32381	32708	36588	
3910	0	32496	32775	36600	
3911	0	32576	32964	36624	
3912	0	32769	32796	36628	
3913	0	32985	32807	36644	
3914	0	33140	32830	36672	
3915	0	33196	32721	36664	
3916	0	33168	32701	36648	
3917	0	33164	32785	36633	
3918	0	33121	32850	36632	
3919	0	33036	32860	36640	
3920	0	32962	33008	36670	
3921	0	32700	33028	36680	
3922	0	32625	32943	36709	
3923	0	32300	32904	36712	
3924	0	32428	33083	36724	
3925	0	32396	32960	36716	
3926	0	32468	32852	36716	
3927	0	32612	32752	36730	
3928	0	32748	32795	36724	
3929	0	32536	32712	36724	
3930	0	32452	32696	36724	
3931	0	32615	32673	36709	
3932	0	32876	32676	36696	
3933	0	33100	32696	36688	
3934	0	33120	32868	36676	
3935	0	33244	32837	36682	
3936	0	33248	32752	36645	
3937	0	33168	32790	36640	
3938	0	32953	32900	36650	
3939	0	33004	32800	36652	
3940	0	32956	32824	36632	
3941	0	32840	32861	36628	
3942	0	32824	32814	36620	
3943	0	32488	32730	36620	
3944	0	32464	32828	36615	
3945	0	32545	33020	36592	
3946	0	32352	32912	36580	
3947	0	32409	32864	36556	
3948	0	32400	32809	36548	
3949	0	32520	32784	36528	
3950	0	32580	32824	36498	
3951	0	32584	32793	36474	
3952	0	32749	32842	36468	
3953	0	32922	32716	36452	
3954	0	33116	32676	36461	
3955	0	33304	32918	36436	
3956	0	33264	32829	36420	
3957	0	33221	32860	36396	
3958	0	33092	32920	36397	
3959	0	33102	32796	36414	
3960	0	32888	32912	36417	
3961	0	32865	32956	36408	
3962	0	32856	32988	36416	
3963	0	32574	33030	36428	
3964	0	32580	33046	36444	
3965	0	32532	32943	36468	
3966	0	32420	32855	36468	
3967	0	32404	32708	36500	
3968	0	32444	32573	36501	
3969	0	32505	32736	36500	
3970	0	32580	32764	36500	
3971	0	32676	32849	36508	
3972	0	32772	32924	36518	
3973	0	32908	32744	36517	
3974	0	32908	32838	36500	
3975	0	33065	32740	36476	
3976	0	33308	32817	36448	
3977	0	33278	32871	36457	
3978	0	33236	32856	36431	
3979	0	33156	32886	36428	
3980	0	33056	32938	36422	
3981	0	32776	32896	36404	
3982	0	32588	32910	36394	
3983	0	32464	32724	36380	
3984	0	32346	32805	36400	
3985	0	32244	32820	36384	
3986	0	32612	32872	36389	
3987	0	32816	32828	36359	
3988	0	32824	32788	36378	
3989	0	32724	32928	36340	
3990	0	32432	32840	36334	
3991	0	32482	32860	36342	
3992	0	32792	32828	36332	
3993	0	32964	32804	36324	
3994	0	33108	32840	36334	
3995	0	33076	32904	36318	
3996	0	33032	32782	36326	
3997	0	33060	32652	36339	
3998	0	33048	32780	36329	
3999	0	33110	33012	36344	
4000	0	33036	32728	36343	
4001	0	32908	32740	36354	
4002	0	32784	32877	36356	
4003	0	32632	32934	36399	
4004	0	32476	32976	36422	
4005	0	32428	32932	36450	
4006	0	32248	32908	36468	
4007	0	32356	32804	36480	
4008	0	32464	32788	36516	
4009	0	32220	32886	36518	
4010	0	32408	32916	36521	
4011	0	32584	32910	36552	
4012	0	32792	33048	36556	
4013	0	33060	32917	36580	
4014	0	33548	33120	36624	
4015	0	33392	32876	36624	
4016	0	33252	32340	36636	
4017	0	33224	32453	36640	
4018	0	33086	32589	36632	
4019	0	33120	32551	36630	
4020	0	33008	32793	36615	
4021	0	32797	32897	36624	
4022	0	32544	32980	36620	
4023	0	32564	32993	36654	
4024	0	32540	33085	36684	
4025	0	32412	33201	36708	
4026	0	32254	32846	36704	
4027	0	32244	32683	36696	
4028	0	32368	32733	36682	
4029	0	32593	32664	36677	
4030	0	32736	32624	36676	
4031	0	32798	32804	36656	
4032	0	32992	32818	36652	
4033	0	33025	32805	36652	
4034	0	33064	32793	36672	
4035	0	33121	32920	36664	
4036	0	33209	32913	36664	
4037	0	33065	32649	36676	
4038	0	32992	32812	36654	
4039	0	33084	33012	36660	
4040	0	32934	32928	36652	
4041	0	32840	32940	36648	
4042	0	32824	33136	36660	
4043	0	32552	32852	36644	
4044	0	32552	32990	36676	
4045	0	32368	32936	36665	
4046	0	32228	32873	36660	
4047	0	31973	32765	36644	
4048	0	32141	32769	36658	
4049	0	32228	32784	36641	
4050	0	32580	32736	36626	
4051	0	32980	32849	36650	
4052	0	33654	32756	36655	
4053	0	33932	32834	36620	
4054	0	33388	32900	36620	
4055	0	32956	33040	36628	
4056	0	33096	32700	36620	
4057	0	33080	32684	36627	
4058	0	33054	32780	36616	
4059	0	33096	32788	36634	
4060	0	32953	32775	36624	
4061	0	32892	32841	36593	
4062	0	32656	32924	36590	
4063	0	32454	32953	36596	
4064	0	32470	32996	36572	
4065	0	32336	32916	36573	
4066	0	32316	32820	36568	
4067	0	32364	32698	36544	
4068	0	32388	32629	36516	
4069	0	32357	32695	36524	
4070	0	32568	32564	36516	
4071	0	32700	32794	36501	
4072	0	32856	32891	36484	
4073	0	32928	32940	36497	
4074	0	32861	33009	36492	
4075	0	33172	32888	36490	
4076	0	33158	32864	36488	
4077	0	33197	32816	36487	
4078	0	33188	32792	36501	
4079	0	33217	32744	36512	
4080	0	33116	32648	36524	
4081	0	33000	32636	36548	
4082	0	32820	32792	36533	
4083	0	32660	32869	36512	
4084	0	32488	32685	36526	
4085	0	32300	33018	36516	
4086	0	32124	33061	36520	
4087	0	32153	32999	36517	
4088	0	32300	32900	36472	
4089	0	32324	32720	36464	
4090	0	32548	32723	36444	
4091	0	32796	32696	36404	
4092	0	32880	32676	36380	
4093	0	33004	32644	36340	
4094	0	33144	32809	36325	
4095	0	33356	32964	36316	
4096	0	33353	32881	36292	
4097	0	33226	32857	36293	
4098	0	33068	32832	36305	
4099	0	33021	32647	36312	
4100	0	32880	32735	36304	
4101	0	32672	33072	36324	
4102	0	32413	33068	36336	
4103	0	32468	32948	36356	
4104	0	32648	33092	36384	
4105	0	32911	32951	36405	
4106	0	32820	32870	36424	
4107	0	32720	32848	36433	
4108	0	32508	32893	36432	
4109	0	32428	32781	36453	
4110	0	32476	32740	36465	
4111	0	32596	32884	36476	
4112	0	32737	32925	36477	
4113	0	32896	32846	36501	
4114	0	33044	32610	36520	
4115	0	33086	32624	36548	
4116	0	33232	32572	36539	
4117	0	33068	32716	36560	
4118	0	33060	32686	36560	
4119	0	32916	32809	36564	
4120	0	33012	33004	36576	
4121	0	32852	33014	36600	
4122	0	32965	33012	36613	
4123	0	32652	33016	36606	
4124	0	32436	32992	36604	
4125	0	32532	32885	36612	
4126	0	32460	32788	36614	
4127	0	32534	32799	36615	
4128	0	32744	32716	36593	
4129	0	32500	32762	36616	
4130	0	32128	32764	36621	
4131	0	32268	32612	36612	
4132	0	32417	32701	36636	
4133	0	32812	32788	36656	
4134	0	33136	32871	36672	
4135	0	33452	32892	36684	
4136	0	33796	32952	36700	
4137	0	33576	32904	36721	
4138	0	33384	32880	36743	
4139	0	32900	32960	36768	
4140	0	32814	32825	36759	
4141	0	32684	32932	36743	
4142	0	32848	32916	36765	
4143	0	32896	32836	36782	
4144	0	32874	32912	36767	
4145	0	32366	32880	36748	
4146	0	32196	32869	36732	
4147	0	32252	32876	36730	
4148	0	32316	32878	36717	
4149	0	32336	32784	36700	
4150	0	32409	32679	36713	
4151	0	32644	32594	36712	
4152	0	32777	32668	36711	
4153	0	32996	32809	36705	
4154	0	33044	32913	36716	
4155	0	33168	32834	36708	
4156	0	33140	32784	36709	
4157	0	33068	32854	36703	
4158	0	33059	32696	36696	
4159	0	32849	32762	36704	
4160	0	32768	32924	36688	
4161	0	32872	32960	36692	
4162	0	32816	33014	36680	
4163	0	32916	32904	36693	
4164	0	33052	32927	36677	
4165	0	32676	32926	36692	
4166	0	32337	32808	36669	
4167	0	32277	32848	36656	
4168	0	32416	33045	36644	
4169	0	32508	32910	36607	
4170	0	32568	32796	36588	
4171	0	32660	32761	36548	
4172	0	32740	32712	36540	
4173	0	32960	32648	36508	
4174	0	33164	32630	36463	
4175	0	33168	32820	36444	
4176	0	33132	32774	36400	
4177	0	33094	32844	36396	
4178	0	33058	32864	36384	
4179	0	33144	32852	36356	
4180	0	33101	32736	36341	
4181	0	32920	32940	36317	
4182	0	32833	32820	36312	
4183	0	32505	32896	36288	
4184	0	32464	32956	36266	
4185	0	32332	32821	36277	
4186	0	32284	32846	36264	
4187	0	32360	32812	36261	
4188	0	32319	32816	36272	
4189	0	32556	32920	36254	
4190	0	32712	32738	36229	
4191	0	32768	32820	36236	
4192	0	32770	32869	36228	
4193	0	32820	32714	36232	
4194	0	32980	32852	36212	
4195	0	33246	32976	36216	
4196	0	33217	32952	36204	
4197	0	33278	32964	36197	
4198	0	33224	32979	36209	
4199	0	33212	32596	36218	
4200	0	33092	32832	36213	
4201	0	32900	32717	36210	
4202	0	32645	32757	36192	
4203	0	32482	32857	36228	
4204	0	32376	33106	36244	
4205	0	32313	32948	36246	
4206	0	32228	32764	36252	
4207	0	32436	32743	36260	
4208	0	32512	32780	36280	
4209	0	32388	32788	36260	
4210	0	32621	32849	36264	
4211	0	32748	32676	36258	
4212	0	32726	32878	36272	
4213	0	32888	32873	36249	
4214	0	33116	32841	36268	
4215	0	33233	32824	36300	
4216	0	33068	32876	36277	
4217	0	33012	33060	36282	
4218	0	33016	32890	36297	
4219	0	33136	32865	36324	
4220	0	33425	32908	36337	
4221	0	33204	32854	36375	
4222	0	32924	32880	36372	
4223	0	32632	32844	36409	
4224	0	32456	32904	36420	
4225	0	32292	33055	36460	
4226	0	32292	32938	36508	
4227	0	32280	32808	36512	
4228	0	32356	32809	36542	
4229	0	32456	32926	36556	
4230	0	32489	32747	36578	
4231	0	32657	32634	36584	
4232	0	32640	32599	36608	
4233	0	32652	32652	36636	
4234	0	32876	32809	36666	
4235	0	33104	32870	36708	
4236	0	33328	32829	36720	
4237	0	33556	32759	36740	
4238	0	33640	32724	36776	
4239	0	33373	32699	36788	
4240	0	33044	32802	36792	
4241	0	32832	32797	36810	
4242	0	32736	32948	36836	
4243	0	32612	32948	36864	
4244	0	32589	32952	36881	
4245	0	32428	32894	36872	
4246	0	32086	32789	36868	
4247	0	32088	32640	36868	
4248	0	32248	32653	36836	
4249	0	32504	32845	36832	
4250	0	32597	33070	36829	
4251	0	32700	32940	36836	
4252	0	32784	32908	36804	
4253	0	32917	32816	36796	
4254	0	33124	32837	36772	
4255	0	33176	32996	36783	
4256	0	33295	32740	36759	
4257	0	33252	32442	36745	
4258	0	33174	32560	36726	
4259	0	33046	32704	36724	
4260	0	32897	32762	36708	
4261	0	32840	32876	36677	
4262	0	32840	32832	36649	
4263	0	32656	32990	36672	
4264	0	32444	32968	36676	
4265	0	32188	32956	36670	
4266	0	32390	32912	36656	
4267	0	32450	32811	36660	
4268	0	32528	32824	36664	
4269	0	32588	32725	36655	
4270	0	32700	32804	36636	
4271	0	32752	32804	36656	
4272	0	32780	32902	36644	
4273	0	32877	32832	36632	
4274	0	32920	32952	36648	
4275	0	33164	32969	36652	
4276	0	33180	32797	36660	
4277	0	33164	32828	36664	
4278	0	33180	32772	36661	
4279	0	33056	32780	36680	
4280	0	32776	32668	36680	
4281	0	32434	32890	36655	
4282	0	32376	32936	36665	
4283	0	32513	32948	36647	
4284	0	32584	32969	36633	
4285	0	32844	32944	36615	
4286	0	33144	32910	36596	
4287	0	32805	32865	36573	
4288	0	32576	32920	36569	
4289	0	32760	32796	36557	
4290	0	32650	32743	36540	
4291	0	32466	32832	36513	
4292	0	32664	32860	36508	
4293	0	33008	32620	36480	
4294	0	33173	32878	36471	
4295	0	33052	32888	36471	
4296	0	33108	32704	36464	
4297	0	32968	32732	36457	
4298	0	33044	32838	36432	
4299	0	32952	32870	36421	
4300	0	32870	33025	36424	
4301	0	32736	32996	36412	
4302	0	32876	32975	36402	
4303	0	32708	32848	36410	
4304	0	32673	32898	36372	
4305	0	32576	32815	36372	
4306	0	32360	32694	36365	
4307	0	32268	32617	36352	
4308	0	32340	32718	36357	
4309	0	32421	32753	36328	
4310	0	32512	32708	36332	
4311	0	32628	32849	36332	
4312	0	32860	32988	36306	
4313	0	32900	32756	36300	
4314	0	33004	32884	36310	
4315	0	33080	32849	36284	
4316	0	33210	32815	36297	
4317	0	33228	32773	36280	
4318	0	33328	32836	36264	
4319	0	33144	32853	36259	
4320	0	32969	32812	36255	
4321	0	32768	32734	36256	
4322	0	32748	32708	36254	
4323	0	32512	32806	36256	
4324	0	32542	33048	36271	
4325	0	32440	33095	36280	
4326	0	32252	33050	36281	
4327	0	32433	32744	36296	
4328	0	32616	32696	36321	
4329	0	32585	32840	36348	
4330	0	32596	32972	36353	
4331	0	32720	32712	36352	
4332	0	32808	32836	36377	
4333	0	32942	32741	36400	
4334	0	32905	32896	36425	
4335	0	33000	32960	36460	
4336	0	33180	33022	36476	
4337	0	33124	33015	36500	
4338	0	32956	32898	36548	
4339	0	33028	32711	36600	
4340	0	32996	32762	36596	
4341	0	32924	32926	36608	
4342	0	33104	32906	36648	
4343	0	33020	32830	36674	
4344	0	32685	32968	36684	
4345	0	32424	32873	36717	
4346	0	32340	32925	36741	
4347	0	32172	32957	36748	
4348	0	32356	32856	36736	
4349	0	32596	32581	36733	
4350	0	32544	32605	36724	
4351	0	32644	32649	36742	
4352	0	32688	32721	36737	
4353	0	32788	32742	36756	
4354	0	32762	32892	36784	
4355	0	32950	33036	36784	
4356	0	33148	32980	36784	
4357	0	33176	32952	36804	
4358	0	33245	32868	36786	
4359	0	33408	32806	36814	
4360	0	33126	32786	36820	
4361	0	32449	32836	36824	
4362	0	32354	32906	36825	
4363	0	32452	32956	36824	
4364	0	32517	32996	36828	
4365	0	33008	32961	36788	
4366	0	33188	32700	36820	
4367	0	32848	32663	36796	
4368	0	32436	32700	36790	
4369	0	32342	32680	36789	
4370	0	32420	32852	36797	
4371	0	32596	32754	36772	
4372	0	32680	32798	36761	
4373	0	32709	32814	36736	
4374	0	32944	32704	36710	
4375	0	33120	32863	36692	
4376	0	33112	32772	36700	
4377	0	33044	32812	36668	
4378	0	33129	32911	36668	
4379	0	33104	32882	36656	
4380	0	33068	32892	36656	
4381	0	32904	32913	36644	
4382	0	32763	32916	36629	
4383	0	32625	32885	36601	
4384	0	32528	33105	36591	
4385	0	32428	32900	36600	
4386	0	32292	32892	36580	
4387	0	32372	32856	36561	
4388	0	32476	32744	36548	
4389	0	32588	32764	36538	
4390	0	32704	32728	36528	
4391	0	32552	32732	36494	
4392	0	32708	32631	36488	
4393	0	33022	32676	36464	
4394	0	33056	32797	36446	
4395	0	33044	32869	36416	
4396	0	33312	32796	36381	
4397	0	33241	32779	36356	
4398	0	33078	32793	36316	
4399	0	33068	32718	36292	
4400	0	32956	32714	36269	
4401	0	32876	32832	36269	
4402	0	32788	32918	36284	
4403	0	32672	32926	36293	
4404	0	32569	32932	36280	
4405	0	32437	33016	36260	
4406	0	32186	33000	36244	
4407	0	32096	32885	36218	
4408	0	32228	32838	36204	
4409	0	32536	32670	36204	
4410	0	32764	32736	36196	
4411	0	33176	32730	36177	
4412	0	33168	32793	36176	
4413	0	32944	32848	36156	
4414	0	32892	32860	36161	
4415	0	32940	32977	36160	
4416	0	33116	32922	36140	
4417	0	33140	32902	36144	
4418	0	33120	32876	36140	
4419	0	33252	32870	36129	
4420	0	33092	32880	36137	
4421	0	32832	33013	36152	
4422	0	32768	32840	36142	
4423	0	32742	32924	36164	
4424	0	32704	33048	36196	
4425	0	32552	33032	36216	
4426	0	32280	32701	36208	
4427	0	32220	32710	36216	
4428	0	32256	32656	36222	
4429	0	32308	32600	36221	
4430	0	32484	32680	36225	
4431	0	32813	32585	36233	
4432	0	32924	32660	36245	
4433	0	32964	32807	36232	
4434	0	33176	32909	36275	
4435	0	33162	32928	36272	
4436	0	33060	32820	36293	
4437	0	33128	32704	36310	
4438	0	33212	32896	36333	
4439	0	33060	33049	36349	
4440	0	33044	32712	36381	
4441	0	32992	32700	36396	
4442	0	32828	32957	36408	
4443	0	32580	32961	36425	
4444	0	32432	32984	36424	
4445	0	32480	33044	36452	
4446	0	32252	33000	36469	
4447	0	32312	32892	36480	
4448	0	32448	32700	36484	
4449	0	32448	32660	36485	
4450	0	32598	32660	36489	
4451	0	32412	32677	36528	
4452	0	32520	32752	36532	
4453	0	32730	32760	36545	
4454	0	33096	32761	36544	
4455	0	33532	32855	36581	
4456	0	33792	32664	36565	
4457	0	33692	32834	36596	
4458	0	33400	32868	36608	
4459	0	32964	32868	36634	
4460	0	33008	32951	36672	
4461	0	32812	33017	36668	
4462	0	32680	33024	36664	
4463	0	32425	32924	36684	
4464	0	32271	33000	36684	
4465	0	32384	32962	36672	
4466	0	32360	32849	36691	
4467	0	32336	32804	36686	
4468	0	32573	32826	36672	
4469	0	32490	32718	36660	
4470	0	32420	32786	36661	
4471	0	32564	32775	36660	
4472	0	32708	32753	36640	
4473	0	33183	32692	36624	
4474	0	33564	32736	36636	
4475	0	33368	32793	36632	
4476	0	33164	32898	36652	
4477	0	32984	32836	36668	
4478	0	32956	32868	36668	
4479	0	33020	32809	36677	
4480	0	32948	32940	36676	
4481	0	32784	32877	36692	
4482	0	32708	33045	36704	
4483	0	32608	32912	36708	
4484	0	32512	32804	36732	
4485	0	32520	32892	36740	
4486	0	32400	32834	36772	
4487	0	32338	32856	36742	
4488	0	32424	32712	36701	
4489	0	32273	32890	36714	
4490	0	32384	32833	36696	
4491	0	32528	32829	36685	
4492	0	32800	32754	36666	
4493	0	33188	32740	36660	
4494	0	33624	32809	36624	
4495	0	33380	32924	36628	
4496	0	33090	32782	36632	
4497	0	33048	32585	36604	
4498	0	33024	32726	36589	
4499	0	32940	32797	36570	
4500	0	32988	32808	36541	
4501	0	32872	32708	36516	
4502	0	32840	32938	36517	
4503	0	32728	33129	36493	
4504	0	32504	33036	36448	
4505	0	32377	32964	36432	
4506	0	32272	32956	36404	
4507	0	32272	32936	36421	
4508	0	32208	32790	36406	
4509	0	32357	32681	36368	
4510	0	32580	32731	36352	
4511	0	32780	32873	36334	
4512	0	33025	32848	36324	
4513	0	33068	33192	36330	
4514	0	33108	32469	36304	
4515	0	33201	32876	36292	
4516	0	33180	32845	36292	
4517	0	33128	32786	36288	
4518	0	33060	32786	36294	
4519	0	33016	32724	36312	
4520	0	33012	32716	36324	
4521	0	32992	32855	36332	
4522	0	32764	32940	36333	
4523	0	32753	32928	36356	
4524	0	32712	32928	36384	
4525	0	32528	32956	36380	
4526	0	32312	33050	36398	
4527	0	32248	32855	36404	
4528	0	32412	32558	36412	
4529	0	32408	32625	36420	
4530	0	32496	32652	36439	
4531	0	32510	32839	36448	
4532	0	32857	32886	36446	
4533	0	32937	32774	36442	
4534	0	33096	32789	36441	
4535	0	33176	33085	36448	
4536	0	33164	32894	36473	
4537	0	33124	32796	36464	
4538	0	33180	32804	36488	
4539	0	33044	32796	36488	
4540	0	32999	32775	36500	
4541	0	32745	32964	36504	
4542	0	32550	32877	36529	
4543	0	32376	32879	36550	
4544	0	32538	32873	36556	
4545	0	32648	32812	36580	
4546	0	32594	32837	36597	
4547	0	32696	32852	36589	
4548	0	32519	32800	36624	
4549	0	32416	32804	36636	
4550	0	32480	32708	36663	
4551	0	32728	32812	36668	
4552	0	32711	32768	36668	
4553	0	32942	32916	36684	
4554	0	33024	33005	36694	
4555	0	33004	32902	36691	
4556	0	33300	32748	36701	
4557	0	33338	32781	36724	
4558	0	33316	32864	36722	
4559	0	33149	32801	36733	
4560	0	32914	32825	36708	
4561	0	32745	32884	36720	
4562	0	32656	32924	36704	
4563	0	32546	32931	36700	
4564	0	32432	32941	36716	
4565	0	32470	32982	36709	
4566	0	32464	32908	36709	
4567	0	32384	32952	36712	
4568	0	32464	32958	36708	
4569	0	32500	32879	36689	
4570	0	32596	32677	36721	
4571	0	32572	32566	36721	
4572	0	32788	32588	36732	
4573	0	32952	32628	36696	
4574	0	33076	32836	36678	
4575	0	33088	32796	36666	
4576	0	33158	32692	36648	
4577	0	33093	32832	36632	
4578	0	33085	32829	36629	
4579	0	33192	32712	36650	
4580	0	32968	32655	36631	
4581	0	32844	32818	36632	
4582	0	32841	32903	36630	
4583	0	32754	32815	36580	
4584	0	32592	32892	36557	
4585	0	32410	33114	36540	
4586	0	32284	32964	36513	
4587	0	32364	32756	36519	
4588	0	32416	32688	36500	
4589	0	32503	32727	36471	
4590	0	32524	32797	36460	
4591	0	32704	32784	36460	
4592	0	32788	32771	36452	
4593	0	32888	32764	36436	
4594	0	32984	32756	36428	
4595	0	32996	32800	36416	
4596	0	33005	32836	36392	
4597	0	32924	32768	36359	
4598	0	33017	32838	36370	
4599	0	33380	32862	36390	
4600	0	33572	32996	36396	
4601	0	33548	32940	36400	
4602	0	33308	32822	36388	
4603	0	32688	32950	36384	
4604	0	32440	32933	36396	
4605	0	32160	33042	36380	
4606	0	31918	32932	36380	
4607	0	32072	32704	36376	
4608	0	32300	32528	36380	
4609	0	32348	32514	36376	
4610	0	32501	32740	36371	
4611	0	32625	32772	36346	
4612	0	32889	32649	36316	
4613	0	33065	32644	36294	
4614	0	33396	32920	36250	
4615	0	33380	33052	36213	
4616	0	33152	32788	36204	
4617	0	33153	32668	36189	
4618	0	33136	32749	36142	
4619	0	33030	33001	36103	
4620	0	32973	32877	36084	
4621	0	32858	32929	36040	
4622	0	32825	33032	36036	
4623	0	32630	32873	36030	
4624	0	32568	32958	36020	
4625	0	32496	32968	36014	
4626	0	32324	32974	36012	
4627	0	32340	32836	36025	
4628	0	32300	32810	36068	
4629	0	32409	32724	36121	
4630	0	32568	32750	36164	
4631	0	32676	32780	36182	
4632	0	32772	32898	36228	
