# OpenSignals Text File Format
# {"00:07:80:4D:2E:AD": {"sensor": ["EMG", "EMG", "XYZ"], "device name": "00:07:80:4D:2E:AD", "column": ["nSeq", "DI", "CH1", "CH2", "CH3"], "sync interval": 2, "time": "15:33:6.71", "comments": "paper | ch1_flexor_digitorum_superficialis ch2_aductor_policis ch3_acc_z [trial 5]", "device connection": "BTH00:07:80:4D:2E:AD", "channels": [1, 2, 3], "keywords": "", "mode": 0, "digital IO": [0, 1], "firmware version": 773, "device": "biosignalsplux", "position": 0, "sampling rate": 1000, "label": ["CH1", "CH2", "CH3"], "resolution": [16, 16, 16], "date": "2019-1-23", "special": [{}, {}, {}]}}
# EndOfHeader
0	0	32548	32738	36720	
1	0	32576	32741	36716	
2	0	32698	32676	36718	
3	0	32612	32576	36738	
4	0	32764	32480	36742	
5	0	32796	32588	36728	
6	0	32916	32629	36716	
7	0	32972	32644	36712	
8	0	32821	32820	36705	
9	0	32936	32836	36678	
10	0	32960	32844	36688	
11	0	33004	32928	36688	
12	0	32908	32892	36688	
13	0	32848	32972	36696	
14	0	32808	32988	36708	
15	0	32748	32933	36708	
16	0	32724	32972	36742	
17	0	32696	32972	36743	
18	0	32600	32996	36743	
19	0	32628	32920	36730	
20	0	32628	32790	36732	
21	0	32644	32748	36728	
22	0	32680	32708	36744	
23	0	32676	32620	36742	
24	0	32796	32728	36748	
25	0	32801	32615	36736	
26	0	32948	32736	36700	
27	0	32960	32826	36705	
28	0	32976	32712	36709	
29	0	32960	32744	36685	
30	0	32948	32838	36685	
31	0	33000	32797	36682	
32	0	32905	32768	36676	
33	0	32916	32892	36701	
34	0	32864	32879	36700	
35	0	32784	33061	36717	
36	0	32792	33008	36733	
37	0	32657	33124	36743	
38	0	32596	32981	36736	
39	0	32556	32799	36740	
40	0	32558	32800	36712	
41	0	32640	32777	36728	
42	0	32636	32764	36720	
43	0	32644	32556	36714	
44	0	32794	32584	36696	
45	0	32752	32616	36720	
46	0	32846	32652	36713	
47	0	32868	32768	36714	
48	0	33044	32748	36700	
49	0	33005	32672	36724	
50	0	32964	32768	36713	
51	0	32978	32775	36725	
52	0	32910	32748	36717	
53	0	32884	32984	36720	
54	0	32848	32992	36733	
55	0	32789	32901	36741	
56	0	32748	33049	36740	
57	0	32660	33057	36728	
58	0	32644	32984	36768	
59	0	32561	32898	36760	
60	0	32599	32816	36751	
61	0	32624	32742	36749	
62	0	32628	32702	36740	
63	0	32633	32645	36732	
64	0	32696	32618	36736	
65	0	32854	32591	36724	
66	0	32880	32582	36720	
67	0	32872	32704	36716	
68	0	32970	32658	36709	
69	0	32986	32717	36708	
70	0	32972	32804	36720	
71	0	32900	32740	36716	
72	0	32884	32833	36696	
73	0	32856	32988	36713	
74	0	32880	33022	36708	
75	0	32742	33041	36724	
76	0	32712	33080	36730	
77	0	32676	33030	36732	
78	0	32540	33020	36732	
79	0	32566	32932	36743	
80	0	32584	32788	36718	
81	0	32600	32764	36724	
82	0	32648	32775	36721	
83	0	32680	32673	36720	
84	0	32782	32748	36708	
85	0	32762	32668	36717	
86	0	32832	32732	36731	
87	0	32916	32868	36743	
88	0	32960	32864	36746	
89	0	33000	32808	36742	
90	0	33004	32775	36721	
91	0	33036	32824	36709	
92	0	32888	32852	36708	
93	0	32940	32884	36713	
94	0	32920	33024	36734	
95	0	32784	33024	36756	
96	0	32662	33096	36743	
97	0	32588	33014	36740	
98	0	32553	33026	36748	
99	0	32607	32934	36756	
100	0	32576	32828	36740	
101	0	32644	32815	36740	
102	0	32712	32772	36733	
103	0	32736	32681	36728	
104	0	32724	32620	36717	
105	0	32792	32676	36724	
106	0	32824	32732	36720	
107	0	32892	32798	36696	
108	0	32936	32709	36709	
109	0	33004	32692	36696	
110	0	32984	32757	36696	
111	0	32932	32774	36716	
112	0	32952	32792	36708	
113	0	32832	32995	36726	
114	0	32910	32956	36724	
115	0	32808	32968	36734	
116	0	32712	33088	36750	
117	0	32736	33013	36764	
118	0	32597	32944	36769	
119	0	32556	32826	36752	
120	0	32548	32781	36749	
121	0	32600	32768	36756	
122	0	32592	32812	36743	
123	0	32682	32716	36741	
124	0	32762	32596	36721	
125	0	32812	32548	36709	
126	0	32840	32698	36692	
127	0	32836	32740	36705	
128	0	32920	32649	36692	
129	0	32896	32789	36692	
130	0	32928	32761	36692	
131	0	32945	32729	36688	
132	0	32953	32845	36688	
133	0	32893	32956	36692	
134	0	32848	32919	36689	
135	0	32794	32926	36676	
136	0	32780	32972	36700	
137	0	32656	33076	36732	
138	0	32557	32997	36733	
139	0	32616	32870	36739	
140	0	32640	32822	36748	
141	0	32692	32836	36738	
142	0	32668	32868	36732	
143	0	32700	32815	36724	
144	0	32740	32852	36719	
145	0	32832	32741	36704	
146	0	32873	32704	36687	
147	0	32920	32720	36688	
148	0	32896	32676	36688	
149	0	32944	32678	36690	
150	0	32932	32621	36697	
151	0	32948	32793	36696	
152	0	32972	32732	36700	
153	0	32900	32820	36684	
154	0	32852	32933	36697	
155	0	32808	32956	36704	
156	0	32692	33096	36701	
157	0	32684	33080	36709	
158	0	32592	33052	36736	
159	0	32640	32948	36737	
160	0	32644	32872	36717	
161	0	32712	32780	36724	
162	0	32704	32805	36743	
163	0	32708	32793	36740	
164	0	32756	32708	36724	
165	0	32788	32592	36727	
166	0	32845	32648	36729	
167	0	32936	32712	36704	
168	0	32900	32712	36725	
169	0	32904	32677	36721	
170	0	32860	32740	36732	
171	0	32960	32796	36717	
172	0	32880	32829	36732	
173	0	32872	32862	36720	
174	0	32912	33025	36737	
175	0	32748	33062	36765	
176	0	32660	33033	36749	
177	0	32680	33064	36753	
178	0	32652	33064	36764	
179	0	32608	32919	36774	
180	0	32628	32797	36744	
181	0	32648	32701	36730	
182	0	32668	32680	36748	
183	0	32692	32608	36736	
184	0	32672	32691	36740	
185	0	32824	32690	36733	
186	0	32860	32686	36696	
187	0	32945	32837	36709	
188	0	32964	32821	36712	
189	0	32912	32764	36704	
190	0	32912	32784	36696	
191	0	33000	32864	36713	
192	0	32904	32855	36732	
193	0	32896	32986	36696	
194	0	32920	32972	36708	
195	0	32808	32988	36712	
196	0	32720	32964	36716	
197	0	32690	33084	36729	
198	0	32546	32949	36716	
199	0	32688	32944	36736	
200	0	32632	32854	36728	
201	0	32648	32782	36708	
202	0	32628	32839	36709	
203	0	32724	32753	36712	
204	0	32708	32804	36717	
205	0	32788	32797	36712	
206	0	32832	32750	36719	
207	0	32840	32740	36724	
208	0	32985	32790	36692	
209	0	32974	32612	36681	
210	0	32984	32698	36684	
211	0	32990	32711	36680	
212	0	32884	32736	36691	
213	0	32900	32925	36684	
214	0	32828	32820	36705	
215	0	32668	32914	36729	
216	0	32720	33064	36724	
217	0	32668	32996	36724	
218	0	32784	32968	36724	
219	0	32672	32884	36725	
220	0	32616	32802	36708	
221	0	32596	32759	36696	
222	0	32616	32736	36688	
223	0	32594	32812	36668	
224	0	32736	32760	36672	
225	0	32772	32663	36670	
226	0	32828	32601	36694	
227	0	32848	32608	36708	
228	0	32896	32737	36696	
229	0	32956	32743	36692	
230	0	32944	32764	36692	
231	0	32954	32895	36692	
232	0	32968	32852	36669	
233	0	32872	32953	36684	
234	0	32836	32934	36680	
235	0	32785	32937	36688	
236	0	32746	33031	36694	
237	0	32732	33012	36700	
238	0	32672	32948	36728	
239	0	32680	32980	36732	
240	0	32616	32808	36732	
241	0	32584	32696	36700	
242	0	32656	32685	36695	
243	0	32642	32613	36706	
244	0	32696	32660	36721	
245	0	32812	32636	36733	
246	0	32796	32621	36721	
247	0	32916	32832	36718	
248	0	32890	32749	36700	
249	0	32860	32748	36702	
250	0	32919	32868	36696	
251	0	32956	32950	36700	
252	0	32868	32888	36710	
253	0	32938	32996	36708	
254	0	32880	33088	36700	
255	0	32822	33045	36719	
256	0	32744	33080	36720	
257	0	32680	33100	36712	
258	0	32688	32996	36712	
259	0	32584	32871	36694	
260	0	32576	32793	36709	
261	0	32600	32678	36704	
262	0	32616	32620	36712	
263	0	32716	32562	36718	
264	0	32704	32656	36726	
265	0	32800	32674	36712	
266	0	32812	32681	36704	
267	0	32900	32692	36688	
268	0	32944	32782	36705	
269	0	33012	32740	36690	
270	0	32948	32820	36700	
271	0	32878	32897	36700	
272	0	32912	32889	36684	
273	0	32925	32948	36702	
274	0	32900	32970	36712	
275	0	32790	33014	36708	
276	0	32748	33084	36688	
277	0	32708	33128	36702	
278	0	32632	33034	36712	
279	0	32488	33017	36709	
280	0	32556	32836	36716	
281	0	32562	32746	36688	
282	0	32669	32757	36686	
283	0	32728	32628	36693	
284	0	32712	32748	36692	
285	0	32796	32705	36678	
286	0	32748	32637	36702	
287	0	32920	32739	36692	
288	0	32976	32636	36688	
289	0	32908	32638	36676	
290	0	32932	32726	36668	
291	0	32968	32871	36664	
292	0	32893	32836	36678	
293	0	32920	32912	36705	
294	0	32860	33068	36708	
295	0	32770	33069	36732	
296	0	32726	32967	36732	
297	0	32676	32989	36733	
298	0	32636	32996	36728	
299	0	32625	32894	36710	
300	0	32636	32824	36692	
301	0	32584	32724	36686	
302	0	32600	32774	36680	
303	0	32744	32696	36700	
304	0	32736	32685	36712	
305	0	32780	32708	36708	
306	0	32872	32608	36704	
307	0	32844	32832	36696	
308	0	32860	32824	36694	
309	0	32960	32740	36689	
310	0	32990	32717	36700	
311	0	32960	32679	36681	
312	0	32928	32795	36705	
313	0	32888	32922	36705	
314	0	32900	32943	36696	
315	0	32781	32992	36712	
316	0	32744	33067	36718	
317	0	32768	33144	36720	
318	0	32716	33071	36708	
319	0	32648	32835	36712	
320	0	32637	32757	36724	
321	0	32552	32790	36736	
322	0	32620	32764	36744	
323	0	32697	32764	36740	
324	0	32716	32714	36732	
325	0	32833	32797	36732	
326	0	32818	32701	36724	
327	0	32918	32728	36728	
328	0	33001	32760	36698	
329	0	33030	32669	36704	
330	0	32960	32775	36668	
331	0	32944	32805	36680	
332	0	32840	32871	36686	
333	0	32880	32847	36696	
334	0	32828	32928	36704	
335	0	32804	33060	36720	
336	0	32716	33003	36720	
337	0	32628	33104	36732	
338	0	32568	32972	36736	
339	0	32566	32938	36736	
340	0	32625	32732	36712	
341	0	32512	32652	36719	
342	0	32660	32736	36718	
343	0	32716	32734	36718	
344	0	32698	32589	36714	
345	0	32764	32656	36705	
346	0	32892	32647	36704	
347	0	32980	32774	36703	
348	0	32965	32749	36700	
349	0	32972	32613	36694	
350	0	32928	32719	36700	
351	0	32948	32647	36692	
352	0	32984	32816	36692	
353	0	32916	32936	36685	
354	0	32856	32996	36684	
355	0	32766	32961	36688	
356	0	32772	32924	36700	
357	0	32728	32985	36708	
358	0	32725	32948	36709	
359	0	32652	32964	36714	
360	0	32552	32836	36708	
361	0	32568	32749	36720	
362	0	32680	32774	36727	
363	0	32672	32784	36725	
364	0	32668	32782	36726	
365	0	32804	32804	36732	
366	0	32894	32663	36720	
367	0	32936	32686	36725	
368	0	32908	32764	36717	
369	0	32893	32644	36700	
370	0	32964	32628	36700	
371	0	32876	32828	36700	
372	0	32980	32780	36709	
373	0	32912	32890	36717	
374	0	32884	32916	36740	
375	0	32705	33022	36740	
376	0	32664	33028	36740	
377	0	32724	33093	36721	
378	0	32684	33042	36740	
379	0	32624	32994	36740	
380	0	32609	32848	36756	
381	0	32592	32837	36743	
382	0	32600	32784	36740	
383	0	32642	32732	36741	
384	0	32716	32658	36721	
385	0	32766	32516	36726	
386	0	32820	32552	36710	
387	0	32881	32628	36697	
388	0	32988	32708	36702	
389	0	32976	32592	36709	
390	0	32972	32668	36708	
391	0	32956	32788	36696	
392	0	32980	32800	36711	
393	0	32869	32948	36704	
394	0	32844	33040	36716	
395	0	32708	33064	36732	
396	0	32756	33008	36733	
397	0	32724	33120	36718	
398	0	32684	33120	36724	
399	0	32648	32900	36714	
400	0	32612	32807	36728	
401	0	32516	32708	36722	
402	0	32604	32752	36728	
403	0	32676	32743	36714	
404	0	32676	32718	36728	
405	0	32720	32654	36714	
406	0	32800	32676	36726	
407	0	32864	32654	36716	
408	0	32976	32684	36709	
409	0	32996	32708	36692	
410	0	32964	32664	36688	
411	0	32984	32775	36676	
412	0	32892	32788	36684	
413	0	32924	32928	36694	
414	0	32920	33092	36708	
415	0	32700	33066	36692	
416	0	32757	33025	36716	
417	0	32624	33069	36737	
418	0	32712	33002	36750	
419	0	32620	33009	36740	
420	0	32562	32848	36708	
421	0	32588	32764	36704	
422	0	32640	32734	36688	
423	0	32728	32756	36701	
424	0	32680	32797	36692	
425	0	32784	32698	36700	
426	0	32878	32748	36717	
427	0	32930	32824	36700	
428	0	32870	32743	36708	
429	0	32964	32617	36697	
430	0	32961	32679	36678	
431	0	32956	32736	36689	
432	0	32916	32732	36693	
433	0	32864	33064	36716	
434	0	32900	32932	36708	
435	0	32740	32884	36721	
436	0	32716	33029	36710	
437	0	32648	32896	36712	
438	0	32664	32934	36716	
439	0	32633	32864	36720	
440	0	32646	32830	36724	
441	0	32624	32817	36716	
442	0	32665	32731	36702	
443	0	32636	32698	36713	
444	0	32708	32705	36700	
445	0	32756	32676	36670	
446	0	32840	32693	36664	
447	0	32951	32696	36688	
448	0	32908	32748	36698	
449	0	32948	32772	36676	
450	0	32970	32832	36680	
451	0	32964	32901	36679	
452	0	32980	32912	36664	
453	0	32872	32864	36676	
454	0	32789	33008	36684	
455	0	32784	33017	36684	
456	0	32696	33124	36689	
457	0	32726	33133	36689	
458	0	32673	33082	36693	
459	0	32612	32938	36721	
460	0	32568	32885	36720	
461	0	32580	32829	36716	
462	0	32620	32708	36698	
463	0	32645	32657	36708	
464	0	32744	32552	36688	
465	0	32804	32617	36700	
466	0	32796	32600	36696	
467	0	32888	32671	36704	
468	0	32980	32624	36704	
469	0	32964	32640	36689	
470	0	33024	32620	36677	
471	0	32980	32708	36686	
472	0	32964	32824	36703	
473	0	32892	32932	36700	
474	0	32864	32940	36704	
475	0	32880	33028	36725	
476	0	32768	33016	36725	
477	0	32736	33011	36732	
478	0	32625	33041	36744	
479	0	32596	32884	36740	
480	0	32640	32820	36748	
481	0	32520	32748	36748	
482	0	32640	32741	36741	
483	0	32628	32724	36726	
484	0	32698	32684	36708	
485	0	32804	32657	36704	
486	0	32808	32684	36697	
487	0	32952	32729	36680	
488	0	32916	32732	36688	
489	0	32964	32660	36681	
490	0	32886	32684	36668	
491	0	32928	32868	36676	
492	0	32866	32864	36683	
493	0	32960	32997	36684	
494	0	32924	33000	36696	
495	0	32758	32980	36708	
496	0	32712	33068	36696	
497	0	32728	33132	36692	
498	0	32628	33045	36708	
499	0	32592	32963	36716	
500	0	32610	32900	36710	
501	0	32586	32772	36708	
502	0	32684	32816	36732	
503	0	32640	32775	36717	
504	0	32730	32728	36688	
505	0	32773	32685	36663	
506	0	32848	32668	36660	
507	0	32908	32764	36656	
508	0	32893	32820	36672	
509	0	32884	32720	36688	
510	0	32916	32804	36680	
511	0	32860	32782	36668	
512	0	32920	32829	36668	
513	0	32836	32894	36690	
514	0	32820	33008	36685	
515	0	32872	33028	36692	
516	0	32752	33159	36703	
517	0	32775	33025	36725	
518	0	32656	33025	36729	
519	0	32644	32836	36728	
520	0	32668	32758	36751	
521	0	32600	32804	36735	
522	0	32596	32826	36728	
523	0	32652	32728	36729	
524	0	32712	32716	36724	
525	0	32708	32718	36712	
526	0	32760	32740	36700	
527	0	32852	32785	36720	
528	0	32932	32639	36729	
529	0	32968	32632	36712	
530	0	32992	32676	36720	
531	0	32936	32784	36728	
532	0	32924	32708	36732	
533	0	32936	32868	36715	
534	0	32872	32902	36705	
535	0	32768	32993	36708	
536	0	32655	32981	36724	
537	0	32700	33005	36720	
538	0	32708	33053	36717	
539	0	32676	32883	36720	
540	0	32637	32781	36736	
541	0	32614	32728	36741	
542	0	32629	32724	36728	
543	0	32688	32712	36732	
544	0	32780	32549	36732	
545	0	32896	32682	36743	
546	0	32863	32736	36724	
547	0	32836	32676	36710	
548	0	33065	32749	36696	
549	0	32872	32618	36688	
550	0	32932	32764	36692	
551	0	33005	32832	36666	
552	0	32904	32784	36684	
553	0	32921	32888	36692	
554	0	32857	33082	36699	
555	0	32804	33053	36694	
556	0	32764	33158	36712	
557	0	32624	33152	36702	
558	0	32620	33169	36709	
559	0	32604	33052	36724	
560	0	32628	32852	36736	
561	0	32608	32896	36728	
562	0	32612	32760	36708	
563	0	32652	32654	36698	
564	0	32708	32580	36682	
565	0	32749	32580	36677	
566	0	32786	32609	36676	
567	0	32940	32686	36678	
568	0	32900	32793	36692	
569	0	32886	32748	36692	
570	0	32876	32716	36682	
571	0	32908	32760	36682	
572	0	32928	32765	36678	
573	0	32924	32918	36700	
574	0	32844	32999	36699	
575	0	32826	33001	36684	
576	0	32716	32968	36688	
577	0	32672	32965	36708	
578	0	32648	32994	36734	
579	0	32632	33013	36740	
580	0	32647	32898	36738	
581	0	32656	32832	36756	
582	0	32622	32733	36737	
583	0	32758	32646	36749	
584	0	32752	32614	36730	
585	0	32800	32634	36724	
586	0	32864	32717	36726	
587	0	32852	32794	36738	
588	0	32846	32769	36712	
589	0	33036	32698	36720	
590	0	33036	32752	36720	
591	0	32904	32815	36712	
592	0	32970	32888	36712	
593	0	32861	32916	36712	
594	0	32817	33040	36744	
595	0	32764	32988	36725	
596	0	32718	33006	36724	
597	0	32741	33020	36736	
598	0	32652	33026	36752	
599	0	32668	33012	36736	
600	0	32665	32870	36712	
601	0	32620	32798	36709	
602	0	32596	32925	36722	
603	0	32636	32830	36700	
604	0	32704	32776	36700	
605	0	32736	32764	36708	
606	0	32824	32613	36696	
607	0	32888	32764	36709	
608	0	32908	32796	36702	
609	0	32920	32736	36673	
610	0	32872	32760	36681	
611	0	32972	32892	36684	
612	0	32928	32838	36666	
613	0	32864	32901	36680	
614	0	32908	32940	36712	
615	0	32844	32870	36702	
616	0	32732	32941	36704	
617	0	32788	32944	36701	
618	0	32624	33000	36709	
619	0	32546	32956	36726	
620	0	32696	32804	36727	
621	0	32644	32820	36711	
622	0	32632	32736	36724	
623	0	32732	32697	36724	
624	0	32692	32676	36711	
625	0	32754	32784	36704	
626	0	32804	32666	36703	
627	0	32912	32721	36696	
628	0	32884	32711	36697	
629	0	32972	32628	36698	
630	0	32996	32740	36708	
631	0	32948	32834	36705	
632	0	32909	32760	36712	
633	0	32940	32928	36714	
634	0	32868	32980	36710	
635	0	32826	32945	36716	
636	0	32733	33100	36712	
637	0	32664	33128	36737	
638	0	32608	33158	36744	
639	0	32604	32984	36729	
640	0	32600	32921	36724	
641	0	32608	32832	36724	
642	0	32601	32791	36725	
643	0	32660	32720	36738	
644	0	32792	32713	36740	
645	0	32748	32716	36740	
646	0	32884	32712	36709	
647	0	32868	32728	36728	
648	0	32988	32824	36712	
649	0	33008	32716	36726	
650	0	32976	32728	36736	
651	0	32968	32748	36724	
652	0	32948	32764	36736	
653	0	32884	32917	36728	
654	0	32853	32980	36716	
655	0	32732	33026	36717	
656	0	32741	33108	36732	
657	0	32680	33092	36737	
658	0	32584	33140	36738	
659	0	32536	33024	36752	
660	0	32592	32860	36742	
661	0	32568	32746	36731	
662	0	32644	32703	36732	
663	0	32704	32702	36740	
664	0	32700	32673	36731	
665	0	32780	32615	36757	
666	0	32829	32660	36732	
667	0	32954	32676	36712	
668	0	32865	32657	36697	
669	0	32968	32712	36704	
670	0	32928	32797	36692	
671	0	32982	32750	36704	
672	0	32968	32836	36718	
673	0	32920	32953	36728	
674	0	32912	33060	36722	
675	0	32868	32988	36688	
676	0	32720	32988	36709	
677	0	32641	32994	36728	
678	0	32574	33013	36732	
679	0	32700	32912	36740	
680	0	32641	32804	36721	
681	0	32688	32774	36709	
682	0	32608	32759	36704	
683	0	32686	32716	36684	
684	0	32636	32639	36686	
685	0	32728	32625	36690	
686	0	32844	32577	36688	
687	0	32908	32738	36692	
688	0	32902	32732	36672	
689	0	32933	32655	36664	
690	0	32888	32680	36673	
691	0	32934	32728	36668	
692	0	32992	32828	36684	
693	0	32908	32902	36704	
694	0	32940	32988	36717	
695	0	32824	32944	36721	
696	0	32788	33064	36712	
697	0	32708	33094	36713	
698	0	32572	33120	36705	
699	0	32648	33080	36716	
700	0	32632	32890	36728	
701	0	32638	32788	36720	
702	0	32608	32780	36744	
703	0	32680	32712	36753	
704	0	32724	32653	36719	
705	0	32868	32660	36720	
706	0	32764	32572	36704	
707	0	32894	32864	36704	
708	0	32844	32956	36719	
709	0	32874	32754	36711	
710	0	32917	32827	36712	
711	0	32880	32868	36700	
712	0	32992	32839	36708	
713	0	32972	32940	36720	
714	0	32884	32984	36729	
715	0	32856	32966	36720	
716	0	32784	33013	36729	
717	0	32705	33114	36736	
718	0	32572	33007	36714	
719	0	32576	32966	36721	
720	0	32688	32840	36720	
721	0	32629	32799	36716	
722	0	32606	32833	36692	
723	0	32656	32880	36693	
724	0	32676	32809	36697	
725	0	32788	32722	36708	
726	0	32792	32628	36709	
727	0	32844	32720	36702	
728	0	32968	32831	36676	
729	0	33033	32700	36676	
730	0	32944	32780	36669	
731	0	33049	32881	36664	
732	0	32973	32928	36644	
733	0	32884	32949	36661	
734	0	32820	33084	36673	
735	0	32824	33076	36668	
736	0	32792	33117	36700	
737	0	32764	33213	36690	
738	0	32764	32996	36696	
739	0	32642	33012	36700	
740	0	32624	32822	36692	
741	0	32612	32748	36678	
742	0	32568	32732	36686	
743	0	32609	32598	36700	
744	0	32704	32568	36677	
745	0	32816	32559	36664	
746	0	32817	32587	36672	
747	0	32866	32676	36662	
748	0	32925	32825	36676	
749	0	32932	32704	36665	
750	0	32980	32912	36686	
751	0	32948	32928	36684	
752	0	32961	32839	36664	
753	0	32916	32804	36664	
754	0	32868	33005	36676	
755	0	32884	33020	36708	
756	0	32761	32996	36712	
757	0	32688	33012	36740	
758	0	32622	33025	36759	
759	0	32572	32936	36770	
760	0	32612	32848	36736	
761	0	32576	32686	36732	
762	0	32656	32749	36728	
763	0	32652	32660	36727	
764	0	32724	32633	36740	
765	0	32768	32628	36722	
766	0	32816	32700	36712	
767	0	32897	32708	36730	
768	0	32901	32858	36736	
769	0	32913	32772	36732	
770	0	32884	32745	36713	
771	0	32980	32847	36701	
772	0	32932	32844	36692	
773	0	32892	32957	36708	
774	0	32904	33024	36700	
775	0	32830	32949	36693	
776	0	32737	32960	36699	
777	0	32700	33008	36712	
778	0	32656	33098	36709	
779	0	32692	33012	36705	
780	0	32640	32892	36700	
781	0	32610	32768	36678	
782	0	32592	32720	36692	
783	0	32620	32750	36692	
784	0	32664	32660	36688	
785	0	32737	32728	36678	
786	0	32806	32644	36688	
787	0	32862	32707	36700	
788	0	32872	32746	36676	
789	0	32888	32743	36673	
790	0	32908	32728	36673	
791	0	32956	32821	36666	
792	0	33008	32812	36679	
793	0	32912	32854	36680	
794	0	32853	32960	36668	
795	0	32868	32957	36677	
796	0	32772	32976	36696	
797	0	32772	33080	36694	
798	0	32692	33064	36706	
799	0	32614	33062	36707	
800	0	32628	32872	36684	
801	0	32633	32827	36681	
802	0	32641	32772	36696	
803	0	32664	32836	36720	
804	0	32660	32680	36712	
805	0	32756	32709	36716	
806	0	32820	32692	36730	
807	0	32900	32764	36712	
808	0	32917	32744	36716	
809	0	32866	32628	36716	
810	0	32884	32725	36727	
811	0	32908	32805	36735	
812	0	32844	32828	36728	
813	0	32916	32940	36725	
814	0	32857	32945	36710	
815	0	32924	32936	36713	
816	0	32772	33002	36720	
817	0	32736	33097	36728	
818	0	32620	32946	36712	
819	0	32572	32997	36724	
820	0	32552	32960	36712	
821	0	32636	32812	36716	
822	0	32561	32741	36741	
823	0	32686	32625	36737	
824	0	32662	32662	36724	
825	0	32800	32668	36685	
826	0	32868	32732	36692	
827	0	32924	32775	36686	
828	0	33024	32789	36680	
829	0	32956	32740	36684	
830	0	32968	32828	36688	
831	0	32948	32820	36688	
832	0	32916	32748	36696	
833	0	32896	32796	36676	
834	0	32909	32945	36669	
835	0	32832	32917	36672	
836	0	32756	32969	36688	
837	0	32696	33060	36705	
838	0	32672	33064	36708	
839	0	32550	32933	36694	
840	0	32599	32870	36686	
841	0	32624	32820	36696	
842	0	32638	32719	36711	
843	0	32688	32810	36688	
844	0	32736	32687	36708	
845	0	32716	32768	36697	
846	0	32828	32656	36693	
847	0	32904	32829	36700	
848	0	32925	32809	36686	
849	0	32904	32801	36681	
850	0	33001	32794	36692	
851	0	32940	32738	36684	
852	0	32948	32831	36669	
853	0	32936	32890	36676	
854	0	32960	32937	36688	
855	0	32834	32978	36701	
856	0	32738	32994	36704	
857	0	32696	33013	36704	
858	0	32620	33061	36729	
859	0	32708	32991	36738	
860	0	32684	32823	36721	
861	0	32644	32744	36708	
862	0	32648	32640	36708	
863	0	32652	32684	36716	
864	0	32780	32637	36709	
865	0	32816	32620	36702	
866	0	32788	32613	36717	
867	0	32856	32684	36704	
868	0	32956	32768	36714	
869	0	32832	32749	36716	
870	0	32948	32841	36721	
871	0	32976	32826	36702	
872	0	32912	32876	36693	
873	0	32910	32968	36700	
874	0	32888	32976	36693	
875	0	32832	33026	36704	
876	0	32784	33000	36736	
877	0	32749	33044	36728	
878	0	32608	33076	36732	
879	0	32634	33077	36724	
880	0	32500	32974	36713	
881	0	32588	32876	36701	
882	0	32576	32797	36693	
883	0	32644	32740	36712	
884	0	32686	32645	36730	
885	0	32784	32720	36720	
886	0	32872	32665	36705	
887	0	32916	32792	36692	
888	0	32900	32733	36682	
889	0	32997	32689	36680	
890	0	33012	32705	36692	
891	0	32968	32600	36702	
892	0	33004	32738	36692	
893	0	32872	32876	36685	
894	0	32900	33034	36698	
895	0	32916	33068	36708	
896	0	32736	33081	36712	
897	0	32704	33030	36696	
898	0	32610	32944	36701	
899	0	32593	32936	36692	
900	0	32612	32844	36684	
901	0	32649	32718	36692	
902	0	32576	32697	36700	
903	0	32638	32698	36692	
904	0	32597	32724	36696	
905	0	32728	32748	36704	
906	0	32788	32708	36717	
907	0	32916	32764	36711	
908	0	32896	32736	36692	
909	0	32897	32641	36688	
910	0	32896	32652	36668	
911	0	32892	32765	36684	
912	0	32888	32703	36674	
913	0	32954	32824	36686	
914	0	32956	33006	36678	
915	0	32828	33016	36684	
916	0	32797	33078	36676	
917	0	32740	33005	36679	
918	0	32648	33044	36674	
919	0	32616	33009	36685	
920	0	32566	32889	36689	
921	0	32612	32789	36702	
922	0	32598	32792	36700	
923	0	32729	32732	36696	
924	0	32680	32649	36676	
925	0	32704	32681	36696	
926	0	32788	32644	36668	
927	0	32853	32878	36681	
928	0	32960	32768	36676	
929	0	33003	32746	36684	
930	0	32964	32770	36677	
931	0	32988	32744	36684	
932	0	32968	32782	36676	
933	0	32912	32849	36693	
934	0	32884	32914	36696	
935	0	32860	33024	36696	
936	0	32734	32972	36704	
937	0	32716	33019	36713	
938	0	32676	33016	36718	
939	0	32725	32933	36732	
940	0	32592	32864	36727	
941	0	32609	32720	36728	
942	0	32600	32720	36710	
943	0	32650	32817	36696	
944	0	32632	32756	36712	
945	0	32680	32748	36710	
946	0	32776	32826	36682	
947	0	32820	32712	36676	
948	0	32960	32600	36700	
949	0	32984	32708	36692	
950	0	33016	32820	36700	
951	0	32973	32742	36672	
952	0	32964	32860	36668	
953	0	32936	32802	36664	
954	0	32816	32877	36680	
955	0	32816	32989	36692	
956	0	32768	33028	36697	
957	0	32744	33080	36712	
958	0	32653	33060	36712	
959	0	32512	32959	36698	
960	0	32588	32868	36689	
961	0	32570	32984	36705	
962	0	32624	32792	36704	
963	0	32616	32692	36684	
964	0	32716	32704	36693	
965	0	32768	32700	36678	
966	0	32832	32622	36686	
967	0	32864	32668	36687	
968	0	32964	32664	36689	
969	0	32942	32684	36669	
970	0	32892	32727	36641	
971	0	32952	32720	36660	
972	0	32956	32726	36636	
973	0	32925	32908	36660	
974	0	32856	32924	36676	
975	0	32932	32961	36678	
976	0	32896	33128	36672	
977	0	32844	33095	36689	
978	0	32600	33044	36717	
979	0	32620	32968	36728	
980	0	32604	32886	36694	
981	0	32592	32868	36692	
982	0	32586	32766	36684	
983	0	32592	32796	36684	
984	0	32644	32729	36664	
985	0	32820	32728	36658	
986	0	32864	32736	36655	
987	0	32900	32704	36668	
988	0	32909	32740	36676	
989	0	32904	32700	36684	
990	0	32924	32684	36692	
991	0	32932	32786	36694	
992	0	32888	32752	36689	
993	0	32832	32820	36694	
994	0	32901	32936	36698	
995	0	32916	32942	36694	
996	0	32716	33024	36682	
997	0	32748	33081	36704	
998	0	32680	32944	36704	
999	0	32560	32929	36734	
1000	0	32600	32884	36694	
1001	0	32618	32694	36672	
1002	0	32524	32768	36676	
1003	0	32632	32684	36684	
1004	0	32668	32708	36701	
1005	0	32741	32774	36672	
1006	0	32768	32644	36700	
1007	0	32836	32830	36708	
1008	0	32928	32812	36717	
1009	0	33008	32731	36720	
1010	0	33100	32872	36727	
1011	0	33150	32789	36721	
1012	0	32952	32847	36704	
1013	0	32996	32953	36702	
1014	0	32880	32983	36700	
1015	0	32856	33029	36676	
1016	0	32776	32982	36682	
1017	0	32737	32969	36676	
1018	0	32641	32976	36692	
1019	0	32536	32936	36668	
1020	0	32580	32856	36692	
1021	0	32636	32806	36700	
1022	0	32632	32775	36692	
1023	0	32588	32720	36696	
1024	0	32632	32680	36686	
1025	0	32672	32688	36690	
1026	0	32792	32586	36686	
1027	0	32800	32800	36677	
1028	0	32852	32720	36676	
1029	0	32940	32631	36684	
1030	0	32980	32760	36676	
1031	0	32933	32801	36661	
1032	0	32912	32784	36692	
1033	0	32924	32916	36692	
1034	0	32852	32968	36698	
1035	0	32828	32924	36698	
1036	0	32716	32960	36698	
1037	0	32648	33020	36704	
1038	0	32638	33108	36720	
1039	0	32668	33086	36716	
1040	0	32660	32923	36705	
1041	0	32748	32788	36680	
1042	0	32761	32687	36680	
1043	0	32616	32545	36686	
1044	0	32672	32588	36682	
1045	0	32766	32708	36676	
1046	0	32812	32704	36668	
1047	0	32916	32840	36664	
1048	0	32980	32868	36674	
1049	0	32944	32719	36664	
1050	0	32913	32817	36694	
1051	0	32888	32812	36693	
1052	0	32932	32750	36684	
1053	0	33012	32881	36688	
1054	0	32968	32931	36688	
1055	0	32928	32988	36693	
1056	0	32732	33058	36708	
1057	0	32672	33093	36720	
1058	0	32640	33100	36743	
1059	0	32572	33100	36756	
1060	0	32612	32866	36744	
1061	0	32557	32789	36757	
1062	0	32528	32672	36768	
1063	0	32552	32573	36768	
1064	0	32660	32596	36756	
1065	0	32862	32622	36765	
1066	0	32944	32656	36744	
1067	0	33016	32700	36734	
1068	0	32964	32788	36743	
1069	0	32908	32764	36757	
1070	0	32877	32712	36758	
1071	0	32960	32764	36780	
1072	0	33054	32838	36768	
1073	0	32970	32906	36784	
1074	0	33008	32919	36784	
1075	0	33008	32932	36792	
1076	0	32788	33128	36836	
1077	0	32656	33100	36830	
1078	0	32525	33116	36828	
1079	0	32416	33085	36812	
1080	0	32514	32986	36812	
1081	0	32540	32873	36792	
1082	0	32488	32911	36764	
1083	0	32693	32838	36732	
1084	0	32700	32804	36696	
1085	0	32684	32908	36672	
1086	0	32700	32852	36660	
1087	0	32848	32695	36632	
1088	0	33028	32700	36616	
1089	0	33152	32716	36577	
1090	0	33156	32828	36549	
1091	0	32897	32951	36536	
1092	0	32848	32605	36535	
1093	0	32796	32772	36548	
1094	0	32834	32925	36576	
1095	0	33005	32971	36608	
1096	0	32856	32957	36660	
1097	0	32708	32919	36724	
1098	0	32628	32788	36726	
1099	0	32752	32844	36729	
1100	0	32644	32842	36700	
1101	0	32552	32804	36700	
1102	0	32600	32861	36708	
1103	0	32517	32764	36805	
1104	0	32613	32662	36924	
1105	0	32696	32724	36968	
1106	0	32884	32789	36949	
1107	0	32880	32709	36892	
1108	0	33006	32968	36840	
1109	0	32868	32878	36796	
1110	0	32908	32898	36792	
1111	0	32890	32853	36788	
1112	0	32808	33055	36781	
1113	0	32812	33064	36824	
1114	0	32834	33064	36815	
1115	0	32928	33146	36789	
1116	0	32820	32873	36734	
1117	0	32777	32680	36708	
1118	0	32788	32688	36748	
1119	0	32704	32732	36789	
1120	0	32676	32844	36806	
1121	0	32516	32829	36776	
1122	0	32612	32825	36742	
1123	0	32714	32846	36712	
1124	0	32748	32797	36684	
1125	0	32744	32824	36736	
1126	0	32700	32612	36870	
1127	0	32856	32548	36952	
1128	0	32972	32434	37012	
1129	0	32892	32532	37100	
1130	0	32816	32556	37166	
1131	0	32896	32695	37175	
1132	0	32960	32797	37205	
1133	0	32896	32872	37272	
1134	0	32896	33028	37342	
1135	0	32840	33241	37392	
1136	0	32724	33320	37421	
1137	0	32680	33140	37445	
1138	0	32560	33009	37445	
1139	0	32540	33100	37408	
1140	0	32536	32893	37368	
1141	0	32676	32648	37352	
1142	0	32780	32731	37404	
1143	0	32824	33080	37464	
1144	0	32804	33232	37412	
1145	0	32850	33335	37512	
1146	0	32864	33229	37556	
1147	0	32980	33024	37566	
1148	0	33008	32798	37440	
1149	0	32996	32248	37372	
1150	0	32960	31990	37404	
1151	0	32880	31816	37437	
1152	0	32692	31740	37466	
1153	0	32376	31626	37491	
1154	0	32628	32022	37501	
1155	0	32918	32681	37452	
1156	0	32804	32919	37346	
1157	0	32733	33160	37217	
1158	0	32756	33204	37114	
1159	0	32696	33381	37000	
1160	0	32700	33328	36904	
1161	0	32520	33165	36820	
1162	0	32592	33100	36752	
1163	0	32708	33092	36704	
1164	0	32856	32873	36708	
1165	0	32888	32642	36732	
1166	0	32968	32673	36756	
1167	0	33024	32809	36804	
1168	0	32964	32909	36892	
1169	0	33004	32976	36999	
1170	0	32924	33052	37081	
1171	0	32872	33054	37169	
1172	0	32832	33196	37256	
1173	0	32920	33224	37316	
1174	0	32917	33054	37393	
1175	0	32730	32948	37449	
1176	0	32580	33026	37502	
1177	0	32564	32988	37568	
1178	0	32549	32812	37612	
1179	0	32441	32730	37679	
1180	0	32688	32748	37717	
1181	0	32742	32784	37717	
1182	0	32648	32920	37752	
1183	0	32737	33048	37772	
1184	0	32788	32999	37804	
1185	0	32836	33049	37844	
1186	0	32904	33020	37937	
1187	0	33014	33012	37892	
1188	0	32945	32812	37846	
1189	0	33024	32671	37780	
1190	0	33088	32213	37716	
1191	0	33052	32160	37676	
1192	0	32988	32172	37740	
1193	0	32886	32633	37812	
1194	0	32760	32932	37924	
1195	0	32698	33236	38044	
1196	0	32645	33429	38132	
1197	0	32544	33600	38182	
1198	0	32400	33353	38224	
1199	0	32436	32933	38228	
1200	0	32524	32324	38208	
1201	0	32630	31937	38193	
1202	0	32684	31860	38133	
1203	0	32672	31890	38068	
1204	0	32720	32076	37996	
1205	0	32808	32184	37936	
1206	0	32986	32256	37849	
1207	0	33032	32614	37793	
1208	0	33129	32861	37740	
1209	0	33228	32860	37684	
1210	0	33400	32944	37632	
1211	0	33405	32961	37582	
1212	0	32968	32868	37528	
1213	0	32824	33098	37502	
1214	0	32668	33188	37489	
1215	0	32584	33140	37472	
1216	0	32416	32978	37456	
1217	0	32237	33160	37452	
1218	0	32268	32991	37437	
1219	0	32195	32844	37452	
1220	0	32382	32721	37468	
1221	0	32425	32817	37488	
1222	0	32561	33056	37519	
1223	0	32808	32976	37526	
1224	0	32772	32836	37556	
1225	0	33024	32929	37580	
1226	0	33237	32930	37607	
1227	0	33288	32944	37608	
1228	0	33372	32996	37616	
1229	0	33368	33070	37618	
1230	0	33380	33009	37596	
1231	0	33377	33044	37580	
1232	0	33116	32996	37568	
1233	0	32902	33015	37560	
1234	0	32655	33088	37536	
1235	0	32384	33010	37510	
1236	0	32162	32716	37478	
1237	0	32098	32642	37465	
1238	0	32132	32818	37473	
1239	0	32032	32996	37485	
1240	0	32173	32932	37468	
1241	0	32208	32824	37453	
1242	0	32349	32878	37448	
1243	0	32648	32718	37472	
1244	0	32960	32760	37522	
1245	0	33293	32704	37617	
1246	0	33452	32644	37768	
1247	0	33376	32753	37912	
1248	0	33376	32720	38021	
1249	0	33300	32742	38104	
1250	0	33316	33009	38164	
1251	0	33356	33196	38220	
1252	0	33456	32984	38253	
1253	0	33248	33224	38324	
1254	0	32708	33165	38376	
1255	0	32242	32700	38424	
1256	0	31536	32126	38500	
1257	0	31413	32030	38585	
1258	0	31840	32372	38672	
1259	0	32168	32604	38776	
1260	0	32026	32740	38860	
1261	0	32798	32962	38937	
1262	0	33252	33052	39000	
1263	0	33404	32914	39074	
1264	0	33396	32668	39130	
1265	0	32892	32584	39160	
1266	0	32816	32592	39181	
1267	0	32864	32907	39175	
1268	0	32692	33300	39196	
1269	0	32984	33526	39202	
1270	0	32864	33620	39220	
1271	0	33980	33862	39232	
1272	0	35144	33206	39188	
1273	0	35157	32912	39140	
1274	0	34912	32440	39086	
1275	0	34012	32308	39046	
1276	0	32968	33036	38973	
1277	0	30920	33048	38913	
1278	0	29260	32524	38844	
1279	0	29384	32276	38772	
1280	0	30108	32282	38708	
1281	0	30588	31988	38633	
1282	0	31400	31812	38582	
1283	0	33016	31820	38560	
1284	0	34305	31816	38528	
1285	0	33940	32097	38526	
1286	0	34652	33188	38489	
1287	0	35012	33840	38480	
1288	0	34192	34088	38456	
1289	0	34321	33645	38464	
1290	0	33956	32996	38428	
1291	0	33320	32796	38404	
1292	0	32876	32720	38373	
1293	0	32856	33077	38325	
1294	0	32810	33144	38250	
1295	0	31908	32933	38161	
1296	0	31342	32698	38069	
1297	0	30876	32661	37980	
1298	0	31484	32724	37860	
1299	0	32848	32328	37732	
1300	0	32776	32068	37604	
1301	0	32673	32540	37480	
1302	0	31000	33016	37341	
1303	0	31304	32960	37198	
1304	0	32873	33324	37036	
1305	0	33256	33344	36855	
1306	0	33260	32932	36708	
1307	0	33252	32532	36546	
1308	0	33548	32056	36384	
1309	0	33760	32277	36278	
1310	0	33696	32994	36164	
1311	0	33464	33320	36088	
1312	0	33288	33224	36039	
1313	0	33036	32956	35957	
1314	0	32841	32839	35896	
1315	0	32632	32468	35885	
1316	0	32460	32452	35853	
1317	0	32320	32782	35854	
1318	0	32108	33124	35836	
1319	0	32080	33068	35839	
1320	0	32120	33124	35837	
1321	0	32260	33174	36046	
1322	0	32444	33240	36014	
1323	0	32664	33052	35836	
1324	0	32764	32842	35798	
1325	0	33108	32484	35876	
1326	0	33060	32240	35928	
1327	0	33212	32532	35968	
1328	0	33268	32944	36012	
1329	0	33324	32838	36045	
1330	0	33388	33230	36096	
1331	0	33068	33168	36151	
1332	0	33012	33052	36197	
1333	0	32981	32637	36309	
1334	0	32758	32402	36448	
1335	0	32532	32528	36480	
1336	0	32560	32700	36517	
1337	0	32612	33015	36580	
1338	0	32424	33056	36648	
1339	0	32365	32968	36716	
1340	0	32597	33028	36772	
1341	0	32972	32796	36793	
1342	0	32905	32568	36824	
1343	0	32804	32340	36866	
1344	0	32916	32588	36846	
1345	0	33240	32748	36842	
1346	0	32653	32696	36848	
1347	0	32792	32813	36884	
1348	0	32100	33004	36836	
1349	0	32168	32775	36768	
1350	0	34008	32850	36720	
1351	0	34522	32623	36746	
1352	0	33576	32136	36786	
1353	0	32608	32224	36828	
1354	0	32388	32597	36880	
1355	0	31456	32676	36938	
1356	0	30754	32768	36998	
1357	0	31584	33016	37050	
1358	0	31620	32836	37081	
1359	0	32034	33064	37084	
1360	0	34548	33410	37032	
1361	0	34919	33437	36969	
1362	0	34452	32737	36853	
1363	0	32674	32684	36716	
1364	0	31444	32629	36532	
1365	0	32456	32596	36300	
1366	0	32668	33044	36044	
1367	0	32712	33653	35776	
1368	0	33308	33296	35493	
1369	0	33040	33093	35140	
1370	0	33296	33268	34788	
1371	0	34468	32460	34400	
1372	0	34637	31525	33933	
1373	0	33288	31636	33468	
1374	0	33152	32492	32997	
1375	0	33092	33584	32505	
1376	0	33128	33687	32006	
1377	0	32845	32840	31488	
1378	0	31868	32404	30988	
1379	0	29808	32660	30496	
1380	0	30028	32688	30018	
1381	0	30497	32801	29573	
1382	0	31508	32852	29164	
1383	0	31180	33038	28788	
1384	0	32332	32879	28437	
1385	0	33564	33016	28052	
1386	0	33556	32938	27632	
1387	0	33398	32684	27244	
1388	0	33873	32703	26921	
1389	0	33060	32884	26674	
1390	0	33056	33168	26500	
1391	0	33156	33856	26420	
1392	0	33936	33504	26384	
1393	0	34166	32972	26372	
1394	0	33560	32663	26406	
1395	0	33086	32452	26459	
1396	0	32800	32289	26553	
1397	0	32448	32513	26732	
1398	0	32312	32616	26958	
1399	0	32193	32516	27262	
1400	0	32408	32484	27653	
1401	0	32553	32645	28094	
1402	0	32684	32764	28556	
1403	0	32832	32637	29057	
1404	0	32898	32480	29577	
1405	0	33096	32604	30095	
1406	0	33120	32968	30660	
1407	0	33200	32889	31252	
1408	0	33044	32948	31866	
1409	0	32556	32912	32510	
1410	0	32396	32788	33226	
1411	0	32169	33001	33933	
1412	0	32788	33134	34621	
1413	0	33292	32948	35344	
1414	0	33056	33196	36300	
1415	0	32928	33136	36780	
1416	0	32840	33158	37289	
1417	0	32552	33237	37884	
1418	0	32532	32942	38504	
1419	0	32660	32783	39049	
1420	0	32648	32673	39600	
1421	0	32409	32692	40081	
1422	0	32361	32804	40460	
1423	0	32452	32984	40842	
1424	0	32460	33044	41260	
1425	0	32798	32864	41668	
1426	0	33150	32892	42028	
1427	0	33288	32708	42352	
1428	0	33464	32292	42745	
1429	0	33504	32544	42982	
1430	0	33188	32646	43136	
1431	0	32948	32576	43352	
1432	0	32812	32684	43527	
1433	0	32988	32904	43684	
1434	0	32964	33002	43812	
1435	0	32842	32864	43940	
1436	0	32532	32952	44032	
1437	0	32460	33061	44100	
1438	0	32446	33040	44188	
1439	0	32452	33012	44265	
1440	0	32388	32967	44261	
1441	0	32304	32677	44292	
1442	0	32385	32748	44324	
1443	0	32344	32960	44174	
1444	0	32444	32914	44032	
1445	0	32932	32960	43916	
1446	0	32996	32922	43789	
1447	0	32836	32812	43640	
1448	0	33005	33025	43480	
1449	0	33644	33302	43311	
1450	0	33764	33287	43116	
1451	0	33800	33244	42940	
1452	0	33100	33076	42772	
1453	0	32900	32728	42600	
1454	0	33196	32396	42422	
1455	0	32738	32292	42220	
1456	0	33564	32553	41982	
1457	0	32676	32926	41748	
1458	0	31721	32997	41488	
1459	0	31568	33068	41204	
1460	0	32190	33124	40880	
1461	0	32376	33093	40476	
1462	0	31688	32942	40040	
1463	0	32729	32621	39603	
1464	0	33344	32756	39124	
1465	0	32445	32652	38622	
1466	0	33072	32580	38112	
1467	0	33328	32873	37592	
1468	0	34388	33444	37082	
1469	0	33548	33765	36580	
1470	0	32181	33524	36080	
1471	0	31584	32864	35600	
1472	0	31536	32468	35168	
1473	0	32992	32572	34746	
1474	0	32826	32405	34372	
1475	0	32692	32426	34042	
1476	0	33052	32789	33812	
1477	0	34200	33160	33605	
1478	0	34064	33285	33449	
1479	0	33070	33216	33328	
1480	0	32145	32708	33228	
1481	0	31404	32800	33166	
1482	0	32088	32722	33141	
1483	0	32401	32525	33125	
1484	0	32640	32656	33100	
1485	0	32940	32997	33129	
1486	0	32956	32940	33172	
1487	0	33668	32861	33234	
1488	0	33429	32721	33293	
1489	0	32241	32988	33373	
1490	0	32948	33040	33468	
1491	0	33380	33153	33584	
1492	0	33508	33278	33688	
1493	0	32588	32845	33798	
1494	0	33037	33165	33940	
1495	0	32184	33112	34098	
1496	0	31448	32974	34284	
1497	0	33344	32528	34476	
1498	0	34748	32420	34693	
1499	0	33440	32164	34960	
1500	0	32141	32320	35231	
1501	0	32004	32928	35517	
1502	0	31196	32960	35784	
1503	0	32172	32808	36056	
1504	0	32518	32868	36316	
1505	0	32576	33183	36593	
1506	0	32736	33085	36871	
1507	0	32396	32704	37128	
1508	0	32416	32553	37392	
1509	0	33193	32444	37626	
1510	0	33605	32401	37852	
1511	0	32840	32168	38040	
1512	0	32876	32126	38214	
1513	0	32728	32497	38369	
1514	0	32796	32752	38484	
1515	0	33064	33002	38612	
1516	0	33004	32886	38674	
1517	0	33154	33092	38747	
1518	0	33052	33205	38782	
1519	0	32572	33077	38821	
1520	0	32496	32920	38994	
1521	0	32680	32897	38948	
1522	0	32680	32840	38918	
1523	0	32920	32876	38846	
1524	0	33060	32880	38764	
1525	0	33048	33164	38636	
1526	0	33496	33144	38548	
1527	0	33056	32822	38412	
1528	0	30940	32740	38276	
1529	0	31724	33006	38136	
1530	0	32736	33041	38008	
1531	0	32564	32977	37868	
1532	0	32652	32852	37716	
1533	0	33588	32774	37584	
1534	0	33792	32844	37449	
1535	0	34081	32724	37340	
1536	0	33952	32683	37240	
1537	0	33406	32945	37144	
1538	0	33028	32892	37063	
1539	0	32096	32796	37002	
1540	0	31028	32844	36936	
1541	0	31220	32660	36892	
1542	0	32720	32732	36879	
1543	0	33036	33006	36857	
1544	0	32744	33052	36856	
1545	0	33569	32840	36844	
1546	0	33124	32708	36864	
1547	0	31348	32820	36933	
1548	0	31521	33476	36968	
1549	0	30932	33248	37029	
1550	0	32108	33092	37100	
1551	0	33248	32820	37171	
1552	0	34012	32702	37238	
1553	0	34033	32658	37260	
1554	0	34028	32381	37329	
1555	0	33840	32246	37360	
1556	0	34328	32884	37361	
1557	0	33712	33074	37336	
1558	0	32582	32960	37257	
1559	0	32308	32758	37172	
1560	0	31988	32804	37090	
1561	0	31920	32577	36999	
1562	0	31580	32836	36912	
1563	0	32064	32636	36820	
1564	0	32640	32285	36724	
1565	0	32928	32406	36653	
1566	0	32728	32676	36540	
1567	0	33188	32808	36484	
1568	0	34229	32956	36420	
1569	0	33576	32584	36336	
1570	0	33008	32157	36264	
1571	0	33292	32456	36228	
1572	0	32868	32924	36192	
1573	0	31572	32912	36156	
1574	0	31665	33140	36114	
1575	0	32028	33240	36114	
1576	0	32452	33036	36078	
1577	0	32964	32984	36053	
1578	0	33376	33184	36007	
1579	0	32876	33304	35975	
1580	0	33344	32644	35948	
1581	0	32960	32442	35916	
1582	0	32652	32552	35896	
1583	0	32492	32830	35892	
1584	0	33044	32815	35898	
1585	0	32748	32788	35904	
1586	0	32276	32704	35912	
1587	0	32554	32695	35940	
1588	0	33180	32964	35956	
1589	0	33248	33056	35996	
1590	0	32980	33123	36002	
1591	0	32948	33069	36053	
1592	0	32908	32997	36116	
1593	0	32760	32694	36160	
1594	0	32775	32505	36208	
1595	0	32984	32428	36240	
1596	0	32900	32540	36284	
1597	0	33316	32558	36324	
1598	0	32954	32654	36333	
1599	0	31732	32542	36380	
1600	0	31612	32881	36392	
1601	0	32540	32812	36444	
1602	0	32574	32940	36476	
1603	0	32290	33036	36508	
1604	0	32502	32884	36528	
1605	0	32964	32836	36593	
1606	0	32928	32582	36656	
1607	0	33480	32813	36676	
1608	0	33876	32849	36732	
1609	0	33404	32916	36804	
1610	0	33276	32809	36848	
1611	0	33136	33100	36893	
1612	0	33084	33277	36940	
1613	0	33180	33044	36982	
1614	0	32504	32992	37028	
1615	0	31516	32852	37098	
1616	0	31160	32888	37137	
1617	0	31429	32876	37176	
1618	0	31733	32640	37200	
1619	0	32784	32692	37220	
1620	0	33388	32764	37224	
1621	0	33390	32764	37215	
1622	0	33592	32741	37230	
1623	0	33892	32720	37209	
1624	0	33084	32575	37208	
1625	0	33040	33031	37200	
1626	0	31460	32992	37220	
1627	0	31393	32836	37233	
1628	0	32821	33266	37220	
1629	0	33364	32943	37217	
1630	0	33460	32782	37216	
1631	0	33076	32503	37206	
1632	0	33232	32808	37237	
1633	0	33704	33092	37241	
1634	0	32970	32932	37284	
1635	0	31984	32582	37316	
1636	0	31934	32674	37316	
1637	0	32328	32588	37367	
1638	0	33112	32712	37396	
1639	0	32980	32921	37425	
1640	0	32880	32821	37425	
1641	0	32684	32782	37448	
1642	0	32676	32982	37469	
1643	0	32820	33051	37440	
1644	0	32868	33137	37404	
1645	0	32956	32894	37404	
1646	0	32532	32724	37364	
1647	0	32498	32960	37336	
1648	0	32892	32952	37312	
1649	0	33612	32858	37313	
1650	0	33708	32782	37304	
1651	0	33002	32940	37285	
1652	0	32604	32983	37286	
1653	0	33048	32909	37304	
1654	0	32944	32783	37295	
1655	0	32636	32924	37294	
1656	0	32516	32753	37298	
1657	0	32508	32742	37284	
1658	0	32433	32924	37269	
1659	0	32164	33140	37212	
1660	0	32409	33040	37178	
1661	0	32440	32741	37174	
1662	0	32328	32808	37111	
1663	0	32206	32972	37073	
1664	0	32390	32774	37052	
1665	0	32868	32924	37031	
1666	0	33197	33000	37028	
1667	0	33696	32932	37008	
1668	0	34340	33144	37004	
1669	0	34468	32966	37004	
1670	0	33232	32640	36996	
1671	0	32536	32812	36968	
1672	0	32384	32876	36972	
1673	0	32546	32929	36940	
1674	0	32722	33002	36909	
1675	0	32688	32764	36847	
1676	0	31892	32655	36821	
1677	0	32478	32976	36804	
1678	0	31820	32968	36786	
1679	0	31924	32970	36784	
1680	0	32780	32997	36760	
1681	0	33032	32916	36772	
1682	0	32558	32836	36756	
1683	0	32478	32782	36736	
1684	0	32700	32476	36764	
1685	0	31840	32548	36801	
1686	0	32592	32706	36824	
1687	0	33576	32772	36860	
1688	0	34329	32776	36876	
1689	0	33628	32704	36924	
1690	0	33009	32647	36980	
1691	0	32942	32901	36992	
1692	0	33068	33086	37044	
1693	0	33088	33228	37056	
1694	0	32996	32912	37097	
1695	0	33148	32856	37097	
1696	0	33076	32789	37138	
1697	0	32956	32760	37155	
1698	0	32928	32897	37174	
1699	0	33160	32664	37208	
1700	0	31872	32644	37255	
1701	0	31140	32800	37288	
1702	0	31413	32964	37316	
1703	0	31800	32960	37336	
1704	0	32880	32984	37398	
1705	0	32864	32833	37428	
1706	0	33152	32732	37484	
1707	0	33096	32604	37500	
1708	0	32853	32965	37540	
1709	0	33160	32856	37590	
1710	0	33264	32528	37600	
1711	0	33392	32516	37609	
1712	0	33264	32764	37636	
1713	0	33080	32696	37639	
1714	0	32956	32524	37648	
1715	0	32960	32469	37692	
1716	0	32960	32796	37736	
1717	0	32868	33070	37776	
1718	0	32798	33224	37828	
1719	0	32960	33161	37840	
1720	0	32504	32748	37862	
1721	0	32008	32787	37900	
1722	0	31932	32600	37924	
1723	0	32056	32612	37940	
1724	0	32676	32640	37990	
1725	0	32356	32810	37988	
1726	0	32112	33017	38016	
1727	0	32356	32969	38008	
1728	0	33020	32834	38028	
1729	0	33417	32958	38008	
1730	0	33388	32600	37989	
1731	0	32948	32668	37968	
1732	0	33436	32892	37908	
1733	0	33460	32964	37848	
1734	0	33188	32916	37828	
1735	0	32884	32612	37768	
1736	0	32737	32677	37728	
1737	0	32648	32837	37680	
1738	0	32128	32644	37629	
1739	0	32216	32800	37572	
1740	0	32992	32885	37525	
1741	0	32492	33002	37471	
1742	0	32392	33029	37436	
1743	0	32804	32962	37391	
1744	0	32536	32928	37348	
1745	0	32522	32868	37296	
1746	0	32553	32644	37262	
1747	0	32808	32688	37238	
1748	0	33796	32674	37209	
1749	0	33778	32816	37172	
1750	0	32920	33008	37120	
1751	0	32608	33236	37088	
1752	0	32789	32724	37064	
1753	0	32544	32844	37028	
1754	0	32900	33032	37008	
1755	0	34017	32917	36975	
1756	0	33302	32797	36918	
1757	0	32976	32276	36889	
1758	0	33277	32767	36860	
1759	0	32928	32816	36840	
1760	0	32672	32840	36831	
1761	0	32148	32813	36798	
1762	0	31337	32628	36775	
1763	0	31620	32624	36772	
1764	0	31832	32657	36767	
1765	0	32305	32775	36770	
1766	0	32880	32544	36801	
1767	0	33392	32780	36769	
1768	0	33428	33216	36784	
1769	0	33416	33340	36800	
1770	0	33280	32996	36792	
1771	0	33122	32624	36823	
1772	0	33056	32768	36806	
1773	0	33126	32900	36808	
1774	0	32996	32873	36808	
1775	0	32904	32902	36805	
1776	0	33124	32984	36772	
1777	0	33156	32944	36781	
1778	0	32444	32916	36788	
1779	0	31792	32996	36802	
1780	0	32596	32804	36772	
1781	0	32760	32714	36757	
1782	0	32108	32880	36753	
1783	0	31296	32581	36743	
1784	0	31620	32758	36729	
1785	0	32945	32912	36719	
1786	0	33100	33056	36720	
1787	0	33288	32996	36724	
1788	0	33412	32973	36732	
1789	0	33610	32906	36714	
1790	0	33228	32752	36716	
1791	0	32508	32528	36712	
1792	0	32332	32621	36737	
1793	0	32132	32752	36752	
1794	0	33084	33068	36756	
1795	0	34960	33172	36764	
1796	0	34204	33156	36792	
1797	0	31852	33104	36801	
1798	0	31480	32921	36852	
1799	0	32312	32794	36886	
1800	0	32608	32647	36905	
1801	0	32400	32519	36924	
1802	0	32038	32205	36936	
1803	0	32140	32452	36944	
1804	0	32960	32665	36968	
1805	0	33356	32629	36984	
1806	0	33256	32759	37015	
1807	0	33008	32894	37005	
1808	0	32268	33102	37004	
1809	0	32728	33229	37008	
1810	0	32884	33068	37028	
1811	0	32252	32824	37037	
1812	0	32852	32656	37052	
1813	0	33473	32972	37046	
1814	0	33488	33104	37062	
1815	0	33108	32966	37108	
1816	0	32936	32973	37120	
1817	0	32612	33060	37145	
1818	0	32796	33085	37152	
1819	0	32740	33012	37160	
1820	0	32476	32900	37192	
1821	0	32673	32612	37194	
1822	0	32730	32625	37232	
1823	0	32616	32287	37252	
1824	0	32569	32360	37278	
1825	0	32484	32638	37300	
1826	0	32818	32830	37335	
1827	0	32804	33101	37360	
1828	0	32732	33204	37381	
1829	0	33004	32992	37368	
1830	0	33156	32766	37392	
1831	0	33084	32740	37420	
1832	0	32980	32892	37473	
1833	0	32968	32910	37524	
1834	0	33025	33020	37576	
1835	0	33152	32901	37620	
1836	0	33116	32868	37676	
1837	0	32753	32967	37704	
1838	0	32552	33052	37770	
1839	0	32296	32896	37806	
1840	0	32386	32908	37846	
1841	0	32417	32580	37842	
1842	0	32744	32628	37863	
1843	0	32428	32548	37894	
1844	0	32449	32600	37895	
1845	0	32612	32700	37904	
1846	0	32725	32800	37892	
1847	0	32792	32812	37881	
1848	0	33012	32857	37840	
1849	0	33040	32920	37812	
1850	0	32968	32818	37799	
1851	0	32818	32924	37756	
1852	0	32944	32676	37700	
1853	0	33160	32664	37660	
1854	0	33393	32964	37614	
1855	0	33540	32852	37575	
1856	0	33516	32824	37528	
1857	0	32916	32912	37468	
1858	0	32560	33168	37380	
1859	0	32096	33200	37324	
1860	0	31908	32774	37248	
1861	0	32341	33084	37177	
1862	0	32452	32750	37068	
1863	0	32024	32556	36954	
1864	0	31978	32552	36838	
1865	0	33309	32488	36728	
1866	0	33622	32646	36604	
1867	0	33348	32921	36484	
1868	0	32906	32952	36372	
1869	0	32824	33053	36216	
1870	0	32906	33000	36103	
1871	0	32748	33057	35993	
1872	0	33116	33085	35876	
1873	0	33956	32912	35792	
1874	0	32588	33084	35748	
1875	0	31358	32988	35704	
1876	0	32784	32598	35652	
1877	0	33764	32932	35604	
1878	0	32972	32596	35590	
1879	0	32620	32737	35584	
1880	0	32656	32661	35591	
1881	0	32704	32713	35584	
1882	0	32865	32853	35588	
1883	0	32160	32838	35596	
1884	0	31584	32548	35616	
1885	0	31908	32775	35648	
1886	0	32485	32544	35641	
1887	0	33366	32730	35647	
1888	0	33532	33008	35676	
1889	0	33312	32956	35692	
1890	0	33352	32992	35710	
1891	0	31876	32980	35760	
1892	0	31199	32760	35789	
1893	0	32676	32733	35847	
1894	0	34157	32660	35900	
1895	0	33776	32616	35957	
1896	0	33464	32904	36005	
1897	0	33536	33100	36057	
1898	0	33276	33038	36124	
1899	0	32592	33016	36172	
1900	0	32262	32662	36228	
1901	0	31994	32464	36280	
1902	0	32438	32396	36324	
1903	0	32712	32468	36376	
1904	0	32736	32692	36432	
1905	0	32818	32724	36480	
1906	0	32964	32805	36524	
1907	0	32785	32925	36580	
1908	0	32474	33024	36660	
1909	0	32788	33168	36712	
1910	0	32941	33212	36776	
1911	0	32804	33066	36836	
1912	0	32609	33138	36896	
1913	0	32832	33261	36980	
1914	0	32908	33092	37031	
1915	0	32816	32604	37094	
1916	0	32688	32404	37168	
1917	0	32960	32380	37231	
1918	0	33190	32622	37296	
1919	0	32992	32900	37332	
1920	0	32452	32733	37383	
1921	0	32252	32604	37445	
1922	0	32132	32665	37477	
1923	0	32156	32668	37500	
1924	0	32552	32576	37510	
1925	0	33076	32617	37544	
1926	0	33421	32866	37576	
1927	0	33656	33141	37589	
1928	0	33288	33071	37605	
1929	0	33096	33048	37628	
1930	0	33100	33160	37628	
1931	0	33052	33025	37612	
1932	0	32688	33227	37600	
1933	0	32640	33020	37597	
1934	0	32512	32881	37616	
1935	0	31980	32504	37602	
1936	0	32030	32656	37609	
1937	0	32248	32728	37603	
1938	0	33224	32736	37596	
1939	0	33524	32478	37576	
1940	0	33120	32508	37588	
1941	0	33067	32637	37615	
1942	0	32608	32712	37588	
1943	0	32201	32793	37564	
1944	0	32484	32853	37562	
1945	0	32450	33034	37532	
1946	0	32168	33018	37520	
1947	0	32420	33013	37512	
1948	0	32692	32853	37511	
1949	0	32852	32984	37492	
1950	0	33448	33262	37461	
1951	0	33852	33076	37447	
1952	0	33300	33010	37417	
1953	0	33052	33036	37408	
1954	0	33416	32950	37353	
1955	0	33316	32941	37302	
1956	0	32976	32784	37271	
1957	0	32916	32756	37212	
1958	0	33344	32852	37156	
1959	0	33110	32824	37096	
1960	0	32392	32564	37068	
1961	0	31160	32686	37024	
1962	0	31628	32626	36968	
1963	0	32084	32932	36910	
1964	0	32252	32929	36849	
1965	0	32840	32756	36824	
1966	0	32872	32736	36790	
1967	0	33092	32717	36748	
1968	0	33240	32938	36738	
1969	0	33152	33036	36716	
1970	0	32753	33012	36704	
1971	0	32969	33040	36685	
1972	0	33492	33124	36660	
1973	0	33152	33124	36636	
1974	0	32580	32844	36604	
1975	0	32633	32804	36605	
1976	0	32792	32649	36597	
1977	0	32748	32354	36597	
1978	0	32964	32404	36585	
1979	0	32726	32784	36570	
1980	0	32284	32647	36560	
1981	0	32356	32599	36548	
1982	0	32452	32908	36532	
1983	0	32780	33054	36516	
1984	0	33072	32996	36509	
1985	0	32180	32965	36460	
1986	0	31896	33083	36436	
1987	0	33125	32999	36436	
1988	0	32829	32976	36436	
1989	0	32436	33152	36430	
1990	0	32704	32885	36436	
1991	0	33325	32580	36444	
1992	0	33836	32592	36439	
1993	0	33980	32610	36484	
1994	0	33333	32673	36497	
1995	0	32951	32927	36525	
1996	0	32660	32918	36540	
1997	0	32464	32996	36580	
1998	0	32432	32857	36588	
1999	0	32372	32996	36628	
2000	0	32336	32895	36656	
2001	0	32430	32745	36712	
2002	0	32436	32656	36748	
2003	0	32072	32608	36752	
2004	0	32140	32528	36788	
2005	0	32524	32684	36800	
2006	0	33184	32960	36812	
2007	0	33468	33084	36817	
2008	0	33128	33025	36820	
2009	0	33024	33033	36825	
2010	0	32740	33298	36812	
2011	0	33096	32865	36784	
2012	0	33828	32945	36768	
2013	0	34372	32663	36736	
2014	0	33256	32621	36724	
2015	0	32676	32656	36740	
2016	0	32504	32576	36721	
2017	0	32340	32804	36717	
2018	0	32260	33064	36716	
2019	0	31945	32620	36724	
2020	0	32036	33182	36736	
2021	0	32288	33028	36704	
2022	0	32485	33008	36693	
2023	0	32656	32976	36699	
2024	0	33056	32625	36680	
2025	0	32808	32590	36692	
2026	0	32728	32764	36720	
2027	0	32684	32684	36760	
2028	0	32936	32512	36796	
2029	0	32989	32756	36814	
2030	0	33208	32920	36841	
2031	0	32852	32898	36857	
2032	0	32822	32820	36884	
2033	0	32917	32900	36925	
2034	0	33205	32896	36944	
2035	0	33296	32756	36970	
2036	0	33120	32404	36974	
2037	0	33320	32705	36991	
2038	0	33129	32944	36982	
2039	0	32992	32948	36999	
2040	0	32584	32784	36984	
2041	0	32128	33199	36956	
2042	0	31598	32987	36932	
2043	0	30924	32716	36932	
2044	0	31590	32783	36928	
2045	0	32052	32869	36896	
2046	0	33968	32763	36900	
2047	0	34016	32904	36897	
2048	0	33228	33233	36895	
2049	0	32852	32996	36893	
2050	0	33052	32632	36852	
2051	0	33252	32708	36832	
2052	0	33224	32702	36842	
2053	0	33276	32748	36844	
2054	0	33004	32828	36864	
2055	0	32557	32925	36870	
2056	0	32652	32944	36863	
2057	0	33045	32863	36841	
2058	0	32852	32852	36836	
2059	0	32504	32808	36831	
2060	0	31761	32945	36841	
2061	0	31936	32976	36848	
2062	0	32296	32836	36856	
2063	0	32545	32660	36871	
2064	0	32850	32676	36868	
2065	0	33280	32794	36856	
2066	0	32996	32836	36880	
2067	0	32981	32911	36884	
2068	0	32960	32900	36884	
2069	0	32995	32908	36885	
2070	0	32961	33026	36877	
2071	0	32904	32423	36905	
2072	0	32896	32964	36900	
2073	0	33160	33007	36892	
2074	0	33150	32640	36908	
2075	0	33100	32916	36896	
2076	0	32704	33126	36904	
2077	0	32440	32682	36887	
2078	0	32932	32628	36844	
2079	0	33032	32720	36840	
2080	0	32460	32840	36844	
2081	0	32412	32748	36815	
2082	0	32292	33034	36800	
2083	0	32360	33010	36770	
2084	0	32628	33216	36761	
2085	0	32481	32580	36753	
2086	0	32357	32632	36742	
2087	0	32460	32613	36766	
2088	0	32578	32636	36732	
2089	0	33158	32829	36743	
2090	0	33593	32756	36709	
2091	0	33358	32801	36696	
2092	0	33140	32936	36676	
2093	0	33472	33033	36652	
2094	0	33624	33044	36612	
2095	0	33252	32903	36552	
2096	0	32720	33078	36480	
2097	0	32580	32806	36428	
2098	0	32452	33050	36368	
2099	0	32266	33061	36332	
2100	0	32164	32892	36321	
2101	0	32128	32588	36296	
2102	0	32240	32576	36292	
2103	0	32692	32780	36284	
2104	0	32820	32968	36294	
2105	0	33026	33020	36286	
2106	0	33460	32578	36276	
2107	0	33060	32908	36284	
2108	0	32768	32812	36325	
2109	0	32904	32592	36356	
2110	0	32616	32522	36380	
2111	0	32040	32774	36426	
2112	0	32031	32861	36474	
2113	0	32016	33100	36517	
2114	0	32320	33198	36568	
2115	0	32656	33432	36605	
2116	0	32952	32978	36620	
2117	0	33373	32745	36660	
2118	0	33676	32832	36680	
2119	0	34113	32789	36697	
2120	0	33448	32604	36692	
2121	0	32800	32572	36694	
2122	0	31854	32628	36704	
2123	0	32132	32896	36730	
2124	0	32276	32964	36743	
2125	0	32784	32741	36773	
2126	0	33128	32896	36818	
2127	0	32640	32872	36849	
2128	0	32430	33021	36884	
2129	0	33060	32812	36924	
2130	0	32892	32742	36944	
2131	0	32684	32468	36984	
2132	0	32860	32874	37020	
2133	0	33272	32708	37070	
2134	0	32996	33036	37120	
2135	0	34278	33028	37168	
2136	0	34432	33268	37222	
2137	0	33893	33104	37266	
2138	0	32508	32943	37316	
2139	0	31936	32932	37358	
2140	0	32365	32794	37390	
2141	0	32628	32748	37421	
2142	0	32176	32720	37440	
2143	0	32290	32161	37464	
2144	0	32588	32461	37503	
2145	0	32206	32594	37512	
2146	0	32312	32533	37524	
2147	0	32516	32473	37508	
2148	0	32756	32812	37520	
2149	0	32937	33148	37521	
2150	0	33348	33025	37520	
2151	0	33398	32922	37527	
2152	0	33074	32988	37519	
2153	0	32976	33008	37508	
2154	0	32770	33240	37496	
2155	0	32284	33020	37489	
2156	0	32297	32720	37500	
2157	0	32084	32961	37510	
2158	0	32364	32544	37524	
2159	0	32840	32772	37537	
2160	0	32826	32588	37546	
2161	0	32740	32565	37546	
2162	0	32788	32724	37552	
2163	0	32744	32812	37528	
2164	0	32741	32942	37511	
2165	0	32684	32656	37492	
2166	0	32568	32898	37487	
2167	0	32792	33017	37464	
2168	0	32750	33213	37441	
2169	0	32996	33342	37436	
2170	0	33732	33025	37430	
2171	0	33165	32562	37397	
2172	0	32364	32791	37394	
2173	0	33066	32734	37358	
2174	0	33180	32644	37383	
2175	0	32992	32855	37364	
2176	0	32597	32890	37368	
2177	0	32668	32854	37356	
2178	0	32687	32943	37357	
2179	0	32564	32963	37342	
2180	0	32388	32850	37348	
2181	0	32620	32612	37312	
2182	0	32816	32672	37292	
2183	0	32717	32714	37268	
2184	0	32689	32702	37239	
2185	0	32818	32850	37229	
2186	0	32929	32876	37196	
2187	0	32972	32708	37186	
2188	0	33000	32748	37140	
2189	0	32764	32813	37136	
2190	0	32092	32805	37088	
2191	0	32328	33038	37052	
2192	0	33212	33037	36996	
2193	0	33536	32909	36956	
2194	0	33256	32850	36932	
2195	0	33008	32756	36896	
2196	0	32968	32874	36852	
2197	0	32532	32906	36800	
2198	0	32660	32932	36748	
2199	0	32452	32866	36696	
2200	0	32172	33001	36656	
2201	0	32597	32501	36625	
2202	0	32769	32660	36591	
2203	0	32814	32717	36570	
2204	0	32712	32692	36552	
2205	0	32494	32833	36519	
2206	0	32532	33052	36500	
2207	0	32720	32868	36470	
2208	0	33210	33078	36471	
2209	0	33208	32966	36442	
2210	0	33284	32728	36422	
2211	0	33385	32644	36399	
2212	0	33142	32740	36380	
2213	0	32986	32600	36364	
2214	0	32532	32665	36348	
2215	0	32368	32997	36340	
2216	0	32760	33160	36344	
2217	0	33152	32628	36312	
2218	0	33166	32615	36292	
2219	0	32604	32791	36260	
2220	0	32388	32741	36214	
2221	0	32397	32717	36168	
2222	0	31842	32892	36154	
2223	0	31788	32794	36124	
2224	0	32457	32792	36072	
2225	0	32366	32848	36053	
2226	0	33149	32932	36037	
2227	0	33520	32803	35996	
2228	0	33900	33096	35980	
2229	0	33580	33156	35988	
2230	0	33210	32824	36004	
2231	0	32968	32698	36000	
2232	0	32672	32757	36020	
2233	0	32934	32676	36038	
2234	0	32704	32667	36068	
2235	0	32752	32565	36092	
2236	0	32896	32617	36128	
2237	0	32756	32695	36162	
2238	0	32681	32829	36213	
2239	0	32488	32838	36282	
2240	0	32448	32702	36316	
2241	0	32424	32745	36377	
2242	0	32380	32775	36428	
2243	0	32342	32868	36481	
2244	0	32452	32831	36525	
2245	0	32640	32740	36584	
2246	0	32652	32977	36620	
2247	0	32614	32878	36686	
2248	0	33060	33048	36708	
2249	0	33150	33110	36752	
2250	0	33269	32832	36801	
2251	0	33244	32804	36836	
2252	0	33152	32927	36884	
2253	0	33121	33072	36926	
2254	0	32752	32972	36938	
2255	0	32760	32852	36980	
2256	0	32848	32904	37012	
2257	0	32644	32742	37064	
2258	0	32693	32790	37104	
2259	0	32640	32910	37144	
2260	0	32564	32838	37180	
2261	0	32148	32764	37206	
2262	0	32176	32596	37253	
2263	0	32502	32649	37310	
2264	0	32868	32692	37328	
2265	0	33316	32672	37391	
2266	0	33444	32700	37447	
2267	0	32601	32738	37502	
2268	0	32428	32967	37532	
2269	0	32489	33244	37581	
2270	0	32776	33135	37593	
2271	0	32768	32998	37632	
2272	0	33665	32764	37652	
2273	0	33604	32736	37680	
2274	0	33120	32620	37686	
2275	0	32572	32380	37710	
2276	0	32704	32500	37728	
2277	0	32400	32692	37742	
2278	0	32352	32889	37737	
2279	0	32730	33025	37744	
2280	0	32948	32832	37753	
2281	0	32780	32796	37769	
2282	0	32596	32672	37780	
2283	0	32420	32636	37799	
2284	0	32292	32932	37814	
2285	0	32331	32868	37832	
2286	0	32592	32872	37824	
2287	0	32888	32965	37814	
2288	0	33184	33252	37800	
2289	0	33432	32824	37776	
2290	0	33372	32768	37766	
2291	0	33172	32978	37732	
2292	0	32972	32604	37696	
2293	0	33000	32736	37665	
2294	0	33220	32960	37568	
2295	0	33364	32956	37519	
2296	0	32884	32680	37440	
2297	0	32160	32688	37356	
2298	0	31932	32954	37245	
2299	0	32188	32848	37168	
2300	0	32328	32868	37073	
2301	0	32757	32740	37002	
2302	0	32744	32904	36936	
2303	0	32896	32948	36849	
2304	0	33068	32932	36783	
2305	0	32672	32832	36724	
2306	0	32480	32952	36664	
2307	0	32513	32284	36632	
2308	0	32896	32573	36580	
2309	0	33172	32741	36549	
2310	0	33174	32678	36517	
2311	0	33199	32795	36476	
2312	0	33060	32925	36436	
2313	0	32688	32881	36412	
2314	0	32328	32904	36412	
2315	0	32032	32963	36376	
2316	0	31904	33060	36352	
2317	0	32049	33016	36346	
2318	0	32560	32968	36352	
2319	0	33260	32984	36340	
2320	0	33564	32892	36333	
2321	0	33969	32724	36332	
2322	0	34116	32662	36314	
2323	0	33300	32696	36324	
2324	0	32708	32806	36341	
2325	0	32200	32752	36368	
2326	0	32304	32806	36378	
2327	0	32360	32725	36380	
2328	0	32782	33148	36380	
2329	0	32674	32892	36384	
2330	0	32701	32845	36376	
2331	0	33092	32733	36392	
2332	0	33392	32743	36399	
2333	0	33072	32804	36384	
2334	0	32986	32872	36415	
2335	0	33084	32952	36420	
2336	0	32976	32962	36461	
2337	0	32677	32996	36512	
2338	0	32368	32934	36542	
2339	0	32136	32956	36569	
2340	0	31712	32886	36608	
2341	0	32150	33110	36644	
2342	0	32546	32840	36656	
2343	0	32616	32687	36680	
2344	0	32424	32412	36716	
2345	0	32160	32492	36740	
2346	0	32176	32545	36788	
2347	0	32121	32420	36820	
2348	0	32558	32693	36852	
2349	0	33064	33157	36910	
2350	0	32962	33015	36989	
2351	0	33604	33020	37036	
2352	0	34768	32800	37065	
2353	0	35232	32796	37140	
2354	0	34670	32841	37168	
2355	0	33632	32783	37248	
2356	0	32472	32704	37268	
2357	0	31660	33040	37312	
2358	0	31706	32942	37340	
2359	0	31946	32888	37383	
2360	0	31684	32780	37388	
2361	0	31878	32694	37450	
2362	0	32653	32748	37477	
2363	0	32928	32688	37508	
2364	0	33122	32790	37520	
2365	0	32849	32768	37568	
2366	0	32428	32933	37556	
2367	0	31936	33092	37588	
2368	0	32186	33188	37589	
2369	0	32756	33168	37590	
2370	0	33860	33152	37578	
2371	0	34216	32909	37566	
2372	0	33780	32884	37578	
2373	0	33108	32972	37556	
2374	0	33116	33092	37548	
2375	0	32740	32749	37524	
2376	0	32650	32813	37500	
2377	0	32752	32620	37460	
2378	0	33074	32352	37412	
2379	0	32440	32509	37332	
2380	0	31864	32537	37306	
2381	0	31796	32604	37248	
2382	0	31967	32613	37178	
2383	0	32504	32628	37116	
2384	0	32778	32704	37080	
2385	0	33076	32965	37038	
2386	0	33696	33084	36998	
2387	0	33362	33124	36954	
2388	0	32449	33132	36928	
2389	0	31972	32852	36912	
2390	0	32132	32552	36888	
2391	0	32400	32676	36860	
2392	0	33422	32621	36833	
2393	0	33816	32968	36786	
2394	0	33668	33001	36740	
2395	0	33144	32956	36664	
2396	0	32952	33031	36585	
2397	0	33084	33308	36542	
2398	0	32744	33020	36468	
2399	0	32165	32752	36385	
2400	0	31788	32706	36341	
2401	0	31837	32720	36277	
2402	0	32032	32336	36188	
2403	0	32120	32568	36119	
2404	0	33012	32716	36062	
2405	0	33353	32800	36024	
2406	0	33688	32692	35940	
2407	0	33485	32929	35892	
2408	0	33332	32660	35864	
2409	0	32898	32752	35828	
2410	0	32380	33040	35785	
2411	0	32568	33112	35760	
2412	0	32887	32676	35740	
2413	0	33252	32770	35740	
2414	0	33348	32850	35756	
2415	0	32800	32809	35756	
2416	0	32676	32776	35767	
2417	0	32185	33088	35808	
2418	0	31804	32922	35826	
2419	0	31620	32980	35847	
2420	0	31977	32836	35888	
2421	0	32480	32648	35932	
2422	0	32756	32559	35943	
2423	0	33685	32612	35948	
2424	0	34420	32677	35975	
2425	0	34416	32486	36020	
2426	0	33828	32616	36072	
2427	0	33133	32668	36132	
2428	0	32600	32849	36183	
2429	0	32545	33018	36216	
2430	0	32829	33004	36268	
2431	0	32676	32988	36313	
2432	0	32161	32996	36366	
2433	0	32504	33068	36416	
2434	0	32684	33026	36476	
2435	0	32634	33028	36536	
2436	0	32702	32784	36615	
2437	0	32656	32890	36672	
2438	0	32545	33064	36725	
2439	0	32364	32952	36796	
2440	0	32176	32724	36853	
2441	0	32450	32764	36918	
2442	0	32389	32752	36953	
2443	0	32524	32647	36988	
2444	0	32436	32668	37025	
2445	0	32756	32564	37056	
2446	0	33096	32700	37104	
2447	0	33186	32872	37136	
2448	0	33136	32764	37181	
2449	0	32996	32905	37244	
2450	0	33064	32992	37300	
2451	0	33124	32752	37344	
2452	0	33268	32690	37388	
2453	0	33348	32994	37447	
2454	0	33296	32960	37501	
2455	0	33064	32976	37572	
2456	0	32772	32900	37604	
2457	0	32484	32708	37652	
2458	0	32188	33006	37698	
2459	0	32017	32993	37716	
2460	0	32240	32876	37728	
2461	0	32312	32611	37758	
2462	0	32169	32740	37764	
2463	0	32272	32788	37780	
2464	0	32760	32841	37793	
2465	0	33200	32800	37769	
2466	0	33276	32921	37751	
2467	0	33265	32944	37703	
2468	0	33216	32868	37688	
2469	0	33102	32864	37672	
2470	0	32700	32848	37660	
2471	0	32710	32679	37633	
2472	0	32684	32550	37582	
2473	0	33068	32600	37560	
2474	0	33640	32717	37520	
2475	0	34004	33072	37524	
2476	0	33725	32861	37500	
2477	0	33372	33080	37478	
2478	0	32764	33296	37448	
2479	0	32168	33260	37409	
2480	0	31521	33188	37370	
2481	0	30884	32808	37339	
2482	0	31092	32341	37316	
2483	0	32152	32434	37273	
2484	0	32712	32620	37236	
2485	0	32682	32646	37188	
2486	0	33605	32720	37148	
2487	0	33600	32673	37108	
2488	0	33256	32833	37056	
2489	0	33196	32750	37025	
2490	0	33121	32945	36956	
2491	0	33106	33055	36924	
2492	0	33167	32869	36864	
2493	0	33036	32900	36805	
2494	0	33110	33044	36765	
2495	0	32923	32916	36717	
2496	0	32576	32853	36692	
2497	0	32376	32814	36661	
2498	0	32508	32948	36640	
2499	0	32174	32860	36608	
2500	0	32268	32813	36584	
2501	0	32688	32898	36572	
2502	0	32824	32760	36574	
2503	0	32512	32817	36570	
2504	0	32188	32849	36564	
2505	0	32720	32948	36556	
2506	0	32698	32952	36533	
2507	0	32892	32724	36538	
2508	0	33096	32837	36544	
2509	0	33212	32812	36532	
2510	0	33297	32775	36516	
2511	0	33208	32796	36547	
2512	0	33080	32860	36549	
2513	0	33140	32958	36524	
2514	0	33012	33072	36548	
2515	0	32880	32985	36540	
2516	0	32913	32898	36521	
2517	0	32760	32713	36529	
2518	0	32764	32868	36544	
2519	0	32732	33053	36574	
2520	0	32496	33013	36558	
2521	0	32304	32804	36564	
2522	0	32576	32612	36553	
2523	0	32589	32438	36552	
2524	0	32440	32509	36582	
2525	0	32276	32544	36598	
2526	0	32444	32704	36615	
2527	0	32548	32673	36625	
2528	0	32952	32916	36624	
2529	0	33456	33204	36628	
2530	0	33532	33048	36634	
2531	0	33196	32916	36636	
2532	0	33060	32766	36644	
2533	0	33124	32964	36668	
2534	0	32997	33284	36700	
2535	0	32760	32993	36704	
2536	0	32669	32938	36724	
2537	0	32736	33174	36724	
2538	0	32644	32976	36752	
2539	0	32724	32828	36760	
2540	0	32524	32768	36781	
2541	0	32544	32518	36776	
2542	0	32632	32596	36764	
2543	0	32058	32836	36742	
2544	0	31732	32164	36720	
2545	0	31516	32417	36688	
2546	0	31784	32926	36668	
2547	0	32088	32980	36604	
2548	0	33320	32748	36560	
2549	0	34200	32866	36501	
2550	0	34808	32632	36484	
2551	0	34880	32708	36444	
2552	0	34150	32863	36392	
2553	0	33232	32887	36372	
2554	0	32388	32942	36344	
2555	0	32144	32892	36340	
2556	0	32912	32927	36326	
2557	0	32976	32932	36337	
2558	0	32488	33048	36320	
2559	0	32508	32922	36318	
2560	0	32212	32919	36308	
2561	0	32296	32940	36310	
2562	0	32316	32820	36328	
2563	0	32164	32616	36349	
2564	0	32037	32652	36372	
2565	0	32204	32689	36376	
2566	0	32632	32756	36392	
2567	0	32816	33144	36392	
2568	0	33124	33108	36436	
2569	0	33696	32829	36440	
2570	0	33732	32756	36468	
2571	0	33048	32856	36509	
2572	0	33080	32762	36510	
2573	0	33044	32824	36541	
2574	0	32964	32864	36550	
2575	0	32728	32843	36568	
2576	0	32556	32708	36604	
2577	0	32421	32786	36606	
2578	0	32252	32768	36604	
2579	0	32556	32964	36640	
2580	0	32516	33018	36654	
2581	0	32367	32965	36644	
2582	0	32682	33014	36640	
2583	0	32586	33021	36668	
2584	0	32520	33065	36682	
2585	0	32638	32982	36688	
2586	0	32624	32716	36668	
2587	0	32929	32412	36673	
2588	0	33081	32144	36692	
2589	0	33236	32448	36692	
2590	0	33224	32638	36693	
2591	0	33188	32804	36684	
2592	0	33260	33001	36701	
2593	0	33148	32969	36740	
2594	0	33012	32912	36765	
2595	0	33056	32934	36775	
2596	0	32868	32756	36830	
2597	0	32729	32642	36849	
2598	0	32652	32685	36864	
2599	0	32332	32770	36917	
2600	0	32192	32798	36941	
2601	0	32236	32845	36989	
2602	0	32380	32792	37024	
2603	0	32413	32821	37077	
2604	0	32521	32921	37120	
2605	0	32644	32872	37130	
2606	0	32868	32804	37166	
2607	0	32944	32868	37208	
2608	0	33116	33032	37228	
2609	0	33256	32922	37260	
2610	0	33248	32758	37296	
2611	0	33064	32883	37344	
2612	0	32962	32893	37352	
2613	0	33064	32750	37376	
2614	0	33076	32839	37368	
2615	0	32916	32924	37388	
2616	0	32821	32888	37420	
2617	0	32556	32934	37425	
2618	0	32553	32868	37436	
2619	0	32529	32804	37413	
2620	0	32422	32772	37408	
2621	0	32492	32753	37376	
2622	0	32436	32662	37336	
2623	0	32320	32646	37312	
2624	0	32428	32506	37263	
2625	0	32528	32573	37233	
2626	0	32844	32724	37190	
2627	0	33000	32750	37168	
2628	0	32898	33056	37112	
2629	0	32844	32728	37062	
2630	0	32873	32792	37033	
2631	0	33161	32864	37004	
2632	0	33372	32961	36996	
2633	0	33556	33224	36990	
2634	0	33205	33104	36972	
2635	0	33077	33150	36938	
2636	0	33052	33156	36908	
2637	0	32832	32760	36881	
2638	0	32590	32767	36858	
2639	0	32400	32649	36820	
2640	0	32204	32640	36777	
2641	0	32136	32932	36734	
2642	0	32388	32825	36661	
2643	0	32344	32897	36608	
2644	0	32584	32780	36572	
2645	0	32724	32864	36532	
2646	0	32553	32845	36502	
2647	0	32748	32712	36452	
2648	0	32640	32836	36432	
2649	0	33558	33060	36400	
2650	0	34208	32816	36380	
2651	0	33492	32704	36368	
2652	0	32220	32728	36396	
2653	0	32780	32876	36420	
2654	0	33317	33004	36440	
2655	0	33132	33192	36479	
2656	0	33032	33169	36524	
2657	0	32664	33216	36560	
2658	0	32680	32824	36596	
2659	0	32652	32436	36646	
2660	0	32516	32724	36688	
2661	0	32384	32604	36732	
2662	0	32290	32598	36772	
2663	0	32352	32761	36812	
2664	0	32636	32671	36860	
2665	0	32364	32532	36902	
2666	0	32412	32828	36961	
2667	0	32646	32936	36980	
2668	0	33032	32885	37040	
2669	0	33428	32879	37092	
2670	0	33072	32700	37125	
2671	0	32577	32854	37194	
2672	0	32589	32872	37228	
2673	0	33424	32880	37252	
2674	0	33528	32817	37286	
2675	0	33296	32873	37312	
2676	0	33114	32910	37332	
2677	0	32756	32813	37348	
2678	0	32588	32932	37353	
2679	0	32312	32960	37377	
2680	0	32050	32556	37364	
2681	0	32068	32685	37388	
2682	0	32424	32542	37388	
2683	0	32532	32805	37392	
2684	0	32632	32918	37388	
2685	0	32876	32772	37383	
2686	0	32912	32820	37380	
2687	0	32884	32852	37392	
2688	0	32988	33030	37394	
2689	0	32902	32941	37416	
2690	0	32912	32840	37424	
2691	0	33006	32886	37423	
2692	0	33132	32816	37445	
2693	0	33252	32720	37461	
2694	0	33168	32863	37472	
2695	0	33029	32885	37476	
2696	0	32920	32740	37481	
2697	0	32696	32770	37492	
2698	0	32512	32984	37498	
2699	0	32508	33284	37473	
2700	0	32273	33021	37476	
2701	0	32292	32908	37486	
2702	0	32376	32800	37480	
2703	0	32314	32560	37479	
2704	0	32358	32452	37474	
2705	0	32476	32370	37456	
2706	0	32912	32380	37452	
2707	0	33168	32548	37434	
2708	0	33580	32712	37428	
2709	0	33320	32909	37404	
2710	0	33248	32884	37382	
2711	0	33000	32913	37356	
2712	0	33068	32968	37356	
2713	0	33020	32948	37328	
2714	0	33004	32844	37301	
2715	0	33001	32972	37286	
2716	0	32941	32996	37258	
2717	0	32712	32973	37204	
2718	0	32532	33082	37184	
2719	0	32676	33012	37112	
2720	0	32528	32908	37060	
2721	0	32232	32820	37020	
2722	0	32344	32697	36972	
2723	0	32404	32788	36906	
2724	0	32532	33168	36871	
2725	0	32560	32786	36802	
2726	0	32554	32767	36752	
2727	0	32669	32916	36708	
2728	0	32964	32953	36676	
2729	0	33289	32856	36636	
2730	0	33164	32821	36580	
2731	0	33117	32468	36532	
2732	0	33152	32544	36508	
2733	0	33157	32671	36484	
2734	0	33204	32692	36449	
2735	0	33238	32836	36396	
2736	0	32996	32824	36356	
2737	0	32562	32809	36329	
2738	0	32388	32844	36309	
2739	0	32600	32800	36293	
2740	0	32632	32788	36255	
2741	0	32420	32684	36212	
2742	0	31948	32836	36184	
2743	0	32253	32780	36164	
2744	0	32200	32870	36172	
2745	0	32776	32903	36167	
2746	0	33020	32782	36143	
2747	0	32850	32866	36132	
2748	0	33000	32846	36125	
2749	0	33060	32844	36134	
2750	0	33144	32649	36132	
2751	0	33098	32868	36152	
2752	0	32732	32984	36145	
2753	0	32740	33061	36140	
2754	0	32828	33204	36194	
2755	0	32696	33168	36216	
2756	0	33196	32921	36257	
2757	0	33625	32377	36272	
2758	0	33149	32360	36283	
2759	0	32568	32837	36301	
2760	0	32440	32980	36320	
2761	0	32565	32808	36377	
2762	0	32621	32760	36380	
2763	0	32596	32705	36429	
2764	0	32537	32968	36447	
2765	0	32484	32810	36500	
2766	0	32414	32661	36528	
2767	0	32450	33034	36574	
2768	0	32720	32673	36628	
2769	0	33065	32691	36688	
2770	0	33204	32888	36759	
2771	0	33384	33181	36808	
2772	0	33338	32951	36868	
2773	0	33460	32740	36909	
2774	0	33156	32744	36972	
2775	0	32898	32764	37017	
2776	0	32816	32909	37076	
2777	0	32630	32904	37132	
2778	0	32493	32924	37180	
2779	0	32357	32965	37204	
2780	0	32152	32570	37220	
2781	0	32256	32668	37254	
2782	0	32349	32824	37276	
2783	0	32509	32830	37285	
2784	0	32704	32944	37324	
2785	0	32849	32865	37348	
2786	0	32797	32861	37364	
2787	0	33116	32813	37378	
2788	0	32952	32812	37383	
2789	0	32904	32876	37376	
2790	0	33072	32876	37383	
2791	0	33182	32760	37364	
2792	0	33020	32735	37383	
2793	0	33148	32938	37383	
2794	0	33052	32836	37401	
2795	0	32858	32790	37396	
2796	0	32912	32687	37384	
2797	0	32804	32882	37374	
2798	0	32553	32965	37378	
2799	0	32340	33188	37369	
2800	0	32241	33060	37364	
2801	0	32348	32769	37353	
2802	0	32312	32616	37316	
2803	0	32424	32730	37300	
2804	0	32521	32812	37279	
2805	0	32580	32460	37268	
2806	0	32704	32609	37260	
2807	0	32956	32702	37214	
2808	0	33072	32792	37200	
2809	0	33149	32880	37176	
2810	0	33177	32832	37140	
2811	0	33220	32621	37114	
2812	0	33361	32806	37096	
2813	0	33240	32912	37108	
2814	0	33016	33024	37081	
2815	0	32722	33173	37072	
2816	0	32968	33245	37044	
2817	0	32716	33031	37044	
2818	0	32708	32828	37005	
2819	0	32762	32832	36992	
2820	0	32548	32744	36953	
2821	0	32292	32724	36964	
2822	0	32473	32724	36956	
2823	0	32128	32629	36929	
2824	0	32266	32544	36910	
2825	0	32488	32580	36876	
2826	0	32748	32756	36841	
2827	0	32848	32629	36820	
2828	0	33024	32775	36768	
2829	0	33176	32924	36720	
2830	0	33116	32756	36684	
2831	0	33176	32686	36660	
2832	0	33200	32830	36641	
2833	0	33177	33112	36620	
2834	0	33229	32747	36596	
2835	0	32976	32796	36580	
2836	0	32428	32982	36596	
2837	0	32356	32859	36612	
2838	0	32321	32876	36596	
2839	0	32776	33000	36589	
2840	0	32876	32920	36630	
2841	0	32964	32757	36636	
2842	0	32622	32814	36629	
2843	0	32416	32932	36660	
2844	0	32384	32814	36680	
2845	0	32580	32758	36708	
2846	0	32721	32720	36705	
2847	0	32748	32804	36740	
2848	0	32952	32864	36780	
2849	0	32992	32913	36794	
2850	0	32864	32756	36820	
2851	0	33012	32636	36848	
2852	0	33153	32839	36852	
2853	0	32988	32812	36884	
2854	0	32980	32640	36896	
2855	0	33040	32743	36924	
2856	0	33252	32944	36941	
2857	0	33220	32954	36964	
2858	0	32996	33031	36953	
2859	0	32097	33178	36936	
2860	0	31502	33120	36964	
2861	0	31072	32826	36986	
2862	0	32724	32676	36999	
2863	0	32968	32621	36985	
2864	0	32539	32964	36980	
2865	0	32696	32748	36972	
2866	0	32708	32568	36969	
2867	0	33004	32893	37002	
2868	0	33064	33031	36996	
2869	0	32972	32916	37013	
2870	0	32904	32852	37004	
2871	0	33144	32775	36993	
2872	0	33236	32668	37008	
2873	0	33364	32760	37009	
2874	0	33336	32852	37056	
2875	0	33104	32668	37060	
2876	0	32868	32884	37052	
2877	0	32792	32840	37104	
2878	0	32536	32796	37136	
2879	0	32488	32805	37178	
2880	0	32342	32848	37217	
2881	0	32260	32825	37242	
2882	0	32456	32737	37269	
2883	0	32621	32796	37282	
2884	0	32830	32791	37296	
2885	0	32644	32724	37284	
2886	0	32557	32961	37295	
2887	0	32728	32900	37288	
2888	0	32964	33134	37256	
2889	0	32944	32965	37217	
2890	0	33212	32852	37176	
2891	0	33436	32770	37146	
2892	0	33252	32749	37086	
2893	0	33252	32853	37080	
2894	0	32872	32985	37061	
2895	0	32696	33052	37036	
2896	0	32608	32938	37018	
2897	0	32524	32548	37004	
2898	0	32328	32764	36958	
2899	0	32072	33012	36968	
2900	0	32325	32760	36964	
2901	0	32276	32775	36933	
2902	0	32296	32993	36904	
2903	0	32816	32673	36884	
2904	0	33004	32556	36871	
2905	0	32870	32790	36838	
2906	0	32944	32917	36801	
2907	0	33052	32884	36776	
2908	0	33133	32914	36769	
2909	0	33068	32816	36746	
2910	0	33124	32916	36724	
2911	0	33220	32935	36694	
2912	0	33232	32804	36685	
2913	0	33165	32712	36660	
2914	0	33048	32740	36662	
2915	0	32868	32829	36646	
2916	0	32745	32612	36613	
2917	0	32576	32616	36610	
2918	0	32380	32717	36592	
2919	0	32244	32864	36592	
2920	0	32236	32968	36576	
2921	0	32225	33088	36552	
2922	0	32624	33064	36546	
2923	0	32468	33030	36516	
2924	0	32553	32800	36518	
2925	0	32844	32668	36517	
2926	0	33004	32792	36500	
2927	0	32904	32913	36496	
2928	0	33124	32532	36504	
2929	0	33168	32798	36505	
2930	0	32888	32964	36517	
2931	0	33010	32968	36552	
2932	0	33136	32724	36583	
2933	0	33144	32770	36588	
2934	0	32754	32566	36607	
2935	0	32620	32806	36612	
2936	0	32660	32799	36655	
2937	0	32676	32736	36672	
2938	0	32800	32952	36682	
2939	0	33314	33005	36708	
2940	0	33316	32880	36721	
2941	0	32540	32814	36736	
2942	0	32212	32792	36738	
2943	0	32701	32877	36768	
2944	0	32500	32848	36776	
2945	0	32382	32801	36812	
2946	0	32393	32820	36816	
2947	0	32557	32814	36832	
2948	0	32820	32820	36825	
2949	0	33197	32932	36836	
2950	0	33412	32869	36840	
2951	0	33408	32848	36861	
2952	0	33120	32878	36877	
2953	0	33108	32935	36893	
2954	0	32890	32816	36871	
2955	0	32832	32872	36881	
2956	0	32900	32949	36900	
2957	0	32784	32924	36933	
2958	0	32556	32818	36937	
2959	0	32464	32904	36929	
2960	0	32480	32668	36941	
2961	0	32497	32704	36922	
2962	0	32032	32822	36916	
2963	0	32057	32813	36904	
2964	0	32564	32684	36895	
2965	0	32834	32693	36850	
2966	0	32852	32756	36821	
2967	0	32650	32836	36830	
2968	0	32588	32900	36824	
2969	0	32764	32956	36812	
2970	0	32932	32996	36800	
2971	0	33052	32684	36788	
2972	0	33120	32838	36743	
2973	0	33056	32796	36696	
2974	0	33036	32852	36694	
2975	0	33084	32867	36693	
2976	0	33120	33232	36668	
2977	0	32976	32929	36634	
2978	0	32896	32718	36608	
2979	0	32720	33016	36588	
2980	0	32456	32976	36586	
2981	0	32472	32887	36560	
2982	0	32684	32860	36567	
2983	0	32540	32605	36542	
2984	0	32476	32657	36540	
2985	0	32560	32507	36532	
2986	0	32628	32662	36532	
2987	0	32897	32718	36538	
2988	0	33012	32737	36537	
2989	0	33204	33024	36532	
2990	0	33228	32864	36527	
2991	0	32908	32817	36538	
2992	0	32896	32912	36564	
2993	0	33160	32986	36576	
2994	0	33237	33080	36594	
2995	0	33088	32878	36604	
2996	0	32924	32700	36629	
2997	0	32606	32892	36660	
2998	0	32622	32869	36689	
2999	0	32444	32884	36701	
3000	0	32360	32668	36732	
3001	0	32356	32626	36774	
3002	0	32360	32792	36817	
3003	0	32452	32844	36868	
3004	0	32524	32861	36904	
3005	0	32616	32868	36928	
3006	0	32656	32997	36944	
3007	0	32924	32904	36972	
3008	0	32930	32864	36996	
3009	0	33028	32868	37030	
3010	0	33204	32797	37028	
3011	0	33135	32888	37041	
3012	0	33148	33112	37053	
3013	0	33072	32864	37052	
3014	0	33112	32738	37044	
3015	0	32844	33000	37044	
3016	0	32788	32857	37061	
3017	0	32724	32813	37064	
3018	0	32704	32772	37068	
3019	0	32897	32568	37064	
3020	0	32588	32796	37037	
3021	0	32752	32992	37032	
3022	0	32344	32936	37036	
3023	0	32220	32869	37024	
3024	0	32420	32692	37008	
3025	0	32324	32657	36984	
3026	0	32720	32477	36985	
3027	0	32796	32247	36944	
3028	0	32949	32549	36921	
3029	0	33040	32528	36909	
3030	0	33166	32580	36866	
3031	0	33196	32610	36863	
3032	0	33156	32652	36862	
3033	0	33074	32868	36857	
3034	0	33199	32996	36858	
3035	0	33020	33180	36842	
3036	0	32668	33340	36844	
3037	0	32412	33242	36820	
3038	0	32200	33218	36832	
3039	0	32368	33060	36828	
3040	0	32604	32700	36856	
3041	0	33200	32342	36852	
3042	0	33264	32466	36837	
3043	0	33004	32502	36831	
3044	0	32760	32668	36845	
3045	0	32560	32612	36856	
3046	0	32572	32640	36857	
3047	0	32424	32747	36866	
3048	0	32520	32868	36884	
3049	0	32888	33076	36878	
3050	0	32956	33071	36884	
3051	0	32912	32924	36896	
3052	0	33076	33089	36916	
3053	0	33196	33012	36932	
3054	0	33060	32866	36932	
3055	0	33044	32802	36940	
3056	0	32820	32869	36972	
3057	0	32720	32836	36975	
3058	0	32770	32796	36974	
3059	0	32636	32846	36965	
3060	0	32424	32583	36980	
3061	0	32404	32600	36957	
3062	0	32364	32664	36968	
3063	0	32380	32556	36992	
3064	0	32432	32452	36972	
3065	0	32476	33012	36980	
3066	0	32642	32888	36981	
3067	0	33064	32646	36968	
3068	0	33164	32935	36976	
3069	0	32896	32906	36956	
3070	0	32720	33112	36994	
3071	0	33116	33004	36980	
3072	0	33318	33034	36964	
3073	0	33208	33102	36928	
3074	0	33240	32864	36917	
3075	0	32924	32792	36888	
3076	0	32796	32774	36884	
3077	0	32840	32813	36868	
3078	0	32708	32758	36834	
3079	0	32416	32693	36826	
3080	0	32472	32762	36790	
3081	0	32232	32692	36744	
3082	0	32384	32708	36709	
3083	0	32490	32824	36680	
3084	0	32528	32936	36679	
3085	0	32516	32864	36677	
3086	0	32656	32849	36665	
3087	0	32993	32936	36644	
3088	0	33172	32768	36653	
3089	0	33160	32840	36646	
3090	0	32876	32900	36649	
3091	0	33132	32774	36633	
3092	0	33309	32746	36628	
3093	0	33116	32940	36622	
3094	0	33032	32745	36640	
3095	0	33157	32901	36660	
3096	0	33029	32956	36624	
3097	0	32712	32904	36592	
3098	0	32604	32865	36580	
3099	0	32300	32924	36568	
3100	0	32100	32956	36561	
3101	0	32232	32728	36520	
3102	0	32393	32671	36504	
3103	0	32556	32647	36484	
3104	0	32680	32812	36452	
3105	0	32548	32874	36461	
3106	0	32576	32896	36484	
3107	0	32834	32824	36492	
3108	0	33057	32896	36496	
3109	0	33293	33052	36488	
3110	0	33481	33100	36529	
3111	0	33372	32645	36542	
3112	0	33240	32506	36584	
3113	0	33104	32679	36620	
3114	0	33204	32834	36661	
3115	0	32908	32957	36708	
3116	0	32800	33020	36748	
3117	0	32636	32842	36788	
3118	0	32492	32796	36837	
3119	0	32120	32940	36884	
3120	0	32288	32788	36895	
3121	0	32442	32760	36904	
3122	0	32452	32814	36925	
3123	0	32484	32788	36933	
3124	0	32452	32508	36964	
3125	0	32632	32620	36984	
3126	0	32696	32704	37000	
3127	0	32836	32689	36996	
3128	0	32928	32856	37016	
3129	0	32805	32954	37032	
3130	0	32828	32830	37052	
3131	0	33144	32840	37064	
3132	0	33416	32855	37065	
3133	0	33428	32896	37100	
3134	0	33148	32945	37121	
3135	0	32696	32910	37108	
3136	0	32484	33046	37118	
3137	0	32634	33008	37112	
3138	0	32792	32928	37126	
3139	0	32868	33056	37135	
3140	0	32868	32777	37113	
3141	0	32708	32872	37103	
3142	0	32372	32993	37088	
3143	0	32148	32977	37078	
3144	0	32404	32903	37065	
3145	0	32468	32475	37065	
3146	0	32666	32490	37028	
3147	0	32929	32516	37008	
3148	0	33060	32703	36976	
3149	0	33112	32686	36952	
3150	0	33140	32764	36926	
3151	0	33224	32753	36936	
3152	0	33400	32580	36903	
3153	0	33272	32679	36862	
3154	0	33124	32864	36836	
3155	0	32964	32912	36818	
3156	0	32764	33156	36800	
3157	0	32352	32814	36788	
3158	0	32276	32996	36759	
3159	0	32072	33152	36752	
3160	0	31920	32977	36720	
3161	0	32380	33006	36709	
3162	0	32572	33044	36709	
3163	0	33340	32904	36676	
3164	0	33346	32428	36682	
3165	0	33264	32728	36705	
3166	0	33204	32744	36696	
3167	0	32512	32712	36692	
3168	0	31232	32912	36680	
3169	0	32036	33120	36696	
3170	0	33181	32928	36693	
3171	0	33460	32713	36692	
3172	0	33368	32760	36702	
3173	0	33284	32586	36687	
3174	0	32957	32568	36708	
3175	0	32832	32548	36724	
3176	0	33016	32799	36721	
3177	0	32864	32648	36757	
3178	0	32532	32760	36771	
3179	0	32741	33039	36760	
3180	0	32769	32988	36792	
3181	0	32332	32620	36790	
3182	0	32625	32709	36781	
3183	0	33072	32668	36797	
3184	0	32796	32756	36806	
3185	0	32472	32764	36812	
3186	0	32174	32718	36830	
3187	0	32630	33157	36840	
3188	0	32874	32672	36849	
3189	0	32968	32704	36841	
3190	0	33072	32844	36860	
3191	0	33124	32656	36871	
3192	0	33128	32838	36881	
3193	0	33068	32924	36888	
3194	0	33125	32905	36905	
3195	0	33157	33004	36936	
3196	0	32988	32970	36928	
3197	0	32770	32893	36948	
3198	0	32696	32701	36948	
3199	0	32548	32818	36956	
3200	0	32352	32720	36948	
3201	0	32274	32677	36964	
3202	0	32272	32853	36984	
3203	0	32388	32783	37001	
3204	0	32476	32716	36972	
3205	0	32564	32752	36965	
3206	0	32504	32681	36954	
3207	0	32708	32836	36940	
3208	0	32780	33037	36917	
3209	0	33036	33157	36900	
3210	0	33384	32704	36892	
3211	0	33201	32593	36871	
3212	0	33220	32585	36843	
3213	0	33348	32808	36808	
3214	0	33388	32828	36796	
3215	0	33244	32876	36800	
3216	0	33152	32984	36796	
3217	0	32796	32878	36807	
3218	0	32548	32743	36784	
3219	0	32084	32822	36758	
3220	0	32060	32928	36753	
3221	0	32256	32736	36773	
3222	0	32380	32852	36732	
3223	0	32500	32855	36746	
3224	0	32496	32845	36744	
3225	0	32673	32901	36736	
3226	0	32840	32870	36720	
3227	0	32880	32846	36728	
3228	0	33008	33133	36727	
3229	0	33148	32892	36725	
3230	0	32996	32504	36694	
3231	0	32880	32670	36691	
3232	0	33136	32796	36676	
3233	0	33424	32989	36652	
3234	0	33352	32911	36644	
3235	0	32696	32832	36605	
3236	0	32670	32695	36626	
3237	0	32520	32660	36615	
3238	0	32572	32925	36602	
3239	0	32512	32711	36612	
3240	0	32384	32656	36596	
3241	0	32433	32680	36604	
3242	0	32097	32797	36613	
3243	0	32040	32824	36614	
3244	0	32040	32840	36636	
3245	0	32232	32892	36653	
3246	0	33217	32912	36664	
3247	0	33956	32834	36660	
3248	0	33952	32544	36676	
3249	0	33488	32698	36700	
3250	0	33152	32764	36716	
3251	0	33002	32619	36710	
3252	0	33076	32721	36720	
3253	0	32992	32796	36752	
3254	0	32745	32996	36796	
3255	0	32564	33072	36832	
3256	0	32548	32916	36852	
3257	0	32676	32694	36872	
3258	0	32688	32800	36894	
3259	0	32624	32874	36940	
3260	0	32748	32844	36972	
3261	0	32696	32663	37000	
3262	0	32564	32577	37008	
3263	0	32436	32744	37004	
3264	0	32484	32805	36988	
3265	0	32252	32732	36988	
3266	0	32586	32949	37013	
3267	0	32980	32684	37022	
3268	0	32784	32801	37038	
3269	0	33121	33088	37072	
3270	0	33016	32956	37101	
3271	0	32688	32660	37116	
3272	0	33124	32876	37117	
3273	0	33221	33004	37104	
3274	0	33168	32966	37144	
3275	0	32892	32924	37172	
3276	0	32728	32921	37194	
3277	0	32664	32808	37217	
3278	0	32644	32725	37236	
3279	0	32824	32664	37255	
3280	0	32688	32892	37261	
3281	0	32408	32956	37244	
3282	0	32512	32924	37256	
3283	0	32654	32861	37260	
3284	0	32517	32788	37253	
3285	0	32644	32647	37242	
3286	0	32612	32629	37260	
3287	0	32812	32700	37260	
3288	0	33040	32645	37258	
3289	0	33122	32717	37255	
3290	0	33016	32591	37272	
3291	0	33184	32672	37252	
3292	0	33184	32820	37256	
3293	0	33188	32982	37245	
3294	0	33222	33028	37220	
3295	0	33000	32829	37206	
3296	0	32756	32728	37180	
3297	0	32649	33046	37146	
3298	0	32472	33045	37140	
3299	0	32224	33081	37108	
3300	0	32296	32934	37064	
3301	0	32232	32612	37030	
3302	0	32312	32524	36983	
3303	0	32584	32626	36957	
3304	0	32512	32828	36944	
3305	0	32748	32808	36904	
3306	0	32880	32855	36881	
3307	0	32980	32788	36868	
3308	0	33348	32878	36841	
3309	0	33364	32708	36807	
3310	0	33210	32868	36775	
3311	0	33068	32604	36744	
3312	0	32916	32672	36700	
3313	0	32844	32785	36692	
3314	0	32812	32964	36668	
3315	0	32798	33008	36677	
3316	0	32964	33055	36672	
3317	0	32788	32954	36660	
3318	0	32868	32909	36668	
3319	0	33046	32840	36660	
3320	0	32497	32924	36653	
3321	0	32008	32832	36644	
3322	0	32176	32933	36629	
3323	0	32448	32945	36628	
3324	0	32496	32696	36620	
3325	0	32405	32468	36593	
3326	0	32744	32424	36574	
3327	0	33056	32607	36556	
3328	0	33272	32576	36533	
3329	0	33258	33104	36536	
3330	0	33172	32988	36524	
3331	0	33120	33033	36524	
3332	0	32880	33008	36537	
3333	0	32852	33033	36536	
3334	0	32448	32860	36548	
3335	0	32382	32618	36544	
3336	0	32768	32564	36517	
3337	0	32760	32798	36524	
3338	0	32893	32846	36546	
3339	0	32832	33073	36556	
3340	0	33028	33092	36596	
3341	0	32440	32964	36628	
3342	0	32339	32856	36676	
3343	0	32532	32881	36704	
3344	0	32328	32624	36700	
3345	0	32404	32336	36696	
3346	0	32916	32321	36720	
3347	0	33140	32504	36744	
3348	0	33260	32792	36792	
3349	0	33377	33176	36809	
3350	0	33444	33121	36868	
3351	0	33332	32989	36902	
3352	0	33356	33102	36896	
3353	0	33192	33084	36884	
3354	0	32740	32760	36895	
3355	0	31860	32592	36916	
3356	0	31832	32808	36924	
3357	0	32696	32952	36984	
3358	0	32720	33014	37040	
3359	0	32509	32895	37080	
3360	0	32684	32828	37106	
3361	0	32680	32829	37124	
3362	0	32176	32672	37148	
3363	0	31624	32692	37157	
3364	0	31581	32732	37144	
3365	0	32088	33112	37148	
3366	0	32556	32629	37140	
3367	0	33160	32700	37120	
3368	0	33888	32844	37132	
3369	0	34636	33088	37120	
3370	0	34864	32784	37100	
3371	0	34704	32793	37092	
3372	0	34012	32769	37086	
3373	0	33056	32804	37080	
3374	0	32604	32864	37078	
3375	0	32332	33137	37056	
3376	0	32164	33033	37049	
3377	0	32240	33124	37064	
3378	0	32024	32836	37041	
3379	0	31692	32694	37013	
3380	0	32376	32500	37030	
3381	0	32204	32676	37012	
3382	0	32226	32622	37008	
3383	0	32246	32878	36984	
3384	0	32424	33053	36959	
3385	0	32514	32868	36929	
3386	0	32660	32908	36861	
3387	0	32840	32908	36852	
3388	0	33155	32775	36796	
3389	0	33097	32872	36772	
3390	0	33116	32631	36734	
3391	0	33068	32444	36684	
3392	0	33168	32548	36678	
3393	0	33490	32772	36624	
3394	0	33472	32772	36568	
3395	0	32833	33206	36540	
3396	0	32632	32736	36532	
3397	0	32500	33084	36516	
3398	0	32585	33084	36481	
3399	0	32560	32879	36456	
3400	0	32348	32814	36445	
3401	0	32536	32665	36422	
3402	0	32540	32832	36420	
3403	0	32516	32817	36416	
3404	0	32664	32903	36437	
3405	0	32840	32869	36455	
3406	0	32940	32943	36464	
3407	0	32966	32913	36449	
3408	0	33065	32768	36432	
3409	0	33040	32900	36424	
3410	0	32884	32950	36416	
3411	0	32934	32856	36428	
3412	0	32887	32801	36420	
3413	0	33001	32843	36406	
3414	0	33072	32820	36432	
3415	0	32960	32696	36456	
3416	0	33002	32818	36460	
3417	0	32889	32848	36461	
3418	0	32808	32880	36479	
3419	0	32496	33040	36522	
3420	0	32410	33104	36556	
3421	0	32197	32743	36549	
3422	0	32345	32857	36548	
3423	0	32301	32769	36564	
3424	0	32428	32645	36582	
3425	0	32496	32796	36609	
3426	0	32705	32744	36637	
3427	0	32868	32799	36642	
3428	0	33052	32924	36660	
3429	0	33152	33098	36676	
3430	0	33080	32924	36696	
3431	0	32892	32588	36766	
3432	0	33156	32725	36808	
3433	0	33320	32879	36853	
3434	0	33468	32880	36871	
3435	0	33152	32890	36924	
3436	0	32968	32848	36953	
3437	0	32780	32688	36972	
3438	0	32340	32655	37030	
3439	0	32317	32744	37052	
3440	0	32328	32828	37074	
3441	0	32429	32905	37100	
3442	0	32604	32908	37120	
3443	0	32676	32808	37127	
3444	0	32580	32980	37140	
3445	0	32488	32912	37156	
3446	0	32464	32596	37160	
3447	0	32604	32816	37156	
3448	0	32740	32746	37144	
3449	0	32692	32833	37176	
3450	0	32892	32876	37176	
3451	0	33369	32652	37184	
3452	0	33529	32644	37173	
3453	0	33652	32847	37173	
3454	0	33592	32871	37184	
3455	0	33286	32856	37204	
3456	0	32944	32936	37176	
3457	0	32472	32950	37157	
3458	0	32292	32774	37148	
3459	0	32341	32722	37152	
3460	0	32388	32753	37126	
3461	0	32461	32852	37100	
3462	0	32284	32861	37086	
3463	0	32388	33030	37060	
3464	0	32974	32771	37028	
3465	0	32928	32793	36999	
3466	0	32460	32756	36964	
3467	0	32380	32805	36936	
3468	0	32646	32976	36896	
3469	0	32964	32730	36862	
3470	0	33044	32647	36820	
3471	0	33085	32540	36788	
3472	0	33121	32756	36772	
3473	0	33204	32616	36756	
3474	0	33294	32920	36720	
3475	0	33100	32964	36696	
3476	0	32956	32993	36674	
3477	0	32597	32972	36668	
3478	0	32504	33108	36656	
3479	0	32608	33159	36640	
3480	0	32508	33039	36644	
3481	0	32504	32972	36628	
3482	0	32848	32826	36592	
3483	0	32732	32984	36594	
3484	0	32432	32849	36598	
3485	0	31952	32826	36609	
3486	0	32468	33056	36592	
3487	0	32879	33012	36616	
3488	0	32933	32848	36628	
3489	0	33136	32745	36636	
3490	0	33324	32750	36624	
3491	0	33184	32372	36620	
3492	0	33160	32098	36606	
3493	0	33176	32304	36612	
3494	0	33016	32693	36602	
3495	0	32744	33030	36592	
3496	0	32640	33094	36596	
3497	0	32504	33036	36605	
3498	0	32460	33034	36624	
3499	0	32776	33018	36658	
3500	0	32836	33060	36681	
3501	0	32620	32848	36720	
3502	0	32573	32940	36732	
3503	0	32453	32876	36752	
3504	0	32392	32792	36804	
3505	0	32436	32744	36817	
3506	0	32714	32713	36829	
3507	0	32897	32845	36836	
3508	0	32918	32756	36814	
3509	0	32868	32901	36836	
3510	0	32925	32954	36840	
3511	0	33164	32761	36836	
3512	0	33060	32821	36832	
3513	0	32900	32896	36820	
3514	0	32984	33080	36844	
3515	0	33160	33117	36868	
3516	0	32900	33052	36871	
3517	0	32701	33200	36886	
3518	0	32960	33068	36905	
3519	0	33000	32896	36908	
3520	0	32817	32698	36908	
3521	0	32625	32400	36917	
3522	0	32588	32471	36932	
3523	0	32440	32656	36937	
3524	0	32467	32676	36941	
3525	0	32444	32672	36932	
3526	0	32443	32685	36936	
3527	0	32628	32693	36908	
3528	0	32812	32900	36893	
3529	0	33068	33213	36900	
3530	0	33249	32640	36884	
3531	0	33236	32816	36871	
3532	0	33116	32912	36868	
3533	0	32856	32786	36847	
3534	0	32748	32812	36833	
3535	0	32812	32822	36838	
3536	0	32812	32920	36820	
3537	0	32532	32854	36832	
3538	0	32418	32981	36838	
3539	0	32596	32996	36844	
3540	0	32806	32904	36862	
3541	0	32636	32853	36882	
3542	0	32944	32724	36877	
3543	0	32790	32641	36864	
3544	0	32456	32641	36838	
3545	0	32408	32661	36836	
3546	0	32480	32748	36818	
3547	0	32584	32857	36821	
3548	0	32916	32836	36808	
3549	0	33064	32744	36818	
3550	0	33240	32964	36810	
3551	0	33316	32919	36820	
3552	0	33190	32992	36790	
3553	0	33092	32980	36796	
3554	0	33010	32879	36776	
3555	0	33196	32736	36749	
3556	0	33148	32808	36726	
3557	0	32892	32772	36747	
3558	0	32636	32813	36740	
3559	0	32424	32796	36736	
3560	0	32240	32756	36756	
3561	0	32208	32728	36748	
3562	0	32121	32720	36743	
3563	0	32240	32685	36736	
3564	0	32408	32548	36760	
3565	0	32600	32756	36756	
3566	0	32962	32834	36743	
3567	0	32904	33030	36744	
3568	0	32896	32769	36748	
3569	0	32985	33028	36772	
3570	0	33172	33174	36772	
3571	0	32964	32992	36772	
3572	0	32684	32968	36796	
3573	0	32808	32763	36829	
3574	0	32960	32781	36848	
3575	0	33212	32948	36868	
3576	0	33772	32865	36852	
3577	0	33876	32816	36868	
3578	0	33055	32792	36896	
3579	0	32332	32878	36919	
3580	0	32144	32902	36916	
3581	0	32096	32652	36916	
3582	0	32144	32632	36932	
3583	0	32165	32806	36945	
3584	0	32228	32798	36961	
3585	0	32478	32804	36941	
3586	0	32716	32804	36910	
3587	0	32840	32868	36901	
3588	0	33024	32758	36929	
3589	0	33172	32948	36918	
3590	0	33277	32932	36924	
3591	0	33308	33000	36925	
3592	0	33204	33376	36927	
3593	0	33132	32500	36922	
3594	0	32972	32372	36920	
3595	0	32924	32644	36929	
3596	0	32746	32887	36932	
3597	0	32556	33024	36924	
3598	0	32452	32849	36932	
3599	0	32453	33072	36916	
3600	0	32465	32945	36905	
3601	0	32428	32638	36900	
3602	0	32436	32748	36886	
3603	0	32561	32714	36862	
3604	0	32444	32796	36824	
3605	0	32624	32838	36797	
3606	0	32608	32770	36772	
3607	0	32894	32925	36765	
3608	0	33010	32902	36759	
3609	0	33040	32984	36769	
3610	0	33044	32949	36780	
3611	0	33112	32740	36774	
3612	0	33168	32864	36748	
3613	0	33176	32889	36765	
3614	0	33266	33068	36780	
3615	0	33096	33148	36784	
3616	0	33108	33183	36797	
3617	0	32900	33137	36808	
3618	0	32612	32918	36805	
3619	0	32536	32764	36826	
3620	0	32320	32597	36820	
3621	0	32416	32412	36832	
3622	0	32416	32596	36828	
3623	0	32224	32716	36832	
3624	0	32264	32718	36813	
3625	0	32556	32706	36812	
3626	0	32832	32652	36806	
3627	0	32960	32836	36801	
3628	0	33217	32740	36794	
3629	0	33352	32736	36788	
3630	0	33262	33020	36777	
3631	0	33320	33062	36794	
3632	0	33172	32600	36792	
3633	0	33024	32826	36808	
3634	0	32856	32932	36821	
3635	0	32825	33049	36845	
3636	0	32685	33028	36840	
3637	0	32552	32847	36862	
3638	0	32856	32804	36888	
3639	0	32697	32782	36860	
3640	0	32528	32852	36868	
3641	0	32420	32744	36864	
3642	0	32400	32731	36870	
3643	0	32456	32748	36880	
3644	0	32532	32762	36856	
3645	0	32472	32885	36886	
3646	0	32624	32902	36856	
3647	0	32672	32736	36871	
3648	0	32612	32844	36880	
3649	0	32796	33124	36888	
3650	0	32856	33045	36900	
3651	0	32997	32600	36897	
3652	0	33176	32476	36876	
3653	0	33226	32641	36878	
3654	0	33324	32524	36900	
3655	0	33366	32564	36908	
3656	0	33316	32864	36902	
3657	0	33196	32685	36884	
3658	0	32944	32903	36908	
3659	0	32484	32884	36924	
3660	0	32128	32878	36950	
3661	0	32133	32746	36948	
3662	0	32064	32724	36958	
3663	0	32092	32600	36956	
3664	0	32348	32743	36932	
3665	0	32600	32793	36904	
3666	0	32582	32809	36924	
3667	0	32306	32757	36936	
3668	0	32472	32708	36936	
3669	0	33057	33020	36924	
3670	0	33312	33172	36908	
3671	0	33836	33020	36905	
3672	0	34160	32969	36921	
3673	0	33704	32988	36932	
3674	0	33208	33164	36972	
3675	0	32968	32932	36966	
3676	0	32792	32930	36948	
3677	0	32576	32936	36966	
3678	0	32420	32780	36969	
3679	0	32612	32741	36988	
3680	0	32608	32577	36988	
3681	0	32300	32448	37000	
3682	0	32256	32528	36990	
3683	0	32244	32628	37001	
3684	0	32132	32825	37014	
3685	0	32384	32879	37004	
3686	0	32700	32879	37018	
3687	0	32954	32837	37032	
3688	0	33060	32932	37012	
3689	0	32940	32917	36996	
3690	0	33272	33128	36998	
3691	0	33078	33004	36992	
3692	0	33068	32960	36996	
3693	0	33184	32994	37004	
3694	0	33064	33172	36993	
3695	0	32916	33096	37002	
3696	0	32844	32756	37016	
3697	0	32804	32536	36996	
3698	0	32768	32852	37030	
3699	0	32628	33129	37044	
3700	0	32596	32960	37025	
3701	0	32492	32620	37016	
3702	0	32358	32552	37008	
3703	0	32092	32536	36983	
3704	0	32260	32724	36960	
3705	0	32476	32669	36942	
3706	0	32688	32703	36919	
3707	0	32954	32908	36904	
3708	0	33064	33126	36904	
3709	0	33308	33066	36892	
3710	0	33228	32966	36885	
3711	0	33340	32785	36901	
3712	0	33424	32700	36896	
3713	0	33112	32892	36887	
3714	0	32908	32880	36852	
3715	0	32913	33018	36841	
3716	0	32788	33037	36841	
3717	0	32780	33102	36848	
3718	0	32696	33029	36866	
3719	0	32784	33048	36876	
3720	0	32684	32974	36884	
3721	0	32476	32864	36892	
3722	0	32500	32784	36896	
3723	0	32552	32772	36892	
3724	0	32488	32792	36876	
3725	0	32441	32671	36877	
3726	0	31957	32816	36844	
3727	0	32416	32816	36836	
3728	0	32768	32944	36837	
3729	0	33096	32964	36836	
3730	0	33156	32712	36844	
3731	0	33064	32500	36860	
3732	0	33125	32618	36848	
3733	0	33294	32831	36863	
3734	0	33352	33071	36880	
3735	0	33350	32665	36889	
3736	0	33083	32682	36902	
3737	0	32805	32944	36932	
3738	0	32581	33020	36944	
3739	0	32420	33113	36916	
3740	0	32385	33088	36910	
3741	0	32320	32938	36908	
3742	0	32436	32757	36910	
3743	0	32624	32677	36912	
3744	0	32548	32620	36936	
3745	0	32636	32532	36928	
3746	0	32609	32692	36936	
3747	0	32544	32580	36916	
3748	0	32604	32585	36896	
3749	0	32840	32828	36905	
3750	0	32818	32908	36938	
3751	0	33184	33052	36938	
3752	0	33516	33028	36900	
3753	0	33969	32828	36920	
3754	0	33700	32980	36940	
3755	0	33180	32968	36936	
3756	0	32764	32880	36908	
3757	0	32460	33004	36921	
3758	0	32232	33024	36912	
3759	0	32033	33010	36900	
3760	0	32013	32972	36881	
3761	0	32052	32836	36848	
3762	0	32256	32729	36836	
3763	0	32418	32612	36852	
3764	0	32708	32631	36820	
3765	0	33100	32677	36800	
3766	0	33244	32788	36776	
3767	0	32600	32736	36776	
3768	0	32720	32756	36768	
3769	0	33093	32876	36720	
3770	0	33092	32916	36729	
3771	0	33224	32625	36714	
3772	0	33492	32898	36708	
3773	0	33524	32732	36704	
3774	0	33232	32819	36718	
3775	0	32852	32968	36728	
3776	0	32790	33020	36753	
3777	0	32676	33060	36772	
3778	0	32424	32944	36804	
3779	0	32400	32903	36821	
3780	0	32436	33202	36838	
3781	0	32372	33044	36844	
3782	0	32577	32812	36833	
3783	0	32400	32661	36812	
3784	0	32456	32818	36805	
3785	0	32576	32759	36782	
3786	0	32694	32605	36780	
3787	0	32948	32852	36764	
3788	0	33186	32700	36742	
3789	0	33200	32920	36744	
3790	0	32914	33041	36728	
3791	0	32776	32705	36668	
3792	0	32840	32946	36672	
3793	0	32844	32804	36648	
3794	0	32952	32876	36616	
3795	0	32968	33082	36612	
3796	0	33005	32708	36601	
3797	0	32936	32796	36564	
3798	0	32737	32692	36552	
3799	0	32481	32859	36545	
3800	0	32528	32904	36541	
3801	0	32560	32774	36525	
3802	0	32376	32684	36534	
3803	0	32405	32672	36529	
3804	0	32612	32596	36532	
3805	0	32556	32720	36520	
3806	0	32796	32772	36548	
3807	0	32904	32732	36574	
3808	0	32986	32879	36592	
3809	0	33040	33078	36609	
3810	0	33052	33181	36652	
3811	0	32998	33052	36688	
3812	0	33100	33076	36692	
3813	0	33132	33038	36714	
3814	0	33301	32795	36753	
3815	0	32728	32764	36743	
3816	0	32612	32904	36733	
3817	0	32844	32202	36740	
3818	0	32772	32248	36727	
3819	0	32897	32918	36712	
3820	0	32980	32964	36718	
3821	0	32344	32936	36706	
3822	0	32212	32804	36693	
3823	0	32375	32736	36692	
3824	0	32400	32748	36660	
3825	0	32590	32782	36652	
3826	0	32637	32909	36644	
3827	0	32668	32772	36653	
3828	0	32812	32937	36668	
3829	0	32993	33000	36696	
3830	0	32860	33024	36721	
3831	0	32881	32722	36713	
3832	0	33076	32768	36749	
3833	0	33175	32870	36750	
3834	0	33266	32984	36780	
3835	0	33252	32948	36808	
3836	0	33151	33047	36844	
3837	0	32872	32929	36860	
3838	0	32812	32768	36892	
3839	0	32556	32782	36936	
3840	0	32492	32813	36948	
3841	0	32312	32778	36974	
3842	0	32320	32633	36967	
3843	0	32797	32753	36964	
3844	0	32664	32828	36996	
3845	0	32396	32749	36974	
3846	0	32301	32872	36974	
3847	0	32775	33020	36980	
3848	0	32978	33013	36984	
3849	0	32968	33048	36973	
3850	0	32872	32882	36978	
3851	0	32852	32540	37004	
3852	0	33010	32692	36986	
3853	0	33156	32756	36985	
3854	0	33229	32770	36992	
3855	0	33105	32856	37004	
3856	0	32928	32946	37004	
3857	0	32764	33024	37005	
3858	0	32713	33169	37040	
3859	0	32612	32639	37049	
3860	0	32494	32844	37053	
3861	0	32493	32694	37065	
3862	0	32560	32692	37062	
3863	0	32464	32676	37058	
3864	0	32416	32604	37040	
3865	0	32357	32864	37044	
3866	0	32360	33084	37030	
3867	0	32336	33172	37003	
3868	0	32356	32764	36980	
3869	0	32714	32934	36974	
3870	0	33048	33213	36958	
3871	0	33404	32854	36944	
3872	0	33504	32740	36909	
3873	0	33560	32669	36900	
3874	0	33716	32879	36901	
3875	0	33285	32669	36871	
3876	0	33144	32732	36841	
3877	0	32908	32777	36857	
3878	0	32604	32454	36844	
3879	0	32512	32519	36837	
3880	0	32432	32584	36850	
3881	0	32356	32677	36853	
3882	0	32284	32764	36860	
3883	0	32252	32888	36872	
3884	0	32472	32980	36884	
3885	0	32688	32962	36878	
3886	0	32692	32892	36876	
3887	0	32796	32820	36888	
3888	0	32616	32708	36900	
3889	0	33260	33212	36896	
3890	0	33552	32868	36884	
3891	0	33380	32508	36908	
3892	0	33208	32848	36889	
3893	0	32878	32998	36868	
3894	0	32721	33032	36860	
3895	0	32808	32948	36864	
3896	0	32878	32910	36881	
3897	0	32904	33064	36871	
3898	0	32622	32984	36884	
3899	0	32512	32934	36905	
3900	0	32360	32980	36908	
3901	0	32400	32848	36892	
3902	0	32432	32712	36885	
3903	0	32488	32717	36892	
3904	0	32549	32777	36886	
3905	0	32712	32816	36885	
3906	0	32796	32766	36884	
3907	0	32758	32764	36871	
3908	0	32324	32666	36871	
3909	0	32068	33232	36872	
3910	0	32094	32872	36900	
3911	0	32548	32942	36885	
3912	0	32744	32783	36892	
3913	0	32816	32896	36878	
3914	0	33668	32903	36884	
3915	0	34376	32996	36842	
3916	0	34744	32781	36871	
3917	0	34717	32843	36860	
3918	0	34188	33001	36832	
3919	0	33284	32956	36808	
3920	0	32268	32788	36820	
3921	0	31898	32742	36812	
3922	0	31853	32673	36783	
3923	0	31920	32692	36776	
3924	0	31540	32733	36764	
3925	0	31990	32832	36761	
3926	0	32785	32743	36759	
3927	0	32614	32721	36764	
3928	0	32801	32648	36748	
3929	0	32760	32853	36764	
3930	0	32648	32961	36760	
3931	0	32744	32884	36740	
3932	0	32720	32844	36742	
3933	0	32768	32877	36724	
3934	0	32924	32902	36724	
3935	0	32976	32974	36728	
3936	0	32970	32982	36712	
3937	0	33229	32965	36721	
3938	0	33092	32808	36708	
3939	0	32972	32676	36719	
3940	0	32877	32761	36710	
3941	0	32612	32862	36722	
3942	0	32500	32824	36729	
3943	0	32488	32820	36724	
3944	0	32372	32775	36744	
3945	0	32584	32775	36730	
3946	0	32628	32752	36743	
3947	0	32696	32897	36768	
3948	0	32716	32820	36764	
3949	0	32680	32802	36783	
3950	0	32296	32957	36814	
3951	0	31952	32845	36792	
3952	0	32160	32868	36805	
3953	0	32509	32724	36820	
3954	0	32952	32696	36844	
3955	0	33708	32506	36852	
3956	0	34333	32606	36860	
3957	0	34836	32752	36862	
3958	0	34647	33006	36877	
3959	0	33848	32988	36884	
3960	0	32448	33001	36876	
3961	0	31804	32800	36884	
3962	0	31932	32720	36896	
3963	0	32050	32712	36878	
3964	0	32053	32602	36871	
3965	0	31780	32804	36853	
3966	0	32372	32782	36807	
3967	0	32632	32689	36815	
3968	0	32608	32768	36813	
3969	0	32752	32940	36820	
3970	0	33064	32989	36826	
3971	0	33252	32997	36812	
3972	0	33198	32948	36836	
3973	0	33193	32952	36868	
3974	0	33396	32968	36884	
3975	0	33156	32909	36884	
3976	0	32788	32884	36918	
3977	0	32836	32713	36932	
3978	0	32468	32700	36948	
3979	0	32392	32876	36928	
3980	0	32472	33182	36936	
3981	0	32692	33113	36933	
3982	0	32460	32596	36941	
3983	0	32432	32572	36964	
3984	0	32677	32703	36976	
3985	0	32532	32769	36968	
3986	0	32572	32748	36977	
3987	0	32768	32764	37002	
3988	0	32906	32655	36997	
3989	0	32964	32832	36986	
3990	0	32961	33047	37004	
3991	0	33104	32890	37028	
3992	0	32956	32848	37022	
3993	0	32956	32948	37015	
3994	0	33102	33060	37024	
3995	0	33332	32788	37008	
3996	0	33292	33055	36988	
3997	0	32652	32902	36984	
3998	0	32424	32640	36942	
3999	0	32302	32788	36932	
4000	0	32304	32753	36930	
4001	0	32328	32720	36927	
4002	0	32460	32932	36900	
4003	0	32681	32812	36867	
4004	0	32298	32772	36836	
4005	0	32500	32784	36836	
4006	0	32949	32744	36829	
4007	0	33108	32701	36792	
4008	0	33057	32813	36780	
4009	0	33440	32824	36776	
4010	0	33264	32932	36777	
4011	0	33164	32831	36756	
4012	0	33072	32878	36724	
4013	0	32984	32795	36733	
4014	0	32900	32912	36740	
4015	0	32900	32902	36716	
4016	0	32957	32764	36704	
4017	0	33032	32956	36705	
4018	0	32904	32841	36716	
4019	0	32752	32775	36716	
4020	0	32472	32904	36708	
4021	0	32072	32753	36706	
4022	0	31904	32700	36692	
4023	0	32229	32820	36656	
4024	0	32500	32745	36612	
4025	0	32637	32786	36585	
4026	0	32784	32692	36580	
4027	0	32696	32804	36564	
4028	0	32748	32852	36550	
4029	0	32980	32997	36516	
4030	0	32904	33148	36510	
4031	0	32832	32985	36504	
4032	0	33016	32668	36500	
4033	0	33428	32748	36517	
4034	0	33716	32900	36521	
4035	0	33504	32945	36560	
4036	0	33041	33080	36580	
4037	0	32636	32840	36596	
4038	0	32413	32690	36628	
4039	0	32488	32796	36652	
4040	0	32297	32912	36688	
4041	0	32404	32845	36710	
4042	0	32410	32856	36728	
4043	0	32654	32895	36768	
4044	0	32740	32856	36784	
4045	0	32716	32732	36804	
4046	0	32620	33046	36836	
4047	0	32716	32620	36836	
4048	0	32749	32662	36848	
4049	0	33106	32657	36884	
4050	0	33394	32689	36896	
4051	0	33292	32618	36896	
4052	0	33256	32806	36902	
4053	0	33140	32992	36952	
4054	0	32936	32924	36964	
4055	0	32940	33153	36973	
4056	0	32909	32983	36996	
4057	0	32728	32952	37015	
4058	0	32532	32961	37026	
4059	0	32468	32960	37049	
4060	0	32321	32986	37060	
4061	0	32374	32820	37072	
4062	0	32424	32950	37065	
4063	0	32448	32696	37084	
4064	0	32414	32686	37093	
4065	0	32560	32816	37092	
4066	0	32528	32540	37089	
4067	0	32584	32668	37074	
4068	0	32640	32774	37056	
4069	0	32804	33000	37064	
4070	0	33348	32870	37048	
4071	0	33632	32877	37064	
4072	0	33489	32788	37048	
4073	0	33456	32796	37048	
4074	0	33129	32872	37052	
4075	0	33112	32944	37036	
4076	0	33048	32968	37052	
4077	0	32988	33069	37062	
4078	0	32484	33040	37066	
4079	0	32378	33108	37028	
4080	0	32228	32992	37006	
4081	0	32140	32868	36975	
4082	0	32068	32620	36964	
4083	0	32252	32481	36964	
4084	0	32433	32625	36949	
4085	0	32613	32718	36927	
4086	0	32754	32598	36932	
4087	0	32908	32752	36896	
4088	0	32617	32629	36880	
4089	0	32816	32868	36856	
4090	0	33320	32956	36844	
4091	0	33221	32812	36836	
4092	0	33108	32697	36832	
4093	0	33084	32684	36828	
4094	0	33104	32844	36836	
4095	0	33001	32924	36805	
4096	0	33048	33031	36826	
4097	0	33060	32990	36838	
4098	0	32652	32878	36830	
4099	0	32728	32962	36861	
4100	0	32656	33040	36865	
4101	0	32136	32916	36860	
4102	0	32156	32867	36856	
4103	0	32388	32853	36871	
4104	0	32432	33061	36856	
4105	0	32321	33116	36879	
4106	0	32477	33060	36856	
4107	0	32844	33108	36857	
4108	0	33068	32680	36862	
4109	0	33584	32600	36844	
4110	0	33969	32432	36828	
4111	0	33380	32270	36824	
4112	0	33087	32617	36812	
4113	0	32956	32660	36792	
4114	0	32924	33060	36768	
4115	0	32868	32509	36776	
4116	0	32810	32788	36760	
4117	0	32656	32626	36746	
4118	0	32661	32663	36769	
4119	0	32592	32932	36748	
4120	0	32473	33020	36735	
4121	0	32474	32964	36744	
4122	0	32456	32903	36736	
4123	0	32332	32948	36738	
4124	0	32496	32676	36761	
4125	0	32688	32680	36796	
4126	0	32548	32807	36828	
4127	0	32726	32872	36856	
4128	0	32768	32786	36884	
4129	0	33060	32733	36913	
4130	0	32982	32794	36940	
4131	0	32886	33034	36998	
4132	0	33008	33056	36988	
4133	0	33180	32943	36988	
4134	0	33188	32816	37004	
4135	0	33320	32721	37005	
4136	0	33028	32900	37016	
4137	0	32616	32943	37016	
4138	0	32093	32868	37008	
4139	0	32080	32828	37008	
4140	0	32640	32932	36992	
4141	0	32704	32924	36965	
4142	0	32952	32702	36948	
4143	0	33020	32632	36924	
4144	0	32978	32652	36916	
4145	0	32633	32671	36892	
4146	0	32620	32902	36861	
4147	0	32572	32794	36828	
4148	0	32628	32664	36816	
4149	0	32893	32734	36810	
4150	0	33026	32912	36788	
4151	0	32948	32900	36788	
4152	0	32966	32888	36789	
4153	0	33200	32780	36781	
4154	0	33166	32869	36768	
4155	0	33128	32820	36768	
4156	0	32933	32896	36780	
4157	0	32820	33088	36788	
4158	0	32652	33028	36790	
4159	0	32620	32861	36807	
4160	0	32550	32932	36834	
4161	0	32508	32784	36800	
4162	0	32440	32664	36772	
4163	0	32392	32892	36776	
4164	0	32192	32750	36776	
4165	0	32396	32620	36764	
4166	0	32644	32908	36736	
4167	0	32860	32999	36714	
4168	0	33040	32960	36696	
4169	0	32984	33104	36680	
4170	0	32876	32997	36684	
4171	0	32996	32716	36664	
4172	0	33157	32580	36652	
4173	0	33008	32728	36626	
4174	0	32892	32576	36645	
4175	0	33052	32942	36668	
4176	0	33065	33025	36669	
4177	0	33028	33066	36636	
4178	0	32678	32888	36644	
4179	0	32724	32656	36660	
4180	0	32680	32636	36676	
4181	0	32588	32672	36685	
4182	0	32440	32646	36696	
4183	0	32277	32461	36705	
4184	0	31770	32696	36737	
4185	0	31472	32799	36740	
4186	0	31884	32847	36772	
4187	0	32236	32832	36776	
4188	0	32944	32744	36800	
4189	0	33685	32744	36800	
4190	0	34692	32988	36804	
4191	0	35032	33032	36828	
4192	0	34646	32892	36848	
4193	0	33788	32864	36852	
4194	0	32976	32892	36852	
4195	0	32506	32988	36876	
4196	0	32600	32864	36878	
4197	0	32786	32825	36868	
4198	0	32220	32688	36868	
4199	0	31758	32806	36863	
4200	0	32012	32984	36849	
4201	0	31814	32844	36840	
4202	0	31820	32679	36836	
4203	0	32256	32724	36804	
4204	0	32412	32960	36796	
4205	0	32608	33109	36804	
4206	0	33031	32544	36816	
4207	0	32996	32701	36816	
4208	0	32842	32820	36809	
4209	0	32936	32983	36824	
4210	0	33132	33133	36816	
4211	0	33248	32903	36808	
4212	0	33192	32724	36804	
4213	0	33160	32722	36829	
4214	0	33074	32960	36836	
4215	0	32908	32857	36860	
4216	0	33120	33085	36868	
4217	0	33082	32914	36881	
4218	0	32592	32858	36870	
4219	0	32541	32900	36901	
4220	0	32172	32836	36909	
4221	0	31921	32800	36934	
4222	0	32398	32820	36932	
4223	0	32622	32852	36922	
4224	0	32452	32785	36960	
4225	0	32764	32872	36956	
4226	0	32740	32980	36972	
4227	0	33072	32980	36968	
4228	0	33024	32858	36969	
4229	0	33109	32816	36956	
4230	0	33012	32716	36967	
4231	0	32665	32782	36982	
4232	0	32336	32860	36976	
4233	0	31964	32848	36999	
4234	0	32285	32908	36996	
4235	0	32854	32894	37001	
4236	0	33342	32981	37029	
4237	0	34080	32923	37028	
4238	0	34380	32788	37016	
4239	0	34174	32792	37016	
4240	0	33972	32816	37013	
4241	0	32940	32764	37018	
4242	0	31952	32879	37000	
4243	0	31584	32660	37004	
4244	0	31936	32589	36972	
4245	0	32268	32527	36957	
4246	0	32252	32649	36932	
4247	0	32028	32692	36928	
4248	0	32516	32728	36912	
4249	0	32720	32937	36904	
4250	0	32876	32908	36901	
4251	0	33472	32884	36901	
4252	0	33632	32808	36912	
4253	0	33358	32996	36905	
4254	0	33104	33029	36916	
4255	0	32948	33089	36960	
4256	0	32592	32988	36972	
4257	0	32431	32960	36990	
4258	0	32530	32774	36972	
4259	0	32488	32834	36976	
4260	0	32692	32820	36985	
4261	0	32522	32903	36984	
4262	0	32442	32822	37020	
4263	0	32407	32720	37024	
4264	0	32452	32956	37016	
4265	0	32496	32945	36998	
4266	0	32484	32708	36980	
4267	0	32720	32775	36981	
4268	0	32929	32868	36968	
4269	0	33436	32884	36948	
4270	0	33604	33004	36944	
4271	0	33268	33016	36924	
4272	0	33118	32908	36909	
4273	0	33124	32648	36876	
4274	0	33052	32652	36860	
4275	0	32976	32700	36860	
4276	0	32872	32857	36870	
4277	0	32768	33019	36860	
4278	0	32616	33252	36870	
4279	0	32452	32790	36884	
4280	0	32374	32945	36880	
4281	0	32248	32916	36872	
4282	0	32256	32719	36878	
4283	0	32616	32800	36896	
4284	0	32712	32836	36902	
4285	0	32594	32741	36877	
4286	0	32434	32680	36871	
4287	0	32448	32758	36834	
4288	0	32732	32708	36834	
4289	0	32924	32710	36813	
4290	0	33200	32945	36824	
4291	0	33276	32824	36820	
4292	0	33184	32700	36794	
4293	0	33444	32772	36775	
4294	0	33320	32708	36764	
4295	0	33110	32876	36756	
4296	0	32724	32992	36776	
4297	0	32564	32892	36778	
4298	0	32417	32808	36766	
4299	0	31980	32856	36741	
4300	0	32389	32782	36736	
4301	0	32720	32775	36734	
4302	0	33080	32847	36713	
4303	0	33040	32808	36711	
4304	0	33076	32519	36684	
4305	0	32714	32684	36646	
4306	0	32420	32616	36621	
4307	0	32433	32860	36615	
4308	0	32488	32964	36588	
4309	0	32656	32964	36584	
4310	0	33005	33034	36580	
4311	0	33048	33012	36552	
4312	0	33033	32880	36556	
4313	0	33184	32748	36549	
4314	0	33196	32772	36568	
4315	0	33276	32884	36580	
4316	0	33244	33032	36608	
4317	0	33012	33024	36632	
4318	0	32372	32868	36648	
4319	0	31868	32958	36673	
4320	0	31476	32772	36706	
4321	0	31616	32777	36744	
4322	0	31829	32840	36780	
4323	0	32532	32926	36799	
4324	0	33292	32860	36807	
4325	0	34000	32963	36824	
4326	0	34252	32780	36847	
4327	0	34028	32660	36846	
4328	0	33562	32741	36844	
4329	0	32864	32952	36856	
4330	0	32822	32965	36868	
4331	0	32928	32969	36881	
4332	0	32873	32724	36896	
4333	0	32176	32814	36905	
4334	0	32481	32878	36912	
4335	0	32668	32752	36917	
4336	0	32760	32728	36959	
4337	0	32832	32867	36964	
4338	0	32628	32768	36975	
4339	0	32498	32837	36998	
4340	0	32460	32925	37001	
4341	0	32228	32956	37020	
4342	0	32104	33016	37030	
4343	0	32408	32952	37036	
4344	0	32624	32976	37069	
4345	0	32484	32777	37060	
4346	0	33020	32580	37047	
4347	0	33484	32524	37062	
4348	0	33196	32782	37070	
4349	0	32808	32896	37080	
4350	0	32788	33029	37100	
4351	0	32760	32856	37096	
4352	0	32869	32493	37080	
4353	0	32884	32908	37044	
4354	0	33076	32996	37024	
4355	0	33104	32936	37000	
4356	0	33074	32871	36992	
4357	0	33088	32886	36957	
4358	0	32984	32932	36938	
4359	0	33104	32956	36897	
4360	0	32992	32945	36901	
4361	0	32502	32856	36871	
4362	0	32174	32982	36868	
4363	0	31637	32489	36860	
4364	0	31708	32676	36840	
4365	0	31820	32716	36844	
4366	0	32364	32816	36816	
4367	0	32770	33008	36820	
4368	0	32952	32880	36798	
4369	0	33424	32976	36816	
4370	0	33508	32937	36812	
4371	0	33442	32804	36804	
4372	0	33244	32768	36773	
4373	0	33312	32966	36744	
4374	0	33352	32852	36728	
4375	0	33044	32732	36724	
4376	0	32828	32846	36684	
4377	0	32832	32953	36657	
4378	0	32694	32692	36644	
4379	0	32508	32741	36652	
4380	0	32520	32940	36636	
4381	0	32408	32849	36645	
4382	0	32340	32808	36654	
4383	0	32356	32920	36660	
4384	0	32392	32773	36664	
4385	0	32742	32840	36676	
4386	0	32932	32729	36666	
4387	0	32824	32729	36668	
4388	0	32708	32748	36671	
4389	0	32765	32750	36658	
4390	0	32980	32976	36673	
4391	0	33092	32790	36652	
4392	0	33196	32966	36645	
4393	0	33112	33084	36620	
4394	0	33092	33121	36636	
4395	0	33228	32860	36654	
4396	0	33278	32828	36660	
4397	0	33036	32844	36668	
4398	0	32096	32908	36684	
4399	0	31582	33154	36692	
4400	0	31392	33232	36700	
4401	0	31604	32866	36725	
4402	0	32160	32576	36724	
4403	0	33349	32377	36736	
4404	0	33797	32548	36724	
4405	0	34176	32662	36720	
4406	0	34140	32818	36720	
4407	0	33758	32868	36714	
4408	0	33005	32812	36768	
4409	0	32628	32780	36777	
4410	0	32736	32998	36780	
4411	0	32932	32877	36805	
4412	0	32656	32727	36804	
4413	0	32221	32897	36820	
4414	0	32661	33027	36824	
4415	0	32668	32912	36840	
4416	0	32688	32820	36886	
4417	0	32784	32876	36912	
4418	0	32740	32958	36950	
4419	0	32757	32817	36974	
4420	0	32458	32748	36989	
4421	0	32288	32524	37012	
4422	0	32400	32668	37038	
4423	0	32384	32694	37048	
4424	0	32334	32704	37074	
4425	0	32300	32972	37116	
4426	0	32456	32712	37126	
4427	0	32932	32652	37153	
4428	0	32909	32657	37158	
4429	0	32528	32852	37172	
4430	0	32816	32902	37184	
4431	0	33068	32956	37180	
4432	0	33352	32892	37193	
4433	0	33736	32695	37185	
4434	0	33736	32784	37182	
4435	0	33296	32825	37186	
4436	0	32844	32890	37184	
4437	0	32732	33048	37200	
4438	0	32612	33034	37198	
4439	0	32440	33085	37197	
4440	0	32388	33014	37184	
4441	0	32492	32789	37172	
4442	0	32604	32830	37148	
4443	0	32404	32773	37120	
4444	0	32192	32816	37095	
4445	0	32654	32612	37087	
4446	0	32748	32549	37094	
4447	0	32817	32573	37060	
4448	0	32892	32760	37068	
4449	0	32841	32928	37060	
4450	0	32908	32948	37031	
4451	0	32908	32801	37004	
4452	0	33096	32775	36976	
4453	0	33054	32946	36960	
4454	0	33061	32948	36945	
4455	0	33040	32937	36916	
4456	0	33040	32972	36920	
4457	0	33068	32996	36916	
4458	0	32976	32821	36908	
4459	0	32880	32836	36893	
4460	0	32546	32869	36868	
4461	0	32304	32973	36842	
4462	0	32180	32788	36804	
4463	0	32324	32967	36773	
4464	0	32461	32812	36752	
4465	0	32516	32799	36736	
4466	0	32697	32880	36712	
4467	0	32876	32814	36681	
4468	0	32864	32728	36661	
4469	0	33048	32862	36650	
4470	0	32917	33017	36631	
4471	0	33040	32792	36612	
4472	0	33008	32568	36574	
4473	0	32992	32686	36558	
4474	0	33189	32654	36581	
4475	0	33176	32722	36567	
4476	0	32916	32748	36564	
4477	0	32576	32720	36556	
4478	0	32588	32773	36537	
4479	0	32580	33025	36528	
4480	0	32452	32824	36504	
4481	0	32760	32862	36520	
4482	0	33192	32800	36533	
4483	0	32936	32644	36528	
4484	0	32303	32684	36509	
4485	0	32280	32772	36508	
4486	0	32508	32884	36508	
4487	0	32617	32879	36488	
4488	0	32528	32829	36473	
4489	0	32861	32824	36476	
4490	0	33196	32780	36476	
4491	0	33360	32784	36484	
4492	0	33261	32780	36461	
4493	0	33132	32808	36456	
4494	0	33416	32820	36473	
4495	0	33312	32783	36480	
4496	0	32885	32943	36462	
4497	0	32564	32944	36456	
4498	0	32460	32804	36457	
4499	0	32532	33024	36461	
4500	0	32580	33108	36466	
4501	0	32356	33000	36472	
4502	0	32486	32580	36472	
4503	0	32544	32740	36480	
4504	0	32312	32834	36503	
4505	0	32504	32700	36497	
4506	0	32852	32460	36523	
4507	0	32944	32456	36559	
4508	0	32832	32696	36570	
4509	0	32864	32660	36577	
4510	0	32732	32848	36592	
4511	0	32384	32781	36621	
4512	0	32380	32856	36656	
4513	0	32280	32944	36689	
4514	0	32300	32956	36696	
4515	0	32792	32736	36736	
4516	0	33276	32897	36775	
4517	0	33808	32968	36800	
4518	0	34256	32864	36832	
4519	0	34300	33076	36845	
4520	0	33956	33004	36862	
4521	0	33348	32625	36881	
4522	0	32540	32904	36916	
4523	0	32060	32420	36928	
4524	0	31908	32640	36977	
4525	0	32180	32700	36989	
4526	0	31782	32788	37019	
4527	0	32040	32900	37016	
4528	0	32498	32646	37036	
4529	0	32760	32852	37053	
4530	0	32912	33075	37059	
4531	0	32736	33105	37073	
4532	0	32880	32932	37064	
4533	0	32960	32588	37064	
4534	0	33124	32868	37076	
4535	0	33104	32948	37100	
4536	0	33284	32956	37110	
4537	0	33228	33180	37144	
4538	0	32876	33009	37176	
4539	0	32885	32952	37206	
4540	0	32553	32942	37221	
4541	0	32332	32750	37253	
4542	0	32312	32780	37250	
4543	0	32528	32885	37242	
4544	0	32589	32602	37264	
4545	0	32464	32548	37261	
4546	0	32320	32694	37244	
4547	0	32489	32876	37232	
4548	0	32804	32799	37220	
4549	0	32932	32844	37214	
4550	0	33185	32717	37213	
4551	0	33253	32681	37181	
4552	0	33292	32548	37196	
4553	0	33120	32669	37168	
4554	0	32892	32748	37138	
4555	0	32732	32768	37104	
4556	0	32728	32868	37100	
4557	0	32712	33031	37068	
4558	0	32578	33108	37070	
4559	0	32620	33034	37036	
4560	0	32598	33002	37033	
4561	0	32508	32954	37028	
4562	0	32725	33020	36992	
4563	0	32631	32538	36972	
4564	0	32364	32664	36964	
4565	0	32700	32792	36964	
4566	0	32634	32868	36950	
4567	0	32456	32928	36913	
4568	0	32952	32852	36888	
4569	0	33348	32832	36871	
4570	0	33422	32999	36848	
4571	0	33128	32800	36817	
4572	0	33100	32736	36788	
4573	0	33200	32732	36768	
4574	0	33008	32728	36740	
4575	0	32928	32840	36696	
4576	0	33048	32855	36680	
4577	0	33124	32936	36664	
4578	0	32746	32872	36664	
4579	0	32502	32780	36652	
4580	0	32466	33040	36661	
4581	0	32348	32900	36679	
4582	0	32288	32868	36676	
4583	0	32292	32736	36663	
4584	0	32418	32697	36638	
4585	0	32316	32700	36631	
4586	0	32430	32728	36640	
4587	0	32724	32753	36655	
4588	0	33013	32832	36652	
4589	0	32992	32768	36642	
4590	0	32976	32760	36650	
4591	0	32964	32856	36680	
4592	0	33172	32948	36676	
4593	0	33256	33067	36672	
4594	0	33097	33056	36669	
4595	0	33016	33020	36676	
4596	0	33124	32983	36689	
4597	0	32976	32972	36692	
4598	0	32661	32925	36691	
4599	0	32592	32793	36694	
4600	0	32568	32658	36684	
4601	0	32336	32564	36696	
4602	0	32148	32680	36706	
4603	0	32672	32689	36724	
4604	0	32856	32616	36732	
4605	0	32802	32653	36756	
4606	0	32664	32668	36748	
4607	0	32816	32824	36788	
4608	0	32860	32938	36796	
4609	0	32692	32953	36824	
4610	0	32781	33061	36832	
4611	0	32756	32900	36862	
4612	0	32916	33572	36885	
4613	0	32824	33804	36903	
4614	0	33060	33013	36921	
4615	0	33356	32068	36928	
4616	0	33240	31565	36968	
4617	0	33120	32316	37016	
4618	0	32893	33088	37033	
4619	0	32740	32908	37041	
4620	0	32716	32713	37079	
4621	0	32416	32889	37080	
4622	0	32376	33073	37103	
4623	0	32372	32970	37124	
4624	0	32208	32985	37124	
4625	0	32288	32941	37135	
4626	0	32540	32708	37168	
4627	0	32768	32748	37164	
4628	0	32732	32829	37156	
4629	0	32880	32868	37160	
4630	0	33217	32812	37168	
4631	0	33532	32652	37199	
4632	0	33408	32569	37176	
