# OpenSignals Text File Format
# {"00:07:80:4D:2E:AD": {"sensor": ["EMG", "EMG", "XYZ"], "device name": "00:07:80:4D:2E:AD", "column": ["nSeq", "DI", "CH1", "CH2", "CH3"], "sync interval": 2, "time": "15:34:13.866", "comments": "stone | ch1_flexor_digitorum_superficialis ch2_aductor_policis ch3_acc_z [trial 1]", "device connection": "BTH00:07:80:4D:2E:AD", "channels": [1, 2, 3], "keywords": "", "mode": 0, "digital IO": [0, 1], "firmware version": 773, "device": "biosignalsplux", "position": 0, "sampling rate": 1000, "label": ["CH1", "CH2", "CH3"], "resolution": [16, 16, 16], "date": "2019-1-23", "special": [{}, {}, {}]}}
# EndOfHeader
0	0	32964	32844	36622	
1	0	32960	32982	36631	
2	0	32864	32932	36632	
3	0	32816	32944	36614	
4	0	32665	33016	36611	
5	0	32624	33124	36608	
6	0	32560	33052	36605	
7	0	32485	33027	36601	
8	0	32464	32885	36601	
9	0	32486	32662	36608	
10	0	32512	32764	36614	
11	0	32708	32772	36615	
12	0	32820	32614	36612	
13	0	32796	32665	36615	
14	0	32889	32673	36592	
15	0	32946	32636	36608	
16	0	32972	32665	36624	
17	0	32980	32820	36600	
18	0	33064	32812	36582	
19	0	32960	32824	36600	
20	0	33030	32900	36613	
21	0	32885	32948	36612	
22	0	32874	32974	36604	
23	0	32876	33023	36632	
24	0	32692	33101	36636	
25	0	32612	32982	36620	
26	0	32576	32945	36618	
27	0	32540	32920	36628	
28	0	32494	32808	36620	
29	0	32572	32685	36608	
30	0	32628	32865	36612	
31	0	32708	32686	36646	
32	0	32732	32640	36637	
33	0	32800	32596	36644	
34	0	32879	32720	36636	
35	0	32892	32594	36608	
36	0	32936	32686	36602	
37	0	33008	32809	36613	
38	0	33032	32676	36588	
39	0	33020	32788	36594	
40	0	32988	32912	36605	
41	0	32902	32804	36623	
42	0	32836	32929	36608	
43	0	32856	32873	36618	
44	0	32720	33064	36624	
45	0	32657	33140	36644	
46	0	32658	33037	36645	
47	0	32557	33025	36645	
48	0	32548	32764	36666	
49	0	32504	32718	36662	
50	0	32588	32869	36648	
51	0	32612	32724	36657	
52	0	32680	32606	36650	
53	0	32788	32510	36637	
54	0	32812	32640	36612	
55	0	32976	32650	36624	
56	0	32964	32896	36591	
57	0	33008	32740	36588	
58	0	33032	32646	36588	
59	0	32978	32712	36581	
60	0	32977	32726	36567	
61	0	32900	32880	36580	
62	0	32894	32944	36588	
63	0	32774	33068	36579	
64	0	32676	33052	36612	
65	0	32580	33037	36617	
66	0	32594	32976	36612	
67	0	32532	33016	36640	
68	0	32488	33044	36620	
69	0	32513	32848	36615	
70	0	32580	32756	36622	
71	0	32604	32847	36609	
72	0	32756	32734	36612	
73	0	32860	32757	36626	
74	0	32844	32647	36628	
75	0	32932	32780	36624	
76	0	33010	32805	36634	
77	0	33040	32796	36628	
78	0	33044	32722	36597	
79	0	33017	32801	36596	
80	0	33060	32878	36600	
81	0	32962	32952	36595	
82	0	32910	32837	36612	
83	0	32782	32954	36601	
84	0	32708	32933	36636	
85	0	32608	32940	36640	
86	0	32596	32976	36640	
87	0	32560	32964	36629	
88	0	32528	32864	36636	
89	0	32612	32748	36628	
90	0	32612	32841	36622	
91	0	32632	32768	36622	
92	0	32680	32745	36604	
93	0	32776	32680	36589	
94	0	32865	32628	36600	
95	0	32928	32677	36615	
96	0	32960	32718	36624	
97	0	32964	32722	36620	
98	0	32960	32700	36607	
99	0	33056	32700	36586	
100	0	33044	32704	36605	
101	0	32908	32902	36608	
102	0	32860	32944	36620	
103	0	32844	33002	36626	
104	0	32680	32992	36636	
105	0	32628	32956	36640	
106	0	32532	32968	36636	
107	0	32500	32981	36645	
108	0	32600	32916	36652	
109	0	32556	32824	36648	
110	0	32580	32749	36653	
111	0	32664	32784	36636	
112	0	32720	32708	36645	
113	0	32761	32625	36620	
114	0	32876	32743	36628	
115	0	32904	32612	36613	
116	0	32964	32812	36636	
117	0	33152	32788	36648	
118	0	33076	32788	36618	
119	0	33001	32876	36624	
120	0	33020	32881	36604	
121	0	32937	33009	36604	
122	0	32888	32946	36604	
123	0	32788	33040	36580	
124	0	32800	32944	36597	
125	0	32625	33047	36604	
126	0	32612	32968	36631	
127	0	32553	32884	36617	
128	0	32512	32885	36620	
129	0	32486	32820	36628	
130	0	32572	32836	36640	
131	0	32668	32690	36657	
132	0	32780	32728	36639	
133	0	32836	32674	36607	
134	0	32888	32696	36604	
135	0	32902	32644	36608	
136	0	32976	32582	36591	
137	0	33012	32552	36608	
138	0	33013	32644	36604	
139	0	33014	32756	36584	
140	0	33008	32767	36588	
141	0	32856	32873	36591	
142	0	32952	33005	36580	
143	0	32820	33092	36614	
144	0	32697	32993	36632	
145	0	32637	33073	36628	
146	0	32584	33041	36609	
147	0	32536	32879	36600	
148	0	32437	32896	36605	
149	0	32564	32756	36616	
150	0	32552	32733	36624	
151	0	32577	32660	36620	
152	0	32712	32744	36636	
153	0	32756	32692	36645	
154	0	32920	32693	36636	
155	0	32920	32646	36640	
156	0	32952	32800	36637	
157	0	32988	32722	36624	
158	0	33081	32690	36600	
159	0	33040	32800	36596	
160	0	33007	32956	36576	
161	0	32932	32996	36596	
162	0	32852	33044	36616	
163	0	32782	33052	36642	
164	0	32784	33033	36626	
165	0	32665	32992	36637	
166	0	32604	33040	36646	
167	0	32508	32956	36656	
168	0	32500	32828	36636	
169	0	32536	32728	36634	
170	0	32545	32623	36645	
171	0	32597	32684	36636	
172	0	32692	32700	36640	
173	0	32792	32695	36624	
174	0	32896	32676	36604	
175	0	32972	32708	36609	
176	0	32940	32834	36628	
177	0	32980	32848	36631	
178	0	33046	32794	36613	
179	0	33048	32945	36628	
180	0	33048	32783	36608	
181	0	32944	32853	36604	
182	0	32801	33092	36612	
183	0	32860	33081	36612	
184	0	32688	33044	36640	
185	0	32628	32969	36644	
186	0	32680	32960	36652	
187	0	32576	33048	36644	
188	0	32552	32849	36644	
189	0	32584	32749	36650	
190	0	32584	32770	36657	
191	0	32604	32686	36648	
192	0	32729	32650	36644	
193	0	32756	32660	36639	
194	0	32812	32605	36628	
195	0	32944	32724	36612	
196	0	33008	32644	36620	
197	0	33028	32721	36608	
198	0	33004	32576	36610	
199	0	32960	32756	36620	
200	0	33038	32799	36640	
201	0	32952	32926	36609	
202	0	32892	32956	36624	
203	0	32830	33065	36615	
204	0	32694	33092	36633	
205	0	32600	33150	36640	
206	0	32596	33050	36644	
207	0	32508	32936	36647	
208	0	32493	32836	36632	
209	0	32608	32756	36656	
210	0	32672	32609	36653	
211	0	32673	32720	36630	
212	0	32672	32668	36632	
213	0	32780	32626	36630	
214	0	32860	32656	36640	
215	0	32868	32706	36637	
216	0	32964	32739	36638	
217	0	33014	32896	36632	
218	0	32985	32803	36644	
219	0	32944	32852	36624	
220	0	32937	32852	36615	
221	0	32946	32888	36611	
222	0	32888	32934	36604	
223	0	32824	33016	36605	
224	0	32686	32926	36621	
225	0	32684	33074	36622	
226	0	32536	32948	36624	
227	0	32444	33104	36638	
228	0	32498	32880	36628	
229	0	32572	32784	36629	
230	0	32568	32709	36644	
231	0	32596	32704	36650	
232	0	32740	32671	36672	
233	0	32786	32652	36664	
234	0	32876	32684	36648	
235	0	33010	32718	36648	
236	0	32929	32695	36646	
237	0	33004	32760	36644	
238	0	33052	32740	36637	
239	0	32980	32848	36628	
240	0	33008	32829	36636	
241	0	32970	32908	36647	
242	0	32908	33017	36668	
243	0	32801	33025	36657	
244	0	32713	33014	36662	
245	0	32716	32935	36662	
246	0	32612	32940	36644	
247	0	32586	32775	36640	
248	0	32556	32822	36632	
249	0	32494	32684	36636	
250	0	32612	32553	36616	
251	0	32639	32673	36618	
252	0	32732	32549	36621	
253	0	32844	32652	36633	
254	0	32884	32780	36644	
255	0	32921	32673	36624	
256	0	32973	32760	36623	
257	0	33023	32852	36597	
258	0	33012	32749	36601	
259	0	33064	32784	36604	
260	0	32968	32872	36606	
261	0	32929	32838	36632	
262	0	32856	32972	36640	
263	0	32768	33015	36644	
264	0	32648	33058	36633	
265	0	32592	33149	36648	
266	0	32528	33020	36652	
267	0	32572	33012	36643	
268	0	32468	32885	36660	
269	0	32604	32760	36647	
270	0	32632	32850	36628	
271	0	32608	32756	36636	
272	0	32696	32672	36636	
273	0	32844	32660	36622	
274	0	32868	32647	36608	
275	0	32972	32656	36602	
276	0	33057	32709	36592	
277	0	33037	32810	36612	
278	0	33042	32729	36612	
279	0	33028	32720	36620	
280	0	32958	32876	36620	
281	0	32900	32919	36615	
282	0	32893	33068	36606	
283	0	32754	33000	36588	
284	0	32693	33060	36606	
285	0	32666	32976	36612	
286	0	32586	32966	36644	
287	0	32551	33006	36656	
288	0	32500	32836	36644	
289	0	32554	32666	36622	
290	0	32636	32670	36615	
291	0	32668	32732	36608	
292	0	32712	32623	36612	
293	0	32832	32677	36594	
294	0	32886	32609	36628	
295	0	32916	32681	36612	
296	0	32992	32825	36616	
297	0	33018	32759	36620	
298	0	33088	32804	36602	
299	0	32984	32650	36596	
300	0	32996	32732	36584	
301	0	32948	32846	36584	
302	0	32908	33066	36600	
303	0	32836	32952	36624	
304	0	32652	33124	36652	
305	0	32572	33028	36650	
306	0	32556	33072	36654	
307	0	32592	32957	36661	
308	0	32528	32876	36658	
309	0	32540	32826	36662	
310	0	32588	32681	36668	
311	0	32608	32817	36632	
312	0	32664	32580	36646	
313	0	32797	32591	36630	
314	0	32886	32701	36613	
315	0	32940	32548	36621	
316	0	32972	32706	36622	
317	0	33026	32724	36624	
318	0	32974	32680	36621	
319	0	33009	32754	36628	
320	0	33056	32781	36629	
321	0	32996	32964	36612	
322	0	32888	33057	36628	
323	0	32808	33076	36614	
324	0	32768	33022	36624	
325	0	32632	33032	36632	
326	0	32572	32976	36606	
327	0	32573	33164	36608	
328	0	32436	32948	36633	
329	0	32452	32887	36664	
330	0	32556	32812	36634	
331	0	32536	32857	36625	
332	0	32676	32718	36637	
333	0	32728	32753	36612	
334	0	32836	32704	36644	
335	0	32982	32633	36641	
336	0	33060	32712	36606	
337	0	33034	32580	36607	
338	0	33030	32689	36601	
339	0	33008	32804	36588	
340	0	33040	32848	36590	
341	0	32996	32948	36608	
342	0	32900	33076	36596	
343	0	32832	33055	36614	
344	0	32756	32972	36608	
345	0	32628	32951	36609	
346	0	32629	33016	36608	
347	0	32520	32992	36597	
348	0	32524	32873	36601	
349	0	32557	32749	36576	
350	0	32620	32764	36605	
351	0	32692	32653	36638	
352	0	32720	32660	36620	
353	0	32724	32668	36626	
354	0	32852	32640	36647	
355	0	32945	32685	36649	
356	0	32976	32740	36604	
357	0	32984	32888	36597	
358	0	33000	32764	36610	
359	0	33080	32836	36620	
360	0	33045	32873	36580	
361	0	32964	32911	36589	
362	0	32872	32950	36620	
363	0	32788	32980	36624	
364	0	32708	32940	36636	
365	0	32628	32977	36605	
366	0	32576	32962	36612	
367	0	32550	32876	36615	
368	0	32452	32876	36620	
369	0	32490	32777	36630	
370	0	32504	32714	36607	
371	0	32646	32780	36604	
372	0	32740	32780	36631	
373	0	32805	32710	36626	
374	0	32844	32720	36600	
375	0	33004	32568	36580	
376	0	32928	32785	36589	
377	0	32964	32808	36600	
378	0	33028	32697	36592	
379	0	32996	32820	36596	
380	0	32948	32844	36596	
381	0	33048	32817	36590	
382	0	32888	32954	36580	
383	0	32840	33020	36592	
384	0	32760	32976	36628	
385	0	32664	33018	36614	
386	0	32544	32988	36632	
387	0	32540	33044	36633	
388	0	32502	32974	36640	
389	0	32532	32716	36634	
390	0	32632	32654	36608	
391	0	32668	32604	36636	
392	0	32716	32572	36649	
393	0	32784	32592	36628	
394	0	32864	32732	36632	
395	0	32904	32670	36617	
396	0	33000	32697	36615	
397	0	33032	32837	36612	
398	0	33060	32693	36600	
399	0	33008	32910	36614	
400	0	33002	32961	36607	
401	0	32952	32842	36612	
402	0	32964	33078	36610	
403	0	32764	33133	36633	
404	0	32780	33076	36631	
405	0	32592	33050	36629	
406	0	32549	32990	36636	
407	0	32576	32972	36668	
408	0	32444	32980	36647	
409	0	32536	32725	36669	
410	0	32572	32647	36664	
411	0	32644	32545	36657	
412	0	32740	32572	36641	
413	0	32866	32620	36633	
414	0	32890	32576	36612	
415	0	32992	32639	36624	
416	0	32969	32640	36597	
417	0	33044	32836	36584	
418	0	33092	32884	36612	
419	0	33034	32925	36596	
420	0	32932	33031	36606	
421	0	32888	32918	36588	
422	0	32842	33025	36601	
423	0	32780	33014	36600	
424	0	32744	32864	36592	
425	0	32636	32874	36592	
426	0	32589	32860	36596	
427	0	32506	32816	36622	
428	0	32532	32760	36636	
429	0	32596	32660	36640	
430	0	32608	32613	36634	
431	0	32676	32684	36624	
432	0	32673	32740	36628	
433	0	32758	32748	36640	
434	0	32956	32852	36644	
435	0	32916	32756	36652	
436	0	32956	32709	36629	
437	0	33112	32763	36622	
438	0	33006	32760	36622	
439	0	32994	32865	36612	
440	0	32968	32901	36620	
441	0	33012	32854	36600	
442	0	32868	32936	36593	
443	0	32804	33081	36606	
444	0	32744	33036	36624	
445	0	32696	33136	36624	
446	0	32572	33028	36590	
447	0	32568	32992	36612	
448	0	32532	32870	36632	
449	0	32544	32832	36637	
450	0	32604	32713	36600	
451	0	32604	32768	36617	
452	0	32640	32676	36624	
453	0	32765	32696	36632	
454	0	32844	32704	36600	
455	0	32968	32789	36612	
456	0	32948	32756	36620	
457	0	32982	32784	36612	
458	0	33049	32800	36596	
459	0	32948	32817	36606	
460	0	32986	32929	36596	
461	0	32956	32798	36613	
462	0	32862	33040	36614	
463	0	32792	32964	36614	
464	0	32686	33034	36631	
465	0	32668	32945	36634	
466	0	32644	32928	36645	
467	0	32572	32877	36626	
468	0	32500	32905	36615	
469	0	32628	32800	36615	
470	0	32520	32774	36640	
471	0	32620	32804	36628	
472	0	32740	32713	36632	
473	0	32792	32681	36620	
474	0	32816	32692	36624	
475	0	32908	32545	36622	
476	0	32984	32621	36610	
477	0	33048	32608	36608	
478	0	33044	32680	36646	
479	0	32992	32655	36640	
480	0	33031	32782	36616	
481	0	32964	32852	36636	
482	0	32820	32964	36620	
483	0	32801	33040	36600	
484	0	32704	32972	36591	
485	0	32612	33101	36597	
486	0	32596	33046	36590	
487	0	32601	32985	36618	
488	0	32468	33012	36620	
489	0	32596	32804	36625	
490	0	32588	32720	36612	
491	0	32646	32676	36608	
492	0	32628	32657	36597	
493	0	32772	32748	36620	
494	0	32840	32646	36605	
495	0	32957	32601	36584	
496	0	33001	32729	36600	
497	0	32969	32788	36616	
498	0	33024	32834	36614	
499	0	33068	32910	36610	
500	0	33076	32820	36584	
501	0	33005	32780	36612	
502	0	32888	33005	36600	
503	0	32820	32944	36636	
504	0	32664	33026	36640	
505	0	32689	33157	36641	
506	0	32608	33060	36647	
507	0	32508	32860	36637	
508	0	32501	32736	36640	
509	0	32520	32518	36634	
510	0	32644	32684	36648	
511	0	32656	32660	36640	
512	0	32696	32612	36626	
513	0	32824	32688	36656	
514	0	32896	32665	36636	
515	0	32896	32708	36652	
516	0	32984	32764	36644	
517	0	33022	32804	36645	
518	0	32939	32812	36622	
519	0	33028	32839	36623	
520	0	32989	32933	36609	
521	0	32988	33004	36612	
522	0	32904	33012	36612	
523	0	32790	33028	36608	
524	0	32688	33027	36620	
525	0	32616	33068	36641	
526	0	32572	33055	36668	
527	0	32592	32968	36670	
528	0	32577	32833	36648	
529	0	32548	32784	36648	
530	0	32652	32748	36646	
531	0	32650	32786	36636	
532	0	32704	32788	36659	
533	0	32760	32632	36637	
534	0	32864	32632	36629	
535	0	32932	32580	36644	
536	0	32976	32732	36644	
537	0	33106	32869	36615	
538	0	33064	32852	36632	
539	0	32888	32900	36610	
540	0	32984	32865	36628	
541	0	32972	32872	36613	
542	0	32912	32984	36616	
543	0	32856	32998	36620	
544	0	32685	33030	36608	
545	0	32604	33158	36615	
546	0	32566	33161	36618	
547	0	32468	33078	36644	
548	0	32452	32936	36648	
549	0	32569	32812	36648	
550	0	32560	32748	36637	
551	0	32593	32692	36637	
552	0	32764	32612	36612	
553	0	32705	32431	36594	
554	0	32800	32529	36607	
555	0	32841	32502	36597	
556	0	32940	32734	36591	
557	0	33056	32712	36582	
558	0	33162	32652	36592	
559	0	33082	32824	36584	
560	0	32996	33016	36600	
561	0	33000	32896	36626	
562	0	32840	32964	36629	
563	0	32832	33116	36618	
564	0	32760	33054	36632	
565	0	32856	32956	36652	
566	0	32648	32740	36644	
567	0	32568	32824	36644	
568	0	32532	32897	36644	
569	0	32544	32846	36629	
570	0	32508	32813	36624	
571	0	32520	32760	36605	
572	0	32644	32740	36604	
573	0	32676	32666	36615	
574	0	32853	32664	36629	
575	0	32953	32628	36620	
576	0	32996	32596	36628	
577	0	33032	32640	36622	
578	0	33020	32704	36615	
579	0	33044	32893	36630	
580	0	33024	33007	36604	
581	0	32936	33178	36628	
582	0	32856	33199	36644	
583	0	32780	33130	36644	
584	0	32708	33116	36676	
585	0	32676	33198	36684	
586	0	32598	33070	36682	
587	0	32536	32968	36690	
588	0	32524	32800	36690	
589	0	32500	32637	36700	
590	0	32560	32592	36704	
591	0	32636	32748	36685	
592	0	32689	32676	36675	
593	0	32792	32672	36656	
594	0	32888	32824	36641	
595	0	32876	32645	36646	
596	0	33000	32688	36637	
597	0	33000	32704	36600	
598	0	33093	32775	36615	
599	0	32992	32760	36591	
600	0	33028	32802	36596	
601	0	32984	32932	36612	
602	0	32860	33017	36605	
603	0	32836	33078	36596	
604	0	32764	32913	36560	
605	0	32599	32990	36560	
606	0	32592	33060	36557	
607	0	32552	33016	36588	
608	0	32512	32952	36571	
609	0	32596	32916	36588	
610	0	32613	33041	36576	
611	0	32601	33016	36592	
612	0	32664	32684	36580	
613	0	32776	32412	36583	
614	0	32864	32537	36580	
615	0	32892	32593	36592	
616	0	32900	32576	36577	
617	0	32932	32454	36564	
618	0	33032	32580	36551	
619	0	33068	32655	36552	
620	0	32992	32669	36576	
621	0	32968	32604	36604	
622	0	32904	32512	36613	
623	0	32800	32920	36634	
624	0	32696	32969	36645	
625	0	32600	33096	36648	
626	0	32628	33194	36688	
627	0	32556	33286	36684	
628	0	32501	33136	36705	
629	0	32584	32780	36700	
630	0	32608	32560	36666	
631	0	32644	32524	36668	
632	0	32682	32292	36645	
633	0	32832	32314	36644	
634	0	32908	32436	36593	
635	0	32940	32425	36564	
636	0	33028	32404	36584	
637	0	33008	32580	36591	
638	0	33088	32730	36573	
639	0	32984	32912	36560	
640	0	32960	33097	36528	
641	0	32928	33125	36532	
642	0	32896	33116	36524	
643	0	32873	33274	36520	
644	0	32712	33342	36535	
645	0	32646	33380	36533	
646	0	32608	33324	36544	
647	0	32548	33080	36576	
648	0	32576	33006	36621	
649	0	32520	32790	36648	
650	0	32478	32708	36661	
651	0	32604	32785	36672	
652	0	32640	32640	36661	
653	0	32752	32558	36661	
654	0	32796	32653	36677	
655	0	32800	32745	36652	
656	0	32705	32760	36644	
657	0	32856	32897	36615	
658	0	33172	32773	36628	
659	0	33188	32828	36656	
660	0	33088	32830	36680	
661	0	33028	32732	36676	
662	0	32934	32820	36720	
663	0	32852	32910	36780	
664	0	32728	32768	36868	
665	0	32584	32912	36952	
666	0	32652	33160	36997	
667	0	32644	33236	37015	
668	0	32564	33166	36976	
669	0	32620	32970	36932	
670	0	32676	32574	36839	
671	0	32706	32748	36727	
672	0	32809	32775	36620	
673	0	32804	32754	36576	
674	0	32937	32858	36582	
675	0	32932	33108	36636	
676	0	32917	32986	36709	
677	0	33016	32853	36788	
678	0	32977	32815	36856	
679	0	32989	32804	36904	
680	0	33060	32830	36932	
681	0	32960	32952	36960	
682	0	32840	33056	37006	
683	0	32920	32840	36938	
684	0	32702	32949	36860	
685	0	32477	32870	36817	
686	0	32454	32932	36784	
687	0	32454	32793	36780	
688	0	32456	32736	36812	
689	0	32428	32656	36850	
690	0	32493	32496	36854	
691	0	32534	32360	36860	
692	0	32666	32445	36864	
693	0	32876	32676	36860	
694	0	32954	32860	36852	
695	0	33048	32727	36844	
696	0	33484	32936	36884	
697	0	33048	33093	36911	
698	0	33006	33056	36940	
699	0	32860	33044	36976	
700	0	32945	32996	37016	
701	0	33005	33125	37086	
702	0	32750	33031	37120	
703	0	32736	33034	37148	
704	0	32740	32932	37180	
705	0	32482	33093	37184	
706	0	32524	33084	37166	
707	0	32504	32959	37156	
708	0	32520	33028	37095	
709	0	32558	32812	37012	
710	0	32660	32667	36871	
711	0	32664	32652	36720	
712	0	32696	32688	36628	
713	0	32720	32711	36620	
714	0	32700	33017	36668	
715	0	32856	32885	36734	
716	0	32956	32936	36862	
717	0	33184	32653	36969	
718	0	33084	32518	37049	
719	0	32968	32436	37092	
720	0	33020	32584	37100	
721	0	32997	32561	37120	
722	0	32912	32708	37100	
723	0	32929	32565	37116	
724	0	32575	32524	37064	
725	0	32364	32612	37021	
726	0	32422	32468	36956	
727	0	32482	32600	36893	
728	0	32568	32648	36813	
729	0	32500	32684	36732	
730	0	32636	32640	36630	
731	0	32728	32781	36570	
732	0	32768	32814	36516	
733	0	32928	32752	36478	
734	0	33076	32552	36477	
735	0	33024	32584	36519	
736	0	32996	32670	36565	
737	0	32949	32809	36552	
738	0	32968	32764	36503	
739	0	32858	32930	36398	
740	0	32792	32966	36320	
741	0	32892	32893	36245	
742	0	32776	33149	36165	
743	0	32796	33028	36098	
744	0	32720	32912	36052	
745	0	32720	33052	36016	
746	0	32714	33208	35980	
747	0	32780	32944	35953	
748	0	32772	32813	35916	
749	0	32676	32833	35884	
750	0	32592	32740	35864	
751	0	32640	33133	35860	
752	0	32596	32944	35865	
753	0	32712	32772	35904	
754	0	32880	32669	35913	
755	0	32936	32564	35876	
756	0	32828	32492	35847	
757	0	32968	32266	35881	
758	0	32988	32381	35930	
759	0	32936	32560	35958	
760	0	32936	32800	35968	
761	0	32944	33026	35944	
762	0	32997	33101	35856	
763	0	32892	33128	35847	
764	0	32744	32942	35869	
765	0	32650	32768	35902	
766	0	32577	33021	35965	
767	0	32556	33124	36044	
768	0	32530	33036	36124	
769	0	32570	32856	36188	
770	0	32602	32814	36231	
771	0	32537	32781	36289	
772	0	32596	32868	36356	
773	0	32776	32829	36402	
774	0	32904	32792	36473	
775	0	32877	32568	36501	
776	0	33008	32585	36557	
777	0	33056	32662	36564	
778	0	33001	32702	36580	
779	0	33008	32902	36625	
780	0	33000	33160	36708	
781	0	32852	33212	36772	
782	0	32752	33218	36862	
783	0	32896	33062	36938	
784	0	32764	32996	37048	
785	0	32696	32304	37165	
786	0	32640	32712	37269	
787	0	32476	33180	37376	
788	0	32416	33016	37482	
789	0	32504	32670	37560	
790	0	32656	33118	37684	
791	0	32652	33444	37798	
792	0	32768	33108	37948	
793	0	32936	32884	38069	
794	0	32968	32710	38216	
795	0	32972	32359	38300	
796	0	33004	33008	38372	
797	0	32954	33173	38472	
798	0	33012	32908	38548	
799	0	33032	32608	38592	
800	0	33024	32332	38596	
801	0	33008	32380	38580	
802	0	32877	32348	38526	
803	0	32832	32337	38468	
804	0	32756	32335	38398	
805	0	32676	32650	38361	
806	0	32652	32566	38312	
807	0	32424	32689	38277	
808	0	32216	32992	38245	
809	0	32382	33092	38212	
810	0	32448	32844	38204	
811	0	32528	32464	38164	
812	0	32612	32606	38148	
813	0	32808	32196	38104	
814	0	32956	32217	38100	
815	0	33104	32536	38064	
816	0	33128	33049	37998	
817	0	33188	33681	37928	
818	0	33140	33856	37838	
819	0	32940	33429	37732	
820	0	33025	33455	37668	
821	0	32944	33385	37572	
822	0	32856	32796	37496	
823	0	32708	31801	37420	
824	0	32628	31184	37334	
825	0	32485	31732	37238	
826	0	32478	34280	37184	
827	0	32640	34893	37092	
828	0	32660	34120	36999	
829	0	32544	33760	36880	
830	0	32600	33260	36763	
831	0	32660	32916	36649	
832	0	32676	32644	36524	
833	0	32720	32224	36404	
834	0	32868	32452	36276	
835	0	32916	32552	36181	
836	0	32974	32532	36058	
837	0	33132	32621	35956	
838	0	33076	32972	35844	
839	0	33016	33100	35713	
840	0	33064	32926	35613	
841	0	33032	32706	35484	
842	0	32952	32650	35360	
843	0	32792	32615	35260	
844	0	32964	33006	35172	
845	0	32900	33552	35092	
846	0	32584	33340	35029	
847	0	32288	32990	35007	
848	0	32116	32522	34998	
849	0	32276	32524	35024	
850	0	32436	32448	35054	
851	0	32524	32908	35089	
852	0	32708	33461	35164	
853	0	32748	33388	35220	
854	0	33064	32800	35320	
855	0	33344	32780	35432	
856	0	33466	32808	35524	
857	0	33594	32695	35616	
858	0	33522	32630	35716	
859	0	33300	32705	35808	
860	0	32890	32816	35912	
861	0	32438	32868	36016	
862	0	31872	32769	36116	
863	0	31965	32812	36198	
864	0	32036	32760	36268	
865	0	32144	32656	36377	
866	0	32236	32799	36449	
867	0	32501	32880	36516	
868	0	32744	32734	36580	
869	0	33016	32698	36647	
870	0	33336	32732	36704	
871	0	33376	32464	36733	
872	0	33504	32244	36772	
873	0	33468	32300	36797	
874	0	33377	32512	36818	
875	0	33096	32894	36825	
876	0	32712	32924	36833	
877	0	32422	33108	36836	
878	0	32704	33264	36824	
879	0	32868	32964	36812	
880	0	32794	32724	36756	
881	0	32420	33044	36718	
882	0	32206	33864	36726	
883	0	32040	33580	36716	
884	0	32128	32788	36719	
885	0	32048	31780	36704	
886	0	32308	31872	36728	
887	0	32446	33028	36766	
888	0	32684	33132	36772	
889	0	32628	32817	36748	
890	0	32312	32869	36708	
891	0	32526	32988	36648	
892	0	33024	32978	36628	
893	0	33634	33045	36580	
894	0	33172	32910	36520	
895	0	33752	32862	36460	
896	0	33820	33094	36428	
897	0	33894	33045	36392	
898	0	34008	32784	36359	
899	0	33865	32692	36376	
900	0	33578	32676	36396	
901	0	33240	32857	36413	
902	0	32917	32776	36442	
903	0	32244	32856	36448	
904	0	31740	32866	36460	
905	0	31588	32632	36500	
906	0	31496	32677	36536	
907	0	31328	32840	36574	
908	0	31373	32984	36580	
909	0	31836	32570	36536	
910	0	32264	32500	36523	
911	0	32640	32772	36509	
912	0	32872	32992	36489	
913	0	32792	32637	36460	
914	0	32968	32332	36424	
915	0	33769	32508	36391	
916	0	34188	32470	36334	
917	0	34497	31726	36292	
918	0	35504	31608	36245	
919	0	35157	31861	36210	
920	0	34833	33012	36152	
921	0	34000	34654	36086	
922	0	32392	33764	36032	
923	0	31444	32284	35992	
924	0	31088	32788	35962	
925	0	30424	33716	35928	
926	0	30057	33577	35896	
927	0	30161	33032	35846	
928	0	30568	32362	35797	
929	0	30848	32336	35729	
930	0	31457	32292	35660	
931	0	31900	33252	35604	
932	0	32804	34532	35532	
933	0	33864	34596	35446	
934	0	34636	33912	35352	
935	0	35404	33764	35276	
936	0	35660	33448	35220	
937	0	34961	33088	35144	
938	0	35044	32535	35108	
939	0	34916	32238	35052	
940	0	34376	32288	35014	
941	0	33636	32148	35020	
942	0	32338	32452	35033	
943	0	30880	33182	35048	
944	0	30432	33068	35068	
945	0	30340	32166	35064	
946	0	30420	31428	35044	
947	0	30276	32324	35092	
948	0	30777	33004	35158	
949	0	31768	32989	35215	
950	0	32368	32837	35298	
951	0	32780	32622	35328	
952	0	33541	32816	35326	
953	0	34196	33136	35324	
954	0	34497	33034	35316	
955	0	34678	32690	35317	
956	0	34717	32756	35308	
957	0	34548	32689	35320	
958	0	34528	32608	35311	
959	0	34208	32727	35303	
960	0	34086	32663	35284	
961	0	33604	32788	35270	
962	0	33020	32881	35253	
963	0	32308	32844	35234	
964	0	31848	32896	35215	
965	0	31342	32733	35188	
966	0	31072	32880	35196	
967	0	30860	32844	35204	
968	0	30948	32764	35221	
969	0	31381	32780	35240	
970	0	31789	32620	35260	
971	0	32160	32775	35292	
972	0	32656	32704	35332	
973	0	33172	32742	35393	
974	0	33549	32864	35436	
975	0	33836	32740	35496	
976	0	33972	32775	35560	
977	0	34016	32903	35610	
978	0	33952	32802	35672	
979	0	33668	32872	35738	
980	0	33412	32908	35808	
981	0	33116	32932	35863	
982	0	32917	32880	35937	
983	0	32560	32934	35996	
984	0	32184	32932	36081	
985	0	31796	32909	36144	
986	0	31528	32879	36196	
987	0	31564	33009	36248	
988	0	31448	32852	36295	
989	0	31689	32807	36336	
990	0	32125	32785	36390	
991	0	32384	32692	36416	
992	0	32576	32797	36468	
993	0	33212	32800	36484	
994	0	33668	32749	36500	
995	0	33762	32838	36492	
996	0	33816	32785	36486	
997	0	33709	32869	36480	
998	0	33620	32903	36468	
999	0	33556	32816	36445	
1000	0	33344	32791	36423	
1001	0	33272	32778	36384	
1002	0	33000	32837	36401	
1003	0	32728	33018	36372	
1004	0	32333	32880	36340	
1005	0	31900	33017	36314	
1006	0	31724	32857	36268	
1007	0	31472	32900	36260	
1008	0	31494	32917	36204	
1009	0	31690	32840	36180	
1010	0	31904	32842	36172	
1011	0	32200	32647	36140	
1012	0	32400	32495	36092	
1013	0	32849	32628	36044	
1014	0	33338	32578	36004	
1015	0	33604	32647	35988	
1016	0	33893	32849	35948	
1017	0	34148	32840	35886	
1018	0	34216	32834	35812	
1019	0	34136	32936	35790	
1020	0	34008	32904	35792	
1021	0	33626	32952	35770	
1022	0	33172	33057	35742	
1023	0	32704	33112	35721	
1024	0	32295	33012	35694	
1025	0	31996	33053	35661	
1026	0	31796	32958	35624	
1027	0	31664	32908	35588	
1028	0	31628	32880	35540	
1029	0	31596	32892	35492	
1030	0	31844	32812	35448	
1031	0	32149	32922	35420	
1032	0	32486	32775	35385	
1033	0	32836	32756	35342	
1034	0	33100	32846	35308	
1035	0	33444	32776	35257	
1036	0	33544	32775	35202	
1037	0	33625	32764	35174	
1038	0	33964	32746	35113	
1039	0	33908	32512	35072	
1040	0	33792	32672	34964	
1041	0	33436	32838	34866	
1042	0	33020	32743	34727	
1043	0	32848	32832	34567	
1044	0	32365	32796	34340	
1045	0	32072	32876	34056	
1046	0	31768	32908	33751	
1047	0	31664	32850	33392	
1048	0	31515	32652	32995	
1049	0	31796	32733	32585	
1050	0	32167	32654	32180	
1051	0	32436	32676	31810	
1052	0	32724	32653	31517	
1053	0	32920	32649	31268	
1054	0	33390	32792	31028	
1055	0	33760	32601	30848	
1056	0	33792	32775	30725	
1057	0	33775	32869	30690	
1058	0	33692	32900	30426	
1059	0	33592	32908	30452	
1060	0	33494	32828	30851	
1061	0	33300	32805	31343	
1062	0	32845	32769	32076	
1063	0	32266	32738	32914	
1064	0	32190	32780	33716	
1065	0	32088	32748	34516	
1066	0	31860	32764	35173	
1067	0	31704	32641	35680	
1068	0	31640	32633	36024	
1069	0	32000	32625	36196	
1070	0	32248	32620	36128	
1071	0	32246	32640	36072	
1072	0	32621	32716	36188	
1073	0	33032	32576	36260	
1074	0	33348	32662	36277	
1075	0	33772	32784	36249	
1076	0	33916	32844	36261	
1077	0	34040	32698	36304	
1078	0	34057	32856	36340	
1079	0	33790	32861	36402	
1080	0	33348	32864	36438	
1081	0	32980	32940	36452	
1082	0	32776	32900	36440	
1083	0	32608	33068	36352	
1084	0	32420	32940	36244	
1085	0	32170	32885	36108	
1086	0	32084	33025	35973	
1087	0	31944	32873	35836	
1088	0	31844	32744	35686	
1089	0	31892	32672	35565	
1090	0	32302	32769	35460	
1091	0	32401	32781	35330	
1092	0	32392	32775	35194	
1093	0	32484	32824	35064	
1094	0	32512	32852	34942	
1095	0	32736	32902	34848	
1096	0	33236	32953	34780	
1097	0	33289	33030	34716	
1098	0	33272	33164	34664	
1099	0	33306	33077	34621	
1100	0	33521	33116	34608	
1101	0	33704	33153	34608	
1102	0	33460	33026	34634	
1103	0	33228	33021	34668	
1104	0	32970	32901	34676	
1105	0	32497	32908	34686	
1106	0	32432	32932	34724	
1107	0	32324	33024	34736	
1108	0	32293	32888	34700	
1109	0	32349	32640	34597	
1110	0	32434	32664	34452	
1111	0	32480	32677	34252	
1112	0	32493	32581	34000	
1113	0	32464	32767	33720	
1114	0	32972	32866	33415	
1115	0	33096	32913	33132	
1116	0	32848	32950	32904	
1117	0	33060	33076	32700	
1118	0	33420	33008	32579	
1119	0	33700	32932	32512	
1120	0	33724	32940	32540	
1121	0	33392	32848	32605	
1122	0	33120	32845	32708	
1123	0	32692	32828	32836	
1124	0	32512	32693	32981	
1125	0	32156	32768	33128	
1126	0	31816	32836	33296	
1127	0	31544	32736	33504	
1128	0	31508	32677	33664	
1129	0	31792	32724	33856	
1130	0	31828	32657	34052	
1131	0	31976	32656	34236	
1132	0	32104	32708	34421	
1133	0	32404	32817	34628	
1134	0	32648	32940	34815	
1135	0	32940	33021	34960	
1136	0	33452	33040	35066	
1137	0	33932	33028	35156	
1138	0	34484	32932	35225	
1139	0	34928	32444	35236	
1140	0	34876	32089	35194	
1141	0	34670	32904	35092	
1142	0	34560	32842	34936	
1143	0	33740	32088	34781	
1144	0	33033	31475	34584	
1145	0	32100	32198	34388	
1146	0	31261	33836	34212	
1147	0	30840	34560	34013	
1148	0	30412	34432	33880	
1149	0	30918	33978	33783	
1150	0	31997	33884	33638	
1151	0	32596	33774	33504	
1152	0	32728	33605	33328	
1153	0	32620	33472	33094	
1154	0	31848	33600	32817	
1155	0	32108	33448	32432	
1156	0	32952	32984	31901	
1157	0	33416	32236	31317	
1158	0	33664	31820	30686	
1159	0	33071	32255	30084	
1160	0	33792	32283	29380	
1161	0	33146	31896	28772	
1162	0	31792	31844	28296	
1163	0	32952	31876	28048	
1164	0	33980	32052	27945	
1165	0	34078	31972	27988	
1166	0	33824	32101	28130	
1167	0	33428	32332	28345	
1168	0	33176	33040	28605	
1169	0	32673	33432	28892	
1170	0	32756	33537	29249	
1171	0	32714	33408	29668	
1172	0	32624	33356	30133	
1173	0	32308	32949	30644	
1174	0	32114	32826	31196	
1175	0	32164	32592	31780	
1176	0	32524	32277	32364	
1177	0	32728	32124	32993	
1178	0	32744	32108	33588	
1179	0	32828	32172	34222	
1180	0	32872	32545	34840	
1181	0	32593	32720	35449	
1182	0	32384	32712	36044	
1183	0	32296	32729	36612	
1184	0	32246	32624	37102	
1185	0	32068	32663	37548	
1186	0	31908	32792	37942	
1187	0	32084	33004	38232	
1188	0	32620	32932	38439	
1189	0	33080	32872	38552	
1190	0	33496	32832	38600	
1191	0	34029	33012	38514	
1192	0	33948	33069	38365	
1193	0	33732	33137	38153	
1194	0	33512	33108	37872	
1195	0	33216	33204	37540	
1196	0	33257	33285	37173	
1197	0	33080	33180	36804	
1198	0	32980	33140	36437	
1199	0	32936	33115	36084	
1200	0	32784	33104	35804	
1201	0	32756	32980	35559	
1202	0	32596	32988	35364	
1203	0	32218	32983	35224	
1204	0	32029	32852	35153	
1205	0	31804	32756	35121	
1206	0	31596	32764	35121	
1207	0	32048	32712	35138	
1208	0	32136	32472	35174	
1209	0	32216	32532	35155	
1210	0	32260	32628	35162	
1211	0	32440	32812	35204	
1212	0	32786	32775	35192	
1213	0	33108	32988	35144	
1214	0	33348	33385	35076	
1215	0	33624	33294	35005	
1216	0	33900	33205	34913	
1217	0	33692	33076	34786	
1218	0	33506	33004	34694	
1219	0	33088	32996	34564	
1220	0	32821	33108	34468	
1221	0	32444	32984	34340	
1222	0	31856	32887	34260	
1223	0	30488	33020	34168	
1224	0	27341	32912	34029	
1225	0	26630	32813	33868	
1226	0	27724	32948	33712	
1227	0	29616	32828	33566	
1228	0	32142	32776	33447	
1229	0	34204	32740	33312	
1230	0	35676	32760	33200	
1231	0	36989	32906	33098	
1232	0	38536	32868	32989	
1233	0	40148	33032	32924	
1234	0	40156	33088	32890	
1235	0	39190	32920	32817	
1236	0	38420	32840	32689	
1237	0	36272	32830	32508	
1238	0	33532	32676	32264	
1239	0	32025	32753	31980	
1240	0	32000	32903	31702	
1241	0	31316	32808	31449	
1242	0	30752	32806	31244	
1243	0	30152	32756	31166	
1244	0	29788	32784	31196	
1245	0	29572	32736	31366	
1246	0	29762	32664	31588	
1247	0	30284	32816	31876	
1248	0	30504	32980	32164	
1249	0	30728	33078	32472	
1250	0	30344	33093	32745	
1251	0	30596	32903	32989	
1252	0	31664	32903	33188	
1253	0	32410	33031	33354	
1254	0	33264	32795	33456	
1255	0	33656	32588	33549	
1256	0	34061	32478	33588	
1257	0	33684	32614	33508	
1258	0	33156	32694	33336	
1259	0	33400	32630	33064	
1260	0	33672	32764	32764	
1261	0	33932	32876	32489	
1262	0	34862	32744	32276	
1263	0	34396	32637	32111	
1264	0	32997	32568	32104	
1265	0	32832	32716	32232	
1266	0	33292	32950	32396	
1267	0	32864	32744	32616	
1268	0	31962	32702	32748	
1269	0	31428	32936	32844	
1270	0	31060	33008	32921	
1271	0	30708	33072	32906	
1272	0	29664	33180	32794	
1273	0	29504	33336	32608	
1274	0	30032	33428	32416	
1275	0	28684	33762	32296	
1276	0	30881	33926	32256	
1277	0	33640	33716	32314	
1278	0	34664	33568	32412	
1279	0	34876	33620	32556	
1280	0	36500	34078	32672	
1281	0	38702	34076	32804	
1282	0	38756	33156	32896	
1283	0	37144	32812	32932	
1284	0	36375	32572	32859	
1285	0	36016	32663	32668	
1286	0	35132	32536	32468	
1287	0	33412	32322	32388	
1288	0	31237	32036	32368	
1289	0	29712	32549	32372	
1290	0	28772	33188	32390	
1291	0	29776	33323	32358	
1292	0	30465	33311	32344	
1293	0	31148	33385	32364	
1294	0	31744	33456	32416	
1295	0	32196	33703	32524	
1296	0	32257	33823	32668	
1297	0	32016	33880	32767	
1298	0	31801	33726	32860	
1299	0	31560	33252	32879	
1300	0	32352	32793	32855	
1301	0	33052	32137	32841	
1302	0	33124	31832	32836	
1303	0	32928	31525	32840	
1304	0	32896	31189	32813	
1305	0	33141	30928	32732	
1306	0	32794	31058	32647	
1307	0	33924	31568	32486	
1308	0	33948	31932	32356	
1309	0	33362	32370	32236	
1310	0	33248	32933	32160	
1311	0	33448	33194	32135	
1312	0	33501	33356	32152	
1313	0	33474	33628	32172	
1314	0	33064	33712	32188	
1315	0	32598	33797	32188	
1316	0	32612	33968	32156	
1317	0	32892	34024	32104	
1318	0	32820	34006	32082	
1319	0	32148	33918	32060	
1320	0	32124	33828	32070	
1321	0	32354	33652	32122	
1322	0	32432	33438	32196	
1323	0	32330	33320	32322	
1324	0	32494	33248	32390	
1325	0	32388	33196	32448	
1326	0	32257	33234	32500	
1327	0	32400	33286	32564	
1328	0	32212	33257	32604	
1329	0	32256	33344	32616	
1330	0	32184	33236	32625	
1331	0	32570	33014	32650	
1332	0	32560	33065	32684	
1333	0	31966	33052	32712	
1334	0	31780	33054	32764	
1335	0	32148	32968	32792	
1336	0	32976	32996	32816	
1337	0	33736	32996	32838	
1338	0	33992	33018	32861	
1339	0	33812	32936	32864	
1340	0	34344	32896	32866	
1341	0	35882	32836	32876	
1342	0	35288	32724	32829	
1343	0	33404	32590	32756	
1344	0	32208	32724	32668	
1345	0	32320	32721	32561	
1346	0	32428	32444	32469	
1347	0	31720	32174	32340	
1348	0	31724	32218	32218	
1349	0	31226	32519	32103	
1350	0	31300	32552	31996	
1351	0	32204	32554	31932	
1352	0	32940	32424	31892	
1353	0	33318	32552	31860	
1354	0	33069	32545	31866	
1355	0	33092	32600	31908	
1356	0	33551	32360	31989	
1357	0	33308	32334	32072	
1358	0	33140	32246	32150	
1359	0	32881	32191	32221	
1360	0	32824	32110	32273	
1361	0	32958	32273	32328	
1362	0	33092	32404	32356	
1363	0	33693	32292	32400	
1364	0	33636	32390	32412	
1365	0	32949	32456	32452	
1366	0	32196	32760	32455	
1367	0	32237	32648	32477	
1368	0	31828	32692	32500	
1369	0	31396	32597	32537	
1370	0	31712	32296	32556	
1371	0	31820	32250	32565	
1372	0	32532	32312	32590	
1373	0	33450	32348	32572	
1374	0	33812	32592	32588	
1375	0	33060	32564	32588	
1376	0	31968	32501	32596	
1377	0	31380	32364	32617	
1378	0	31048	32312	32608	
1379	0	30808	32682	32609	
1380	0	32272	32632	32600	
1381	0	34288	32616	32629	
1382	0	34692	32768	32652	
1383	0	34608	32601	32668	
1384	0	34034	31660	32675	
1385	0	33468	31706	32693	
1386	0	34136	31802	32677	
1387	0	36228	32180	32652	
1388	0	35632	32068	32620	
1389	0	34412	32076	32614	
1390	0	32561	32308	32568	
1391	0	30980	32452	32548	
1392	0	30848	32580	32543	
1393	0	31264	32484	32528	
1394	0	31512	32484	32522	
1395	0	31953	32293	32500	
1396	0	32560	32356	32489	
1397	0	32916	32311	32468	
1398	0	32744	32188	32836	
1399	0	32180	32300	32532	
1400	0	31260	32390	32376	
1401	0	30220	32528	32364	
1402	0	31106	32491	32341	
1403	0	30486	32600	32384	
1404	0	30924	32608	32404	
1405	0	31592	32402	32404	
1406	0	31661	32468	32465	
1407	0	32516	32400	32394	
1408	0	33988	32360	32404	
1409	0	35420	32537	32388	
1410	0	36784	32532	32376	
1411	0	36576	32446	32337	
1412	0	36248	32606	32332	
1413	0	36220	32720	32310	
1414	0	36681	32584	32300	
1415	0	34716	32632	32285	
1416	0	32758	32913	32260	
1417	0	32028	32964	32238	
1418	0	30892	32898	32248	
1419	0	31012	32871	32233	
1420	0	31092	32762	32140	
1421	0	31458	32788	32127	
1422	0	31568	32888	32102	
1423	0	31820	32901	32096	
1424	0	31956	32876	32100	
1425	0	32058	32764	32058	
1426	0	32036	32585	32024	
1427	0	32006	32589	32036	
1428	0	31796	32547	32048	
1429	0	31836	32689	32076	
1430	0	32336	32441	32104	
1431	0	32636	32800	32142	
1432	0	32528	32937	32184	
1433	0	32984	32980	32214	
1434	0	33613	32918	32424	
1435	0	33805	32830	32184	
1436	0	33700	32976	32120	
1437	0	33236	32976	32100	
1438	0	33129	33188	32048	
1439	0	32832	33318	31988	
1440	0	32960	33397	31924	
1441	0	32960	33453	31904	
1442	0	32958	33281	31892	
1443	0	32713	33357	31919	
1444	0	32448	33198	31894	
1445	0	32124	32928	31901	
1446	0	31784	32868	31992	
1447	0	31512	32752	32024	
1448	0	31872	32752	32044	
1449	0	32384	32456	32040	
1450	0	31740	32324	32037	
1451	0	31896	32584	32048	
1452	0	33092	32672	32012	
1453	0	34180	32828	32020	
1454	0	33889	32913	32084	
1455	0	33316	33040	32104	
1456	0	32804	33072	32092	
1457	0	33004	33241	32056	
1458	0	32232	33153	32036	
1459	0	30916	33145	32020	
1460	0	30160	33272	32057	
1461	0	31326	33264	31953	
1462	0	34628	33048	31960	
1463	0	35480	33084	31935	
1464	0	34556	33136	31878	
1465	0	33128	33046	31816	
1466	0	33480	33072	31790	
1467	0	33940	33472	31944	
1468	0	34808	32900	31716	
1469	0	34145	32878	31713	
1470	0	34088	33020	31741	
1471	0	35140	33207	31735	
1472	0	35144	33252	31732	
1473	0	33473	32841	31765	
1474	0	31296	32826	31806	
1475	0	30672	32889	31932	
1476	0	31748	32980	31888	
1477	0	32494	33060	31956	
1478	0	32636	33076	32032	
1479	0	32744	33044	32088	
1480	0	32458	33268	32092	
1481	0	32108	33044	32124	
1482	0	31522	32780	32138	
1483	0	31304	32588	32184	
1484	0	31933	32674	32237	
1485	0	32100	32744	32176	
1486	0	31944	32663	32188	
1487	0	31884	32488	32256	
1488	0	31716	32164	32230	
1489	0	32157	32357	32236	
1490	0	32434	32425	32212	
1491	0	32504	32736	32226	
1492	0	32456	32692	32248	
1493	0	32700	32522	32252	
1494	0	32948	32844	32260	
1495	0	33216	32972	32474	
1496	0	33134	32892	32232	
1497	0	33032	33132	32244	
1498	0	33724	33446	32249	
1499	0	33912	33270	32228	
1500	0	34313	33060	32231	
1501	0	33544	32856	32248	
1502	0	33292	32795	32263	
1503	0	33180	32808	32256	
1504	0	32820	32716	32264	
1505	0	32408	32845	32285	
1506	0	32140	32972	32284	
1507	0	31977	32760	32284	
1508	0	31965	32912	32286	
1509	0	32081	32948	32376	
1510	0	32372	32932	32295	
1511	0	32504	32852	32327	
1512	0	32250	32868	32376	
1513	0	32200	32824	32357	
1514	0	32312	32844	32310	
1515	0	32604	32812	32309	
1516	0	32776	32976	32286	
1517	0	33174	32967	32276	
1518	0	33544	33015	32252	
1519	0	33518	33000	32217	
1520	0	33805	33012	32166	
1521	0	34408	32928	32094	
1522	0	34172	33206	32068	
1523	0	33688	33135	32008	
1524	0	33268	32869	31996	
1525	0	33213	32876	32005	
1526	0	31856	32942	32300	
1527	0	30677	32904	32012	
1528	0	31600	32656	32016	
1529	0	32604	32672	32026	
1530	0	32408	32941	32008	
1531	0	32396	33044	32012	
1532	0	32161	33248	32006	
1533	0	33940	33060	32006	
1534	0	33464	33164	31991	
1535	0	33188	33309	31981	
1536	0	33156	33406	31975	
1537	0	33512	33486	31944	
1538	0	33492	33570	31908	
1539	0	33658	33304	31973	
1540	0	32600	33201	31957	
1541	0	31450	33316	31940	
1542	0	31180	33032	31944	
1543	0	31468	32736	31916	
1544	0	31806	32624	31901	
1545	0	32372	32526	31916	
1546	0	34604	32508	31893	
1547	0	33396	32252	32016	
1548	0	32632	32248	31791	
1549	0	34376	32176	31780	
1550	0	33944	32326	31783	
1551	0	33304	32462	31710	
1552	0	32557	32656	31661	
1553	0	31944	32900	31636	
1554	0	32016	32916	31610	
1555	0	32356	33032	31600	
1556	0	32692	33232	31604	
1557	0	32904	33254	31609	
1558	0	33044	33052	31636	
1559	0	33212	33148	31607	
1560	0	33282	33292	31618	
1561	0	32688	33308	31688	
1562	0	32312	33224	31720	
1563	0	32157	33020	31728	
1564	0	32204	33044	31712	
1565	0	31327	33136	31718	
1566	0	30956	33038	31720	
1567	0	31268	32844	31716	
1568	0	31996	33157	31688	
1569	0	33300	32656	31672	
1570	0	33956	32593	31671	
1571	0	34685	32815	31716	
1572	0	34508	32893	31596	
1573	0	33169	32913	31625	
1574	0	33300	32988	31712	
1575	0	33448	32957	31727	
1576	0	33482	33084	31697	
1577	0	33264	32832	31693	
1578	0	33389	32740	31678	
1579	0	32441	32791	31669	
1580	0	32716	32893	31661	
1581	0	32496	32812	31668	
1582	0	32506	32600	31684	
1583	0	32405	32545	31813	
1584	0	32004	32616	31690	
1585	0	32256	32588	31725	
1586	0	32616	32764	31796	
1587	0	32212	32828	31804	
1588	0	31612	32860	31780	
1589	0	31573	32662	31770	
1590	0	32037	32584	31753	
1591	0	32240	32665	31733	
1592	0	33016	32466	31726	
1593	0	33592	32639	31877	
1594	0	33592	32757	31687	
1595	0	33440	32742	31732	
1596	0	33336	32903	31761	
1597	0	33254	33100	31751	
1598	0	33944	32604	31732	
1599	0	34276	32723	31720	
1600	0	34332	32684	31724	
1601	0	33618	32748	31760	
1602	0	32720	32672	31772	
1603	0	32040	32824	31788	
1604	0	32670	32656	31804	
1605	0	32492	32434	31827	
1606	0	32532	32492	31909	
1607	0	32060	32572	31786	
1608	0	32005	32756	31860	
1609	0	31828	32614	31872	
1610	0	31961	32596	31848	
1611	0	32088	32621	31849	
1612	0	31914	32500	31845	
1613	0	32224	32597	31876	
1614	0	32266	32768	31873	
1615	0	32852	32816	31873	
1616	0	33234	32973	31844	
1617	0	33300	32952	31852	
1618	0	33536	32854	31863	
1619	0	33856	32880	31862	
1620	0	34144	32862	31852	
1621	0	33760	32944	31853	
1622	0	33513	32860	31860	
1623	0	33025	32676	31828	
1624	0	32520	32766	31880	
1625	0	31794	32737	31904	
1626	0	31530	32652	31873	
1627	0	31312	32738	31852	
1628	0	30816	32708	31840	
1629	0	29976	32884	31816	
1630	0	28777	32816	31844	
1631	0	25196	32696	31836	
1632	0	25100	32765	31837	
1633	0	29824	33204	31820	
1634	0	35340	32984	31802	
1635	0	39300	32901	31765	
1636	0	42008	32996	31729	
1637	0	43220	32848	31700	
1638	0	43292	32704	31808	
1639	0	39972	32830	31632	
1640	0	35656	32743	31647	
1641	0	33688	32912	31692	
1642	0	32180	32956	31690	
1643	0	29221	32553	31700	
1644	0	28844	32411	31721	
1645	0	29940	32596	31728	
1646	0	29828	32712	31745	
1647	0	29928	32735	31748	
1648	0	30240	32890	31743	
1649	0	30708	32924	31742	
1650	0	31296	32813	31724	
1651	0	32188	32822	31714	
1652	0	32132	32807	31692	
1653	0	32166	32812	31672	
1654	0	32328	32709	31668	
1655	0	31940	32564	31644	
1656	0	32128	32900	31609	
1657	0	32905	32261	31580	
1658	0	33902	32564	31560	
1659	0	34050	32553	31572	
1660	0	35020	32592	31592	
1661	0	35052	32736	31590	
1662	0	33330	32418	31602	
1663	0	32196	32718	31600	
1664	0	32286	32608	31644	
1665	0	32218	32633	31670	
1666	0	32400	32896	31688	
1667	0	32418	32697	31709	
1668	0	31658	32647	31740	
1669	0	31828	32744	31960	
1670	0	31932	33036	31756	
1671	0	32080	33040	31797	
1672	0	32164	32785	31837	
1673	0	32584	32876	31788	
1674	0	32992	32923	31768	
1675	0	33084	32920	31789	
1676	0	33380	32852	31780	
1677	0	34652	32992	31778	
1678	0	34260	32878	31782	
1679	0	33561	33096	31824	
1680	0	33128	32820	31828	
1681	0	32784	32791	31844	
1682	0	32489	32702	31838	
1683	0	32616	33108	31864	
1684	0	32524	32786	31880	
1685	0	32524	32660	31893	
1686	0	32620	32775	31911	
1687	0	32450	32833	31924	
1688	0	32034	32896	31920	
1689	0	32007	32960	31952	
1690	0	32036	33036	32122	
1691	0	32248	32855	31937	
1692	0	32388	32948	31965	
1693	0	32752	32926	31984	
1694	0	32508	33040	31956	
1695	0	33005	32900	31914	
1696	0	33652	33007	31886	
1697	0	33732	32905	31872	
1698	0	33612	32710	31826	
1699	0	33424	32860	31816	
1700	0	33576	32993	31811	
1701	0	33778	33056	31773	
1702	0	33268	33116	31781	
1703	0	32856	33140	31792	
1704	0	32856	33090	31828	
1705	0	32828	33025	31852	
1706	0	32428	33016	31972	
1707	0	32054	32903	31850	
1708	0	32022	32895	31914	
1709	0	31920	33031	31936	
1710	0	31810	32943	31893	
1711	0	31896	32942	31888	
1712	0	32016	33112	31888	
1713	0	32568	33190	31877	
1714	0	32768	33262	31860	
1715	0	32980	33065	31836	
1716	0	32932	32996	31823	
1717	0	32936	33146	31809	
1718	0	33128	32968	31784	
1719	0	32552	32824	31824	
1720	0	31644	32839	31732	
1721	0	31780	32740	31751	
1722	0	32439	32784	31820	
1723	0	32548	32577	31796	
1724	0	33648	32589	31812	
1725	0	34976	32664	31842	
1726	0	35301	32723	31853	
1727	0	34610	32764	31832	
1728	0	35272	32749	31794	
1729	0	34436	32740	31801	
1730	0	32980	32998	31822	
1731	0	31902	32860	31805	
1732	0	31744	32916	31769	
1733	0	31460	33068	31824	
1734	0	30396	33080	31817	
1735	0	31230	33127	31792	
1736	0	31828	33208	31788	
1737	0	32452	33149	31793	
1738	0	31844	33036	31804	
1739	0	33192	32928	31769	
1740	0	34776	32942	31744	
1741	0	34716	32988	31746	
1742	0	33656	32865	31724	
1743	0	32592	32848	31673	
1744	0	31548	32852	31677	
1745	0	29196	32625	31704	
1746	0	30160	32688	31696	
1747	0	31620	32576	31660	
1748	0	33420	32847	31664	
1749	0	33856	32864	31631	
1750	0	34620	32647	31613	
1751	0	35156	32528	31596	
1752	0	35852	32712	31594	
1753	0	35540	32965	31600	
1754	0	33732	32924	31582	
1755	0	33401	32775	31688	
1756	0	32646	32660	31552	
1757	0	31936	32552	31607	
1758	0	32188	32673	31644	
1759	0	32088	32780	31680	
1760	0	32032	32720	31700	
1761	0	31964	32772	31732	
1762	0	32192	32788	31749	
1763	0	32364	32753	31774	
1764	0	32492	32496	31792	
1765	0	32038	32444	31802	
1766	0	31840	32541	31820	
1767	0	33000	32562	31832	
1768	0	32580	32660	31837	
1769	0	31964	32681	31853	
1770	0	32048	32734	31872	
1771	0	32070	32644	31804	
1772	0	32264	32828	31837	
1773	0	32420	33031	31857	
1774	0	32812	32768	31840	
1775	0	33091	32660	31868	
1776	0	33300	32917	31873	
1777	0	33701	32808	31852	
1778	0	33900	32848	31842	
1779	0	33580	33000	31860	
1780	0	33272	32996	31860	
1781	0	33124	32934	31852	
1782	0	32916	32942	31880	
1783	0	32916	33008	31884	
1784	0	32620	32902	31900	
1785	0	32364	32576	31906	
1786	0	32240	32663	31821	
1787	0	32198	32745	31854	
1788	0	31992	32860	31908	
1789	0	32228	32775	31881	
1790	0	32264	32952	31844	
1791	0	32328	32892	31832	
1792	0	32552	32661	31814	
1793	0	32952	32740	31812	
1794	0	32989	32969	31812	
1795	0	32914	32838	31789	
1796	0	33104	32844	31792	
1797	0	33213	32878	31800	
1798	0	33392	32944	31784	
1799	0	34252	32900	31798	
1800	0	34049	32900	31808	
1801	0	33194	32924	31788	
1802	0	32936	32912	31804	
1803	0	32836	32847	31936	
1804	0	32692	32909	31782	
1805	0	32512	32796	31813	
1806	0	32221	32790	31876	
1807	0	32080	32710	31848	
1808	0	31854	32752	31829	
1809	0	31984	32876	31874	
1810	0	31888	32989	31872	
1811	0	31926	33116	31872	
1812	0	31933	33141	31868	
1813	0	32672	33209	31865	
1814	0	33736	33192	31848	
1815	0	33508	32884	31836	
1816	0	33256	32814	31820	
1817	0	33038	33008	31780	
1818	0	32896	33068	31766	
1819	0	32964	33072	31737	
1820	0	33172	32860	31735	
1821	0	33212	32910	31861	
1822	0	32433	32700	31705	
1823	0	32944	32784	31736	
1824	0	33084	32756	31732	
1825	0	33182	32816	31685	
1826	0	33368	33020	31637	
1827	0	34424	32936	31654	
1828	0	33860	32848	31658	
1829	0	32818	32772	31623	
1830	0	31548	32847	31622	
1831	0	31536	32950	31636	
1832	0	31916	32920	31629	
1833	0	32004	32916	31640	
1834	0	32072	32996	31692	
1835	0	32765	33002	31616	
1836	0	32996	32984	31649	
1837	0	32664	33040	31698	
1838	0	33036	33016	31684	
1839	0	33482	32732	31664	
1840	0	33752	32585	31676	
1841	0	32137	32776	31697	
1842	0	31860	32884	31702	
1843	0	32448	32788	31696	
1844	0	32672	32820	31700	
1845	0	33273	32838	31704	
1846	0	33733	32684	31772	
1847	0	33300	32844	31681	
1848	0	33076	32896	31716	
1849	0	32260	32752	31728	
1850	0	32217	32780	31696	
1851	0	32817	32858	31709	
1852	0	32640	32930	31704	
1853	0	32205	32898	31692	
1854	0	32332	32986	31706	
1855	0	32620	32882	31710	
1856	0	33257	32954	31688	
1857	0	33436	32924	31714	
1858	0	33808	33380	31718	
1859	0	34141	33012	31757	
1860	0	33660	32466	31788	
1861	0	32954	32885	31749	
1862	0	32548	32881	31800	
1863	0	32424	32721	31826	
1864	0	32184	32732	31805	
1865	0	31972	32604	31808	
1866	0	32462	32736	31800	
1867	0	31896	32828	31772	
1868	0	31504	32689	31757	
1869	0	31628	32751	31756	
1870	0	31960	32758	31757	
1871	0	32644	32772	31756	
1872	0	33464	32772	31743	
1873	0	33816	32974	31724	
1874	0	33834	33048	31725	
1875	0	33550	32971	31740	
1876	0	33344	32992	31778	
1877	0	33196	33068	31740	
1878	0	33242	33030	31760	
1879	0	32966	32868	31802	
1880	0	32752	32927	31808	
1881	0	32956	33054	31796	
1882	0	32984	32956	31796	
1883	0	32972	32921	31796	
1884	0	32552	32933	31808	
1885	0	31213	32852	31789	
1886	0	30464	32824	31812	
1887	0	31120	32768	31813	
1888	0	32136	32580	31823	
1889	0	33248	32646	31816	
1890	0	33657	32662	31817	
1891	0	34108	32600	31808	
1892	0	34504	32682	31800	
1893	0	33896	32572	31790	
1894	0	33344	32573	31797	
1895	0	33016	32740	31758	
1896	0	32696	32841	31740	
1897	0	32297	32917	31786	
1898	0	32569	32796	31774	
1899	0	32781	32734	31769	
1900	0	32644	32857	31790	
1901	0	32728	32966	31794	
1902	0	32744	33018	31792	
1903	0	32312	32996	31796	
1904	0	33284	32892	31777	
1905	0	32920	32908	31773	
1906	0	32428	32910	31740	
1907	0	32078	32924	31724	
1908	0	31548	32933	31718	
1909	0	31512	32916	31698	
1910	0	31700	32874	31704	
1911	0	32396	32849	31740	
1912	0	32680	33030	31661	
1913	0	32200	33129	31668	
1914	0	33617	32922	31686	
1915	0	34400	32916	31684	
1916	0	34264	32992	31656	
1917	0	34288	33013	31657	
1918	0	35436	32992	31634	
1919	0	34872	33020	31640	
1920	0	33262	32808	31644	
1921	0	32528	32652	31644	
1922	0	32464	32700	31636	
1923	0	31972	32788	31660	
1924	0	31784	32672	31694	
1925	0	31896	32636	31716	
1926	0	31992	32728	31724	
1927	0	31664	32710	31721	
1928	0	31801	32556	31740	
1929	0	32908	32661	31744	
1930	0	32436	32752	31776	
1931	0	32105	32864	31784	
1932	0	32204	33008	31806	
1933	0	32484	32772	31808	
1934	0	32748	32816	31824	
1935	0	32880	32824	31840	
1936	0	33376	32948	31772	
1937	0	33638	33056	31786	
1938	0	33412	32849	31778	
1939	0	33224	32892	31756	
1940	0	33248	32908	31737	
1941	0	33044	33016	31732	
1942	0	32649	32799	31748	
1943	0	32414	32688	31775	
1944	0	31972	32868	31783	
1945	0	31988	32903	31776	
1946	0	31956	33073	31792	
1947	0	32616	32514	31801	
1948	0	33556	32736	31828	
1949	0	33488	32713	31825	
1950	0	33028	32703	31820	
1951	0	32700	32840	31823	
1952	0	32080	32780	31836	
1953	0	32442	32856	31849	
1954	0	32184	32848	31841	
1955	0	32432	32814	31823	
1956	0	33084	32908	31844	
1957	0	33687	32840	31864	
1958	0	34149	32810	31804	
1959	0	34413	32800	31832	
1960	0	34420	32866	31848	
1961	0	33960	32760	31860	
1962	0	33052	32864	31840	
1963	0	32500	32820	31854	
1964	0	32048	32996	31856	
1965	0	31776	32852	31857	
1966	0	31468	32841	31845	
1967	0	31648	32687	31840	
1968	0	31696	32826	31822	
1969	0	31964	32742	31838	
1970	0	32248	32788	31836	
1971	0	32549	32924	31834	
1972	0	33284	32863	31844	
1973	0	32760	32868	31847	
1974	0	32513	32896	31812	
1975	0	32760	32986	31804	
1976	0	33160	32927	31813	
1977	0	33444	32852	31841	
1978	0	33120	32910	31855	
1979	0	33048	33029	31864	
1980	0	33004	32969	31946	
1981	0	32644	32758	31812	
1982	0	32356	32996	31812	
1983	0	32712	32967	31825	
1984	0	32892	32855	31796	
1985	0	32324	32756	31764	
1986	0	33424	32681	31751	
1987	0	33364	32775	31738	
1988	0	33376	32889	31704	
1989	0	33044	32652	31708	
1990	0	32792	32672	31709	
1991	0	32524	32884	31735	
1992	0	32508	33108	31733	
1993	0	32612	32816	31750	
1994	0	32610	32737	31780	
1995	0	32873	33052	31806	
1996	0	32660	32998	31808	
1997	0	32602	32836	31833	
1998	0	33537	32780	31848	
1999	0	34028	32519	31888	
2000	0	33444	32557	31812	
2001	0	32948	32719	31820	
2002	0	32704	32740	31836	
2003	0	32644	32789	31815	
2004	0	32640	32764	31788	
2005	0	32174	32772	31764	
2006	0	31865	32913	31750	
2007	0	32066	32786	31759	
2008	0	32148	32708	31748	
2009	0	32244	32805	31780	
2010	0	32108	32932	31792	
2011	0	32452	32801	31791	
2012	0	32656	32669	31793	
2013	0	32800	32758	31794	
2014	0	32864	32836	31803	
2015	0	32657	32838	31794	
2016	0	33146	32984	31796	
2017	0	33532	33095	31816	
2018	0	33820	33020	31805	
2019	0	33940	33036	31780	
2020	0	33940	32938	31812	
2021	0	33220	32862	31797	
2022	0	32808	32884	31806	
2023	0	32980	32820	31792	
2024	0	32824	32700	31800	
2025	0	32312	32724	31804	
2026	0	31948	32715	31792	
2027	0	31468	32704	31812	
2028	0	31188	32704	31812	
2029	0	31672	32868	31836	
2030	0	31900	32740	31844	
2031	0	32406	32748	31832	
2032	0	33520	32868	31844	
2033	0	33060	32949	31842	
2034	0	33112	32924	31824	
2035	0	33528	32980	31846	
2036	0	33692	33028	31825	
2037	0	33712	33044	31808	
2038	0	33337	33132	31808	
2039	0	34218	32762	31798	
2040	0	34060	32648	31816	
2041	0	33016	32708	31812	
2042	0	32537	32760	31822	
2043	0	32214	32861	31813	
2044	0	32216	33156	31809	
2045	0	32762	32472	31820	
2046	0	32727	32552	31828	
2047	0	31952	32557	31837	
2048	0	31580	32750	31838	
2049	0	31504	32898	31856	
2050	0	32340	32892	31845	
2051	0	33032	32952	31853	
2052	0	32728	33182	31866	
2053	0	32672	33088	31876	
2054	0	32668	33016	31888	
2055	0	32988	32989	31864	
2056	0	33429	33204	31846	
2057	0	33397	33012	31860	
2058	0	33410	32784	31876	
2059	0	33144	32656	31866	
2060	0	33080	32692	31844	
2061	0	33560	32476	31822	
2062	0	33136	32368	31822	
2063	0	32943	32468	31834	
2064	0	32464	32468	31832	
2065	0	32057	32476	31820	
2066	0	32040	32558	31821	
2067	0	32108	32544	31816	
2068	0	32120	32604	31813	
2069	0	32273	32670	31813	
2070	0	32576	32725	31781	
2071	0	32744	33011	31792	
2072	0	33192	32792	31785	
2073	0	32836	33000	31783	
2074	0	32448	33238	31802	
2075	0	32536	33116	31812	
2076	0	33080	33100	31826	
2077	0	33476	33108	31794	
2078	0	33848	33051	31796	
2079	0	34000	33050	31808	
2080	0	34176	33004	31846	
2081	0	33444	33028	31844	
2082	0	32752	32964	31820	
2083	0	32516	33097	31840	
2084	0	32136	32960	31828	
2085	0	31833	32864	31841	
2086	0	32200	32780	31848	
2087	0	32267	32892	31833	
2088	0	31932	32997	31834	
2089	0	31908	32702	31853	
2090	0	32100	32652	31846	
2091	0	32198	32791	31844	
2092	0	32624	32620	31848	
2093	0	32588	32701	31860	
2094	0	32985	32860	31880	
2095	0	33561	32913	31878	
2096	0	33824	32844	31868	
2097	0	33508	32956	31868	
2098	0	33413	32805	31878	
2099	0	33416	32840	31884	
2100	0	33336	32912	31913	
2101	0	33144	32884	31910	
2102	0	32940	32964	31909	
2103	0	32748	32818	31924	
2104	0	32496	32732	31928	
2105	0	32200	32812	31912	
2106	0	31828	32826	31917	
2107	0	32024	32772	31909	
2108	0	32012	32805	31905	
2109	0	31988	32654	31903	
2110	0	32136	32806	31866	
2111	0	32460	32984	31870	
2112	0	32892	32829	31896	
2113	0	32448	32812	31895	
2114	0	32764	32890	31877	
2115	0	33152	32852	31860	
2116	0	33921	32956	31872	
2117	0	34904	32990	31860	
2118	0	34148	32780	31856	
2119	0	33476	32712	31838	
2120	0	33029	32804	31808	
2121	0	33128	32768	31821	
2122	0	33048	32799	31831	
2123	0	32568	32794	31840	
2124	0	32404	32800	31855	
2125	0	32100	32724	31868	
2126	0	31600	32812	31852	
2127	0	31388	32884	31845	
2128	0	31202	32746	31860	
2129	0	31192	32889	31849	
2130	0	31049	32880	31863	
2131	0	31049	32519	31860	
2132	0	31661	32876	31856	
2133	0	33284	32784	31852	
2134	0	34444	32692	31844	
2135	0	34992	32892	31813	
2136	0	34725	32978	31797	
2137	0	34656	32980	31808	
2138	0	35808	32592	31792	
2139	0	35080	32852	31800	
2140	0	34850	32952	31797	
2141	0	33484	32878	31780	
2142	0	32232	32689	31789	
2143	0	32032	32877	31784	
2144	0	31928	32793	31800	
2145	0	31488	32769	31816	
2146	0	31458	32805	31831	
2147	0	31516	32732	31844	
2148	0	31500	32696	31854	
2149	0	31541	33139	31898	
2150	0	31764	32444	31892	
2151	0	32072	32654	31892	
2152	0	32076	32801	31900	
2153	0	32448	32880	31872	
2154	0	32896	32962	31876	
2155	0	33036	32944	31862	
2156	0	33140	32954	31876	
2157	0	33676	32900	31876	
2158	0	33924	32801	31868	
2159	0	34024	32712	31868	
2160	0	33624	32800	31848	
2161	0	33196	32716	31841	
2162	0	32852	32764	31825	
2163	0	32676	32720	31837	
2164	0	32592	32758	31836	
2165	0	32364	32730	31825	
2166	0	32284	32948	31821	
2167	0	32040	33092	31828	
2168	0	32032	32916	31820	
2169	0	32188	33031	31833	
2170	0	32325	32832	31824	
2171	0	32380	32816	31833	
2172	0	32386	32839	31837	
2173	0	32574	32834	31828	
2174	0	32732	32706	31840	
2175	0	33188	32644	31821	
2176	0	33656	32613	31812	
2177	0	33586	32822	31794	
2178	0	33732	32481	31796	
2179	0	33596	32372	31801	
2180	0	33328	32553	31804	
2181	0	33213	32601	31796	
2182	0	32912	32784	31806	
2183	0	32836	32868	31818	
2184	0	32692	32836	31816	
2185	0	32384	32824	31812	
2186	0	32172	33001	31824	
2187	0	32172	32909	31820	
2188	0	32145	32756	31836	
2189	0	32296	32856	31820	
2190	0	32326	33000	31832	
2191	0	32464	32995	31836	
2192	0	32368	32916	31840	
2193	0	32484	32859	31844	
2194	0	32808	32903	31844	
2195	0	33124	32935	31844	
2196	0	33390	33041	31865	
2197	0	33408	33188	31840	
2198	0	33612	33021	31844	
2199	0	33360	32962	31839	
2200	0	33076	32876	31828	
2201	0	33040	32925	31828	
2202	0	32940	32872	31817	
2203	0	32804	32732	31840	
2204	0	32708	32832	31828	
2205	0	32480	32708	31824	
2206	0	32060	32757	31838	
2207	0	32348	32754	31846	
2208	0	32680	32760	31832	
2209	0	32420	32622	31828	
2210	0	32292	32760	31832	
2211	0	32420	32876	31820	
2212	0	32692	32996	31792	
2213	0	32968	32937	31792	
2214	0	33308	33004	31784	
2215	0	33180	33056	31750	
2216	0	33224	33061	31756	
2217	0	33132	32972	31765	
2218	0	32972	32932	31751	
2219	0	33060	32897	31736	
2220	0	33016	32903	31740	
2221	0	32752	32816	31729	
2222	0	33412	32670	31720	
2223	0	32754	32820	31724	
2224	0	32296	32613	31738	
2225	0	32212	32612	31716	
2226	0	31976	32645	31741	
2227	0	31784	32669	31738	
2228	0	32196	32768	31728	
2229	0	31677	32636	31701	
2230	0	31144	32813	31700	
2231	0	32424	32740	31693	
2232	0	33377	32712	31671	
2233	0	33900	32864	31653	
2234	0	34392	32840	31647	
2235	0	34148	32830	31640	
2236	0	33789	32976	31650	
2237	0	33110	32840	31646	
2238	0	33444	32852	31656	
2239	0	33688	33168	31645	
2240	0	34018	32925	31648	
2241	0	33676	33007	31648	
2242	0	33620	32813	31640	
2243	0	33072	32832	31633	
2244	0	32349	32772	31648	
2245	0	31728	32925	31664	
2246	0	31562	32865	31678	
2247	0	31421	32892	31704	
2248	0	31432	32868	31709	
2249	0	31708	32766	31712	
2250	0	31920	32793	31712	
2251	0	32160	32812	31717	
2252	0	32368	32689	31712	
2253	0	32812	32740	31710	
2254	0	33016	32928	31720	
2255	0	33248	32783	31708	
2256	0	33789	32892	31712	
2257	0	33468	32922	31712	
2258	0	33192	32840	31704	
2259	0	33102	32705	31705	
2260	0	33125	32768	31727	
2261	0	33032	32715	31724	
2262	0	33208	32720	31716	
2263	0	33128	32732	31748	
2264	0	32842	32776	31759	
2265	0	32476	32644	31792	
2266	0	32201	32844	31809	
2267	0	32080	32846	31806	
2268	0	31884	32692	31811	
2269	0	32020	32856	31812	
2270	0	32402	32890	31802	
2271	0	32512	32948	31800	
2272	0	32672	32880	31797	
2273	0	32845	32997	31796	
2274	0	32954	32916	31792	
2275	0	33176	32992	31788	
2276	0	33412	33004	31812	
2277	0	33328	33002	31791	
2278	0	33096	32960	31784	
2279	0	33032	32921	31780	
2280	0	33076	32885	31772	
2281	0	33164	32812	31780	
2282	0	33302	32816	31788	
2283	0	33180	32868	31776	
2284	0	32704	32807	31776	
2285	0	32420	32822	31768	
2286	0	32508	32972	31765	
2287	0	32400	32744	31716	
2288	0	32168	32488	31721	
2289	0	32068	32764	31727	
2290	0	32080	32718	31730	
2291	0	32452	32864	31701	
2292	0	32829	32726	31708	
2293	0	33089	32904	31700	
2294	0	33144	32904	31672	
2295	0	33080	32628	31682	
2296	0	33078	32849	31698	
2297	0	33441	32928	31716	
2298	0	33100	32982	31737	
2299	0	33024	32876	31748	
2300	0	33082	32752	31728	
2301	0	32968	32734	31740	
2302	0	32876	32752	31748	
2303	0	33252	32896	31748	
2304	0	33100	32761	31749	
2305	0	32562	32732	31738	
2306	0	32344	32870	31740	
2307	0	32225	32919	31764	
2308	0	32138	32751	31760	
2309	0	32161	32808	31777	
2310	0	32150	32768	31772	
2311	0	32372	32904	31781	
2312	0	32612	32913	31804	
2313	0	32812	32852	31804	
2314	0	32732	32948	31804	
2315	0	32972	32730	31793	
2316	0	33156	32638	31783	
2317	0	33004	33152	31776	
2318	0	32544	32676	31769	
2319	0	32196	32512	31750	
2320	0	32168	32710	31728	
2321	0	32536	32612	31700	
2322	0	33502	32576	31673	
2323	0	33488	32677	31659	
2324	0	33468	32636	31671	
2325	0	33493	32645	31656	
2326	0	33320	32722	31652	
2327	0	33460	32861	31646	
2328	0	33265	32852	31645	
2329	0	33024	32854	31638	
2330	0	32816	32972	31617	
2331	0	32556	32880	31613	
2332	0	32137	32976	31640	
2333	0	32046	32900	31644	
2334	0	32137	33036	31652	
2335	0	32428	33112	31660	
2336	0	32772	33110	31656	
2337	0	32896	33124	31664	
2338	0	32992	33188	31676	
2339	0	33114	32821	31684	
2340	0	33484	32876	31693	
2341	0	33036	32812	31704	
2342	0	32992	32864	31688	
2343	0	33204	32852	31678	
2344	0	32732	32805	31689	
2345	0	32424	32854	31712	
2346	0	32521	32693	31700	
2347	0	32328	32762	31702	
2348	0	32124	32717	31715	
2349	0	32225	32660	31700	
2350	0	32384	32626	31656	
2351	0	32476	32740	31665	
2352	0	32564	32790	31676	
2353	0	32711	32744	31692	
2354	0	32764	32841	31694	
2355	0	32966	32830	31696	
2356	0	33081	32992	31724	
2357	0	33164	32993	31710	
2358	0	33194	32884	31716	
2359	0	33229	32871	31726	
2360	0	33092	32856	31720	
2361	0	33068	32910	31719	
2362	0	32976	32925	31742	
2363	0	32790	32810	31720	
2364	0	32908	32813	31719	
2365	0	33012	32692	31724	
2366	0	32748	32756	31724	
2367	0	32612	32689	31720	
2368	0	32420	32620	31714	
2369	0	31948	32614	31712	
2370	0	32008	32597	31710	
2371	0	32120	32696	31700	
2372	0	32164	32724	31712	
2373	0	32664	32752	31727	
2374	0	33036	32826	31738	
2375	0	33204	32797	31742	
2376	0	33072	32964	31735	
2377	0	33118	33048	31756	
2378	0	33852	32820	31732	
2379	0	33812	32910	31735	
2380	0	33308	32940	31728	
2381	0	33180	32832	31730	
2382	0	32900	32864	31753	
2383	0	32756	32881	31740	
2384	0	32769	32952	31716	
2385	0	32785	32836	31722	
2386	0	32503	32837	31724	
2387	0	32104	32838	31706	
2388	0	32148	32704	31700	
2389	0	32301	32759	31705	
2390	0	32068	32854	31708	
2391	0	32202	32817	31706	
2392	0	32208	32812	31712	
2393	0	32392	32952	31696	
2394	0	31920	32937	31709	
2395	0	31988	33057	31714	
2396	0	32946	32976	31696	
2397	0	33296	32924	31706	
2398	0	33420	33196	31728	
2399	0	33716	33104	31732	
2400	0	33839	32612	31706	
2401	0	34468	32728	31708	
2402	0	34328	32885	31700	
2403	0	34052	32848	31700	
2404	0	33764	32704	31676	
2405	0	32968	32798	31670	
2406	0	32192	32773	31672	
2407	0	31736	32689	31660	
2408	0	31776	32775	31644	
2409	0	31720	33119	31640	
2410	0	31999	33252	31652	
2411	0	32048	33376	31656	
2412	0	32080	33376	31668	
2413	0	32484	33240	31684	
2414	0	32676	32986	31684	
2415	0	32705	32772	31681	
2416	0	32812	32787	31708	
2417	0	32733	32564	31714	
2418	0	32689	32505	31704	
2419	0	32824	32421	31680	
2420	0	33496	32186	31668	
2421	0	33480	31816	31656	
2422	0	33336	31985	31648	
2423	0	33332	32384	31650	
2424	0	33620	32260	31676	
2425	0	33585	32332	31678	
2426	0	33122	32734	31681	
2427	0	32688	32846	31684	
2428	0	32456	32889	31680	
2429	0	31997	33004	31664	
2430	0	31760	32988	31646	
2431	0	31860	33108	31632	
2432	0	32124	33030	31636	
2433	0	32396	33105	31637	
2434	0	32608	33050	31654	
2435	0	32904	32956	31656	
2436	0	33097	33112	31684	
2437	0	33188	33008	31690	
2438	0	33316	32974	31700	
2439	0	33313	32969	31704	
2440	0	33356	32934	31719	
2441	0	33104	32940	31724	
2442	0	32836	32881	31728	
2443	0	32756	32760	31738	
2444	0	32272	32748	31719	
2445	0	32176	32896	31744	
2446	0	32357	32784	31734	
2447	0	32661	32809	31724	
2448	0	32324	32731	31744	
2449	0	32152	32744	31742	
2450	0	32348	32736	31728	
2451	0	32316	32857	31750	
2452	0	32612	32814	31733	
2453	0	33401	32895	31708	
2454	0	33892	32913	31740	
2455	0	34036	32809	31732	
2456	0	33527	32876	31726	
2457	0	32960	33068	31716	
2458	0	33053	33016	31724	
2459	0	33174	32812	31743	
2460	0	32918	32728	31712	
2461	0	32900	32821	31728	
2462	0	32812	33024	31766	
2463	0	32756	32806	31767	
2464	0	32592	32844	31775	
2465	0	32356	32712	31772	
2466	0	32200	32640	31782	
2467	0	31872	32674	31772	
2468	0	31924	32669	31788	
2469	0	32200	32671	31768	
2470	0	32468	32660	31780	
2471	0	32752	32742	31790	
2472	0	32984	32880	31796	
2473	0	32916	32852	31796	
2474	0	32903	32927	31784	
2475	0	33184	32952	31776	
2476	0	33426	32944	31760	
2477	0	33544	33096	31744	
2478	0	33312	32980	31751	
2479	0	33182	33097	31745	
2480	0	32868	32990	31734	
2481	0	32333	32791	31712	
2482	0	32265	32742	31714	
2483	0	32408	32772	31727	
2484	0	32496	32700	31732	
2485	0	32640	32676	31751	
2486	0	32804	32726	31734	
2487	0	32717	32614	31736	
2488	0	32885	32636	31740	
2489	0	33032	32714	31725	
2490	0	33216	32706	31728	
2491	0	32912	32872	31720	
2492	0	32494	32768	31732	
2493	0	32430	32872	31712	
2494	0	32404	32864	31688	
2495	0	32604	32828	31678	
2496	0	32896	33084	31685	
2497	0	33008	32840	31689	
2498	0	33028	32628	31716	
2499	0	33096	32765	31688	
2500	0	33044	33013	31692	
2501	0	33176	33001	31686	
2502	0	33130	32845	31688	
2503	0	32676	32864	31688	
2504	0	31876	32868	31680	
2505	0	32201	33244	31688	
2506	0	32448	32426	31708	
2507	0	32652	32553	31708	
2508	0	32908	32640	31710	
2509	0	33117	32794	31696	
2510	0	33028	32924	31708	
2511	0	32916	32752	31711	
2512	0	32860	32828	31777	
2513	0	32560	32796	31636	
2514	0	32620	32884	31674	
2515	0	32636	32884	31716	
2516	0	32732	32899	31702	
2517	0	33084	32921	31696	
2518	0	33168	32813	31700	
2519	0	33246	32858	31710	
2520	0	32794	32880	31744	
2521	0	32592	32751	31738	
2522	0	32944	32664	31712	
2523	0	33061	32772	31716	
2524	0	33144	32654	31741	
2525	0	32832	32752	31730	
2526	0	32580	32844	31743	
2527	0	32277	32744	31769	
2528	0	32328	32789	31780	
2529	0	31870	32677	31788	
2530	0	31888	32785	31760	
2531	0	32232	32812	31767	
2532	0	32289	32700	31765	
2533	0	32956	32872	31752	
2534	0	34172	32864	31744	
2535	0	33724	32876	31724	
2536	0	33330	32957	31708	
2537	0	33468	33076	31716	
2538	0	33456	32820	31698	
2539	0	33236	32838	31716	
2540	0	33020	32824	31724	
2541	0	32945	32870	31700	
2542	0	32976	33037	31692	
2543	0	32866	32801	31712	
2544	0	32692	32669	31728	
2545	0	32134	32953	31736	
2546	0	31604	32616	31760	
2547	0	30998	32855	31760	
2548	0	30830	32776	31788	
2549	0	31124	32728	31772	
2550	0	31723	32672	31769	
2551	0	33404	32740	31764	
2552	0	33969	32640	31744	
2553	0	34228	32805	31724	
2554	0	34264	32729	31711	
2555	0	34229	32726	31669	
2556	0	34245	32861	31678	
2557	0	33457	32878	31676	
2558	0	33012	32854	31684	
2559	0	32828	33092	31668	
2560	0	32856	32990	31638	
2561	0	32824	32972	31672	
2562	0	32944	33056	31712	
2563	0	32728	33039	31730	
2564	0	32426	32992	31716	
2565	0	32128	32929	31732	
2566	0	32088	32896	31727	
2567	0	32097	32860	31738	
2568	0	31976	32708	31765	
2569	0	32032	32474	31767	
2570	0	32150	32561	31759	
2571	0	32258	32582	31780	
2572	0	32304	32612	31785	
2573	0	32325	32516	31780	
2574	0	32706	32577	31766	
2575	0	33068	32818	31772	
2576	0	33444	32958	31773	
2577	0	33656	32840	31772	
2578	0	33457	32792	31768	
2579	0	33482	32944	31781	
2580	0	33980	32815	31784	
2581	0	33918	32760	31792	
2582	0	33632	32766	31812	
2583	0	33064	32894	31828	
2584	0	32644	33118	31846	
2585	0	32216	32941	31857	
2586	0	32016	32954	31839	
2587	0	31932	32888	31849	
2588	0	31930	32797	31852	
2589	0	31932	32710	31837	
2590	0	32112	32790	31836	
2591	0	32188	32750	31845	
2592	0	32444	32838	31823	
2593	0	32532	32714	31833	
2594	0	32628	32728	31820	
2595	0	32928	32648	31800	
2596	0	33196	32606	31800	
2597	0	33500	32851	31790	
2598	0	33504	32784	31769	
2599	0	33512	32903	31776	
2600	0	33841	32911	31764	
2601	0	33468	32904	31773	
2602	0	32232	32888	31792	
2603	0	31758	32788	31786	
2604	0	32060	32768	31796	
2605	0	32604	32753	31800	
2606	0	33108	32817	31785	
2607	0	33337	32775	31770	
2608	0	33232	32728	31772	
2609	0	33048	32820	31757	
2610	0	32680	32872	31782	
2611	0	32056	32828	31780	
2612	0	32069	32804	31752	
2613	0	32140	32966	31751	
2614	0	31985	32900	31736	
2615	0	32516	32944	31732	
2616	0	33752	32976	31737	
2617	0	33680	33232	31743	
2618	0	33381	33174	31752	
2619	0	33784	32348	31746	
2620	0	32892	32740	31742	
2621	0	32768	32800	31758	
2622	0	32928	32604	31756	
2623	0	32688	32669	31748	
2624	0	32452	32598	31755	
2625	0	32293	32663	31751	
2626	0	32509	32791	31764	
2627	0	32368	32780	31728	
2628	0	32274	32804	31744	
2629	0	32540	32869	31756	
2630	0	32536	32809	31751	
2631	0	32572	32996	31748	
2632	0	32968	32872	31742	
2633	0	32988	32814	31742	
2634	0	32804	32762	31743	
2635	0	32964	32965	31713	
2636	0	33041	32964	31717	
2637	0	33244	32894	31725	
2638	0	33128	32852	31740	
2639	0	32865	32836	31744	
2640	0	32816	32736	31745	
2641	0	32820	32855	31724	
2642	0	32856	32724	31733	
2643	0	33916	32814	31728	
2644	0	33600	32792	31740	
2645	0	32764	32748	31751	
2646	0	32232	32917	31790	
2647	0	32028	32918	31752	
2648	0	31908	32866	31740	
2649	0	32032	32760	31757	
2650	0	32137	32728	31756	
2651	0	31969	32704	31780	
2652	0	31572	32828	31788	
2653	0	31896	32748	31774	
2654	0	31708	32750	31740	
2655	0	32556	32730	31724	
2656	0	33408	32912	31727	
2657	0	33824	32905	31740	
2658	0	34384	32848	31720	
2659	0	34256	32992	31730	
2660	0	34400	32780	31712	
2661	0	34316	32658	31718	
2662	0	34132	32664	31704	
2663	0	34144	32701	31686	
2664	0	33724	32841	31676	
2665	0	32930	32718	31671	
2666	0	31944	32781	31696	
2667	0	31500	32940	31716	
2668	0	31472	32775	31701	
2669	0	31516	32772	31689	
2670	0	31649	32784	31701	
2671	0	31920	32876	31698	
2672	0	32152	32848	31721	
2673	0	32308	32885	31739	
2674	0	32564	32812	31744	
2675	0	32692	32932	31738	
2676	0	33012	33041	31736	
2677	0	33376	32952	31742	
2678	0	33244	32869	31718	
2679	0	33400	32900	31741	
2680	0	33380	32884	31752	
2681	0	33380	32848	31751	
2682	0	33260	32903	31751	
2683	0	33060	32808	31752	
2684	0	32816	32772	31765	
2685	0	32756	32716	31772	
2686	0	32424	32696	31756	
2687	0	32008	32848	31777	
2688	0	32018	32798	31789	
2689	0	32029	32794	31780	
2690	0	32036	32784	31793	
2691	0	32240	32974	31800	
2692	0	32408	32716	31788	
2693	0	32798	32690	31788	
2694	0	32952	32742	31804	
2695	0	33208	32825	31808	
2696	0	33472	32880	31812	
2697	0	33220	33005	31828	
2698	0	33138	32836	31816	
2699	0	33388	32676	31804	
2700	0	33368	32648	31793	
2701	0	33106	32782	31790	
2702	0	32992	32684	31768	
2703	0	33052	32718	31769	
2704	0	32976	32788	31770	
2705	0	32652	32824	31782	
2706	0	32420	32874	31793	
2707	0	32350	32870	31800	
2708	0	32304	32760	31788	
2709	0	32220	32932	31796	
2710	0	32280	32756	31801	
2711	0	32188	32632	31792	
2712	0	32228	32852	31788	
2713	0	32456	32854	31809	
2714	0	32752	32892	31770	
2715	0	33005	32898	31790	
2716	0	33469	32860	31772	
2717	0	33448	32932	31780	
2718	0	33444	32929	31780	
2719	0	33436	32772	31776	
2720	0	33448	32753	31781	
2721	0	33272	32818	31788	
2722	0	33244	32880	31789	
2723	0	33028	32858	31788	
2724	0	32648	32778	31788	
2725	0	32385	32820	31796	
2726	0	32212	32812	31805	
2727	0	32037	32916	31804	
2728	0	31940	32761	31816	
2729	0	31872	32740	31820	
2730	0	32512	32797	31824	
2731	0	32633	32876	31804	
2732	0	32388	32768	31810	
2733	0	32405	32869	31820	
2734	0	32444	32902	31806	
2735	0	32704	33213	31817	
2736	0	33085	33214	31820	
2737	0	33400	33176	31800	
2738	0	33492	32454	31812	
2739	0	33580	32796	31780	
2740	0	33640	32837	31764	
2741	0	33752	32865	31764	
2742	0	33576	32632	31764	
2743	0	33032	32632	31740	
2744	0	32650	32513	31754	
2745	0	32256	32607	31748	
2746	0	32188	32601	31758	
2747	0	32352	32604	31761	
2748	0	32344	32673	31760	
2749	0	32158	32673	31750	
2750	0	31832	32772	31766	
2751	0	31400	32762	31773	
2752	0	31904	32814	31785	
2753	0	32568	32807	31753	
2754	0	33309	33020	31741	
2755	0	33608	32981	31740	
2756	0	33882	32900	31733	
2757	0	33601	33012	31734	
2758	0	33484	32746	31736	
2759	0	33472	32794	31726	
2760	0	33281	32884	31724	
2761	0	33328	33010	31734	
2762	0	32804	32886	31746	
2763	0	32772	32922	31741	
2764	0	32988	32908	31748	
2765	0	32424	32764	31780	
2766	0	31564	32676	31776	
2767	0	31690	32734	31780	
2768	0	31973	32725	31772	
2769	0	32348	32688	31776	
2770	0	32840	32620	31781	
2771	0	33208	32869	31750	
2772	0	33360	32988	31756	
2773	0	33836	32796	31738	
2774	0	33552	32932	31730	
2775	0	32916	32884	31712	
2776	0	32738	33004	31709	
2777	0	32609	32945	31709	
2778	0	32576	32976	31708	
2779	0	32925	32952	31735	
2780	0	33072	32664	31732	
2781	0	33226	32762	31721	
2782	0	32980	32756	31744	
2783	0	32737	32740	31772	
2784	0	32476	32772	31766	
2785	0	32297	32580	31779	
2786	0	32188	32774	31781	
2787	0	32344	32874	31788	
2788	0	32228	32660	31765	
2789	0	32524	32621	31732	
2790	0	32636	32686	31708	
2791	0	32420	32730	31716	
2792	0	32372	32736	31719	
2793	0	32656	32776	31725	
2794	0	32896	32793	31732	
2795	0	32992	32783	31725	
2796	0	33116	32860	31721	
2797	0	33196	32970	31724	
2798	0	33192	32868	31720	
2799	0	33222	32852	31704	
2800	0	33356	32973	31716	
2801	0	33185	32775	31738	
2802	0	33300	32888	31754	
2803	0	33185	32885	31764	
2804	0	33140	32760	31751	
2805	0	33008	32592	31749	
2806	0	32432	32664	31750	
2807	0	32012	32788	31750	
2808	0	31749	32740	31749	
2809	0	31696	32708	31750	
2810	0	32084	32768	31760	
2811	0	32023	32748	31757	
2812	0	31948	32844	31751	
2813	0	32100	32822	31742	
2814	0	32470	33031	31738	
2815	0	34116	32937	31724	
2816	0	34164	32740	31744	
2817	0	33666	32880	31756	
2818	0	33440	32954	31751	
2819	0	33320	32948	31748	
2820	0	33421	32878	31760	
2821	0	33532	32866	31757	
2822	0	33238	32910	31760	
2823	0	33040	32816	31775	
2824	0	32760	32823	31760	
2825	0	32288	32836	31751	
2826	0	32120	32772	31749	
2827	0	32252	32840	31756	
2828	0	32080	32724	31741	
2829	0	32213	32775	31744	
2830	0	32112	32829	31759	
2831	0	32212	32758	31748	
2832	0	32368	32782	31762	
2833	0	32695	32762	31743	
2834	0	32900	32856	31722	
2835	0	33125	32888	31730	
2836	0	33104	32830	31720	
2837	0	32061	32964	31720	
2838	0	32336	32804	31724	
2839	0	32768	32846	31726	
2840	0	33880	32954	31718	
2841	0	33992	32756	31704	
2842	0	33848	32612	31717	
2843	0	33400	32716	31721	
2844	0	33028	32800	31706	
2845	0	32646	32841	31730	
2846	0	32596	32770	31726	
2847	0	32372	32744	31720	
2848	0	32840	32628	31743	
2849	0	32912	32680	31732	
2850	0	32169	32790	31730	
2851	0	32392	32752	31729	
2852	0	32612	32948	31700	
2853	0	32796	32818	31684	
2854	0	32564	32984	31662	
2855	0	32650	32940	31654	
2856	0	32916	32998	31658	
2857	0	32889	32986	31637	
2858	0	32978	32964	31618	
2859	0	33072	32788	31606	
2860	0	33173	32796	31625	
2861	0	33266	32732	31632	
2862	0	33325	32776	31640	
2863	0	32988	32840	31661	
2864	0	32784	32902	31663	
2865	0	32414	32704	31653	
2866	0	32408	32656	31652	
2867	0	32316	32772	31665	
2868	0	32106	32820	31676	
2869	0	32002	32696	31660	
2870	0	32052	32858	31668	
2871	0	32232	32861	31671	
2872	0	32468	32928	31655	
2873	0	32689	32797	31668	
2874	0	32778	32854	31676	
2875	0	32980	32924	31669	
2876	0	33288	32965	31688	
2877	0	33286	32913	31700	
2878	0	33476	32772	31684	
2879	0	34080	32926	31704	
2880	0	33760	32944	31710	
2881	0	33236	32936	31730	
2882	0	32908	32816	31736	
2883	0	32672	32773	31728	
2884	0	32525	32784	31772	
2885	0	32408	32722	31778	
2886	0	32424	32662	31784	
2887	0	32304	32630	31778	
2888	0	32217	32656	31792	
2889	0	32040	32734	31785	
2890	0	32034	32836	31792	
2891	0	32280	32840	31789	
2892	0	32252	32831	31778	
2893	0	32672	32846	31788	
2894	0	33060	32847	31789	
2895	0	32972	32844	31788	
2896	0	33184	32944	31784	
2897	0	33376	32886	31754	
2898	0	33528	32996	31770	
2899	0	33701	32908	31756	
2900	0	33560	32828	31729	
2901	0	33476	32868	31720	
2902	0	33248	32861	31725	
2903	0	32960	32730	31737	
2904	0	32801	32912	31758	
2905	0	32404	32686	31750	
2906	0	32297	32728	31757	
2907	0	32156	32828	31769	
2908	0	32056	32789	31788	
2909	0	32098	32949	31773	
2910	0	31964	32828	31796	
2911	0	32085	32684	31796	
2912	0	32242	32772	31798	
2913	0	32514	32768	31806	
2914	0	33328	32968	31812	
2915	0	33492	33156	31802	
2916	0	33008	32666	31796	
2917	0	33042	32840	31801	
2918	0	33101	32852	31809	
2919	0	33665	32765	31820	
2920	0	34172	32912	31809	
2921	0	33506	32768	31792	
2922	0	33034	32780	31813	
2923	0	32756	32722	31812	
2924	0	32812	32733	31801	
2925	0	32597	32708	31813	
2926	0	32129	32776	31800	
2927	0	31869	32924	31796	
2928	0	31792	32780	31792	
2929	0	32156	32696	31768	
2930	0	32332	32854	31765	
2931	0	32520	32764	31756	
2932	0	32664	32861	31750	
2933	0	32690	33008	31716	
2934	0	32720	32876	31732	
2935	0	32949	32952	31725	
2936	0	33296	33172	31726	
2937	0	33317	32932	31708	
2938	0	33224	32713	31710	
2939	0	33120	32884	31712	
2940	0	33156	32894	31716	
2941	0	32852	32888	31725	
2942	0	31637	32680	31714	
2943	0	31992	32824	31732	
2944	0	32420	32820	31716	
2945	0	33180	32816	31705	
2946	0	33428	32936	31706	
2947	0	33556	32824	31724	
2948	0	33198	32892	31724	
2949	0	33240	32852	31716	
2950	0	32868	32788	31706	
2951	0	32220	32802	31700	
2952	0	32284	32852	31700	
2953	0	32628	32964	31691	
2954	0	32420	32914	31674	
2955	0	32564	32968	31660	
2956	0	33248	33304	31636	
2957	0	34028	32733	31629	
2958	0	33740	32740	31638	
2959	0	33388	32800	31632	
2960	0	32904	32720	31616	
2961	0	32792	32580	31615	
2962	0	32652	32788	31606	
2963	0	32388	32664	31599	
2964	0	32520	32732	31604	
2965	0	32272	32645	31612	
2966	0	32332	32644	31608	
2967	0	32250	32833	31598	
2968	0	32344	32808	31608	
2969	0	32372	32789	31632	
2970	0	32417	32788	31651	
2971	0	32348	32736	31656	
2972	0	32302	32732	31644	
2973	0	32684	32888	31655	
2974	0	33097	32805	31658	
2975	0	33272	32820	31656	
2976	0	33057	33029	31662	
2977	0	32936	33045	31652	
2978	0	32705	32975	31639	
2979	0	33332	32862	31648	
2980	0	33472	32716	31669	
2981	0	33500	32888	31664	
2982	0	33270	32892	31648	
2983	0	32888	32718	31632	
2984	0	32733	32824	31649	
2985	0	32620	32728	31661	
2986	0	32672	32700	31684	
2987	0	32504	32906	31677	
2988	0	32396	32862	31654	
2989	0	32320	32756	31668	
2990	0	32314	32869	31684	
2991	0	32224	32804	31702	
2992	0	32216	32836	31706	
2993	0	32536	32900	31684	
2994	0	32740	32966	31688	
2995	0	32948	32840	31681	
2996	0	33228	33031	31684	
2997	0	33261	32980	31692	
2998	0	33104	32985	31698	
2999	0	33212	32920	31692	
3000	0	33243	33008	31705	
3001	0	33376	32784	31712	
3002	0	32788	32644	31692	
3003	0	32712	32713	31682	
3004	0	32784	32647	31660	
3005	0	32444	32620	31640	
3006	0	33020	32704	31634	
3007	0	33008	32754	31659	
3008	0	32593	32706	31660	
3009	0	32432	32652	31652	
3010	0	32208	32741	31644	
3011	0	32216	32812	31655	
3012	0	32292	32644	31668	
3013	0	32356	32846	31673	
3014	0	32652	32804	31680	
3015	0	32753	32849	31676	
3016	0	32996	32768	31700	
3017	0	33064	32927	31697	
3018	0	33184	32994	31696	
3019	0	33399	32868	31705	
3020	0	33564	33006	31704	
3021	0	33496	32686	31696	
3022	0	33352	32772	31714	
3023	0	32984	32916	31704	
3024	0	32738	32708	31704	
3025	0	32496	32636	31697	
3026	0	32376	32872	31696	
3027	0	32172	32923	31724	
3028	0	32032	32720	31736	
3029	0	32204	32830	31724	
3030	0	32296	32775	31712	
3031	0	32386	32735	31688	
3032	0	32634	32876	31680	
3033	0	32736	32829	31680	
3034	0	32845	32904	31676	
3035	0	32940	32964	31684	
3036	0	33148	32942	31680	
3037	0	33229	33185	31681	
3038	0	33204	33074	31676	
3039	0	33396	32854	31680	
3040	0	33324	32648	31684	
3041	0	32376	32764	31672	
3042	0	32656	32789	31668	
3043	0	33172	32775	31664	
3044	0	33428	32879	31660	
3045	0	33184	32876	31676	
3046	0	33232	32861	31668	
3047	0	33072	32804	31677	
3048	0	32400	32734	31660	
3049	0	31948	32671	31640	
3050	0	31932	32714	31652	
3051	0	31753	32817	31653	
3052	0	32208	32797	31668	
3053	0	32434	32756	31655	
3054	0	32724	32826	31644	
3055	0	32919	32778	31653	
3056	0	33000	32924	31634	
3057	0	33204	33026	31646	
3058	0	33944	32883	31649	
3059	0	32848	32902	31639	
3060	0	32378	32929	31637	
3061	0	32552	32952	31623	
3062	0	33350	32800	31628	
3063	0	34052	32898	31628	
3064	0	34024	32956	31632	
3065	0	33889	32862	31647	
3066	0	33356	32836	31632	
3067	0	32440	32889	31639	
3068	0	31700	32700	31675	
3069	0	31476	32824	31673	
3070	0	31704	32826	31664	
3071	0	31857	32789	31668	
3072	0	31884	32828	31684	
3073	0	32386	32902	31692	
3074	0	32840	32824	31701	
3075	0	33052	32956	31700	
3076	0	33048	32881	31681	
3077	0	33318	33053	31679	
3078	0	33340	33032	31671	
3079	0	33432	32836	31668	
3080	0	33232	32812	31652	
3081	0	33336	32805	31667	
3082	0	33148	32764	31682	
3083	0	33036	32768	31686	
3084	0	32861	32816	31682	
3085	0	32557	32838	31702	
3086	0	32392	32804	31704	
3087	0	32391	32702	31718	
3088	0	32092	32617	31727	
3089	0	32008	32692	31724	
3090	0	32156	32655	31714	
3091	0	32340	32806	31732	
3092	0	32500	33068	31749	
3093	0	32561	32780	31732	
3094	0	32772	32772	31716	
3095	0	33000	32773	31748	
3096	0	33192	32836	31764	
3097	0	33228	33012	31773	
3098	0	33336	32972	31749	
3099	0	33540	32904	31750	
3100	0	33678	32881	31762	
3101	0	33320	32775	31736	
3102	0	33025	32882	31769	
3103	0	32712	32748	31767	
3104	0	32620	32788	31751	
3105	0	32460	32794	31751	
3106	0	32386	32624	31751	
3107	0	32433	32696	31764	
3108	0	32604	32636	31783	
3109	0	32297	32804	31772	
3110	0	32224	32902	31765	
3111	0	32408	32824	31746	
3112	0	32377	33164	31751	
3113	0	32664	32440	31732	
3114	0	32996	32644	31732	
3115	0	32940	32899	31725	
3116	0	33100	32828	31730	
3117	0	33440	32994	31716	
3118	0	33320	32911	31696	
3119	0	33372	32853	31684	
3120	0	33216	32948	31676	
3121	0	33274	32828	31673	
3122	0	33532	32838	31689	
3123	0	33164	32897	31694	
3124	0	32728	32869	31700	
3125	0	32360	32772	31692	
3126	0	32229	32880	31702	
3127	0	32180	32999	31704	
3128	0	32056	32796	31700	
3129	0	31920	32844	31692	
3130	0	30928	32878	31684	
3131	0	31208	32844	31697	
3132	0	31946	32872	31694	
3133	0	32692	32878	31701	
3134	0	33512	32895	31685	
3135	0	34493	32965	31692	
3136	0	34600	32962	31692	
3137	0	34948	32942	31670	
3138	0	33925	32860	31657	
3139	0	33436	32904	31665	
3140	0	32832	32909	31664	
3141	0	32456	32798	31677	
3142	0	32228	32842	31662	
3143	0	32196	32846	31676	
3144	0	32164	32872	31664	
3145	0	32030	32785	31668	
3146	0	32096	32730	31664	
3147	0	32524	32773	31676	
3148	0	32646	32860	31680	
3149	0	32204	32830	31692	
3150	0	32364	32824	31684	
3151	0	32473	32852	31676	
3152	0	32556	32924	31664	
3153	0	32952	32732	31694	
3154	0	33092	32948	31660	
3155	0	33244	32940	31664	
3156	0	33304	32892	31656	
3157	0	33408	32920	31663	
3158	0	33584	33034	31656	
3159	0	33380	32781	31630	
3160	0	33046	33028	31641	
3161	0	33040	32664	31644	
3162	0	33028	32774	31660	
3163	0	32828	32772	31657	
3164	0	32692	32952	31664	
3165	0	32484	32873	31680	
3166	0	32216	32585	31684	
3167	0	32076	32738	31694	
3168	0	31760	32868	31693	
3169	0	31316	32796	31687	
3170	0	31344	32879	31684	
3171	0	32502	32809	31688	
3172	0	33244	32830	31696	
3173	0	33444	32868	31674	
3174	0	33623	33004	31653	
3175	0	33700	32972	31624	
3176	0	33364	33206	31628	
3177	0	33360	32908	31625	
3178	0	33520	32756	31629	
3179	0	33484	32841	31632	
3180	0	33252	32780	31654	
3181	0	32900	32760	31690	
3182	0	32760	32730	31719	
3183	0	32896	32684	31712	
3184	0	32728	32708	31724	
3185	0	32405	32637	31701	
3186	0	32222	32788	31696	
3187	0	32192	32775	31710	
3188	0	32039	32894	31718	
3189	0	32018	32740	31696	
3190	0	32321	32729	31696	
3191	0	32292	32891	31692	
3192	0	32528	32848	31682	
3193	0	32928	32906	31680	
3194	0	33013	32976	31688	
3195	0	32916	32985	31652	
3196	0	33036	32996	31629	
3197	0	33260	33017	31628	
3198	0	33256	33005	31636	
3199	0	33444	32982	31647	
3200	0	33492	32916	31668	
3201	0	33360	32844	31652	
3202	0	33250	32661	31652	
3203	0	32904	32672	31656	
3204	0	32632	32804	31656	
3205	0	32356	32728	31668	
3206	0	32352	32840	31664	
3207	0	32148	32802	31663	
3208	0	32074	32945	31662	
3209	0	32224	32784	31677	
3210	0	32676	32896	31690	
3211	0	32630	32932	31690	
3212	0	32413	32876	31717	
3213	0	32479	32944	31712	
3214	0	32612	32992	31710	
3215	0	32636	32927	31716	
3216	0	32972	32910	31716	
3217	0	33224	32973	31704	
3218	0	33513	33005	31708	
3219	0	33806	32962	31701	
3220	0	33832	32832	31701	
3221	0	33628	32940	31688	
3222	0	33408	32796	31721	
3223	0	32960	32740	31710	
3224	0	32556	32789	31743	
3225	0	32101	32804	31734	
3226	0	32092	32655	31716	
3227	0	32136	32629	31724	
3228	0	32009	32804	31736	
3229	0	32154	32724	31758	
3230	0	32344	32860	31732	
3231	0	32460	32844	31728	
3232	0	32536	32896	31719	
3233	0	32536	32885	31740	
3234	0	32900	32693	31740	
3235	0	33024	32900	31720	
3236	0	32401	32990	31724	
3237	0	32600	33077	31740	
3238	0	33033	33068	31734	
3239	0	33872	33037	31734	
3240	0	34152	32900	31728	
3241	0	33888	32882	31720	
3242	0	33740	32972	31720	
3243	0	33501	32876	31732	
3244	0	32792	32824	31760	
3245	0	32464	32890	31732	
3246	0	32200	32732	31704	
3247	0	31943	32924	31684	
3248	0	31898	32848	31664	
3249	0	31976	32588	31668	
3250	0	32304	32758	31652	
3251	0	32348	32735	31650	
3252	0	32300	32740	31637	
3253	0	32796	32696	31642	
3254	0	32644	32844	31640	
3255	0	32772	32892	31652	
3256	0	33230	32880	31660	
3257	0	33508	33007	31654	
3258	0	33092	32856	31656	
3259	0	33006	32927	31636	
3260	0	32770	32717	31645	
3261	0	32616	33073	31632	
3262	0	33021	33244	31624	
3263	0	33264	32868	31608	
3264	0	33300	32864	31608	
3265	0	33220	32930	31573	
3266	0	33184	32736	31572	
3267	0	32656	32820	31577	
3268	0	32017	32840	31588	
3269	0	31860	32756	31608	
3270	0	31605	32690	31608	
3271	0	32576	32790	31604	
3272	0	32986	32716	31623	
3273	0	32668	32742	31607	
3274	0	32762	32778	31620	
3275	0	33028	32756	31626	
3276	0	33348	32663	31636	
3277	0	33416	32792	31648	
3278	0	32512	32876	31648	
3279	0	32149	32904	31612	
3280	0	31652	32856	31622	
3281	0	32308	32933	31614	
3282	0	33044	32828	31624	
3283	0	33748	32760	31632	
3284	0	34452	32756	31640	
3285	0	34277	32748	31652	
3286	0	34012	32732	31675	
3287	0	33244	32896	31656	
3288	0	32380	32900	31636	
3289	0	32218	32716	31652	
3290	0	32328	32712	31640	
3291	0	31796	32736	31644	
3292	0	31630	32834	31653	
3293	0	32096	32912	31678	
3294	0	32452	33036	31674	
3295	0	32768	32952	31676	
3296	0	32988	32826	31684	
3297	0	32902	33062	31690	
3298	0	33108	32976	31703	
3299	0	33089	32900	31713	
3300	0	32916	32830	31692	
3301	0	33300	32970	31677	
3302	0	33544	32970	31668	
3303	0	33236	32944	31688	
3304	0	32942	32812	31680	
3305	0	32564	32748	31676	
3306	0	32344	32902	31700	
3307	0	32080	32804	31695	
3308	0	32010	32612	31692	
3309	0	32028	32722	31684	
3310	0	32328	32824	31676	
3311	0	32486	32765	31664	
3312	0	32549	32854	31668	
3313	0	32701	32871	31678	
3314	0	33124	32748	31665	
3315	0	33412	32802	31652	
3316	0	33290	32791	31652	
3317	0	33165	32840	31682	
3318	0	33238	32908	31686	
3319	0	33222	32796	31692	
3320	0	33105	32756	31684	
3321	0	33020	32720	31675	
3322	0	33069	32760	31684	
3323	0	33056	32748	31703	
3324	0	32830	32908	31717	
3325	0	32480	32938	31700	
3326	0	32208	32902	31724	
3327	0	32040	33004	31709	
3328	0	32053	32902	31718	
3329	0	32144	32804	31718	
3330	0	32341	32772	31716	
3331	0	32824	32719	31718	
3332	0	32837	32812	31727	
3333	0	32640	32944	31732	
3334	0	32668	32950	31732	
3335	0	32944	32904	31744	
3336	0	33104	32924	31741	
3337	0	33172	32916	31744	
3338	0	33324	32776	31734	
3339	0	33296	32844	31751	
3340	0	33408	32816	31751	
3341	0	33321	32724	31753	
3342	0	33182	32665	31756	
3343	0	32982	32790	31740	
3344	0	32728	32780	31730	
3345	0	32492	32693	31740	
3346	0	32449	32846	31756	
3347	0	32220	32888	31744	
3348	0	32274	32729	31717	
3349	0	32152	32812	31714	
3350	0	32368	32753	31698	
3351	0	32612	32838	31708	
3352	0	32588	32936	31688	
3353	0	32588	32878	31688	
3354	0	32576	32902	31689	
3355	0	32824	33028	31693	
3356	0	32900	32982	31664	
3357	0	33120	32916	31664	
3358	0	33108	32980	31660	
3359	0	33160	32926	31639	
3360	0	33212	32952	31644	
3361	0	33272	32780	31664	
3362	0	33852	32808	31665	
3363	0	33572	32532	31671	
3364	0	32816	32686	31660	
3365	0	32492	32654	31636	
3366	0	32532	32697	31622	
3367	0	31468	33068	31628	
3368	0	31510	32770	31624	
3369	0	31740	32593	31592	
3370	0	32272	32702	31592	
3371	0	32568	32854	31594	
3372	0	33236	32738	31585	
3373	0	33700	32738	31600	
3374	0	33872	33046	31605	
3375	0	33740	33380	31625	
3376	0	33500	32873	31640	
3377	0	33089	33008	31660	
3378	0	32644	33124	31664	
3379	0	32420	32963	31669	
3380	0	32800	32917	31684	
3381	0	32742	33006	31684	
3382	0	32642	32853	31692	
3383	0	32680	32617	31678	
3384	0	32684	32650	31686	
3385	0	33012	32600	31728	
3386	0	32868	32660	31737	
3387	0	32884	32789	31732	
3388	0	32416	32746	31750	
3389	0	31908	32758	31740	
3390	0	31704	32716	31726	
3391	0	32272	32913	31729	
3392	0	32704	32850	31712	
3393	0	33040	32825	31717	
3394	0	33057	32853	31728	
3395	0	32964	32900	31742	
3396	0	33008	32870	31740	
3397	0	33044	33050	31744	
3398	0	32972	32912	31748	
3399	0	33065	32780	31745	
3400	0	33124	32944	31728	
3401	0	33308	32908	31732	
3402	0	33428	32868	31737	
3403	0	33056	32756	31744	
3404	0	32896	32714	31758	
3405	0	32584	32680	31746	
3406	0	32304	32772	31748	
3407	0	32148	32761	31732	
3408	0	32092	32806	31748	
3409	0	32062	32805	31738	
3410	0	32144	32748	31748	
3411	0	32532	32797	31761	
3412	0	32928	32952	31756	
3413	0	32780	32856	31748	
3414	0	32720	32828	31724	
3415	0	32834	32924	31724	
3416	0	32888	33029	31725	
3417	0	33264	32944	31716	
3418	0	33496	33036	31730	
3419	0	33505	32864	31720	
3420	0	33448	32834	31704	
3421	0	33260	32966	31704	
3422	0	33108	32828	31688	
3423	0	33092	32746	31703	
3424	0	32892	32840	31708	
3425	0	32670	32760	31720	
3426	0	32452	32734	31716	
3427	0	32264	32733	31725	
3428	0	32088	32856	31720	
3429	0	31900	32740	31724	
3430	0	31984	32748	31750	
3431	0	32054	32887	31754	
3432	0	31912	32724	31761	
3433	0	32042	32847	31762	
3434	0	32460	33044	31740	
3435	0	33260	32975	31720	
3436	0	33764	32840	31709	
3437	0	33660	32840	31724	
3438	0	33944	32938	31696	
3439	0	34192	32710	31690	
3440	0	33788	32844	31692	
3441	0	33493	32756	31676	
3442	0	33157	32844	31660	
3443	0	33000	32775	31666	
3444	0	32832	32856	31645	
3445	0	32402	32800	31636	
3446	0	32148	32781	31628	
3447	0	32128	32839	31615	
3448	0	32024	32730	31612	
3449	0	31984	32790	31625	
3450	0	31214	32862	31620	
3451	0	31394	32812	31644	
3452	0	32100	32884	31637	
3453	0	32768	32797	31632	
3454	0	33416	33028	31624	
3455	0	33748	32865	31632	
3456	0	33864	32886	31652	
3457	0	33848	33241	31652	
3458	0	33448	32718	31644	
3459	0	33148	32852	31644	
3460	0	33136	32856	31642	
3461	0	33044	32736	31650	
3462	0	32964	32854	31639	
3463	0	33052	32796	31638	
3464	0	32772	32708	31646	
3465	0	32489	32772	31646	
3466	0	32361	32772	31652	
3467	0	31953	32852	31645	
3468	0	31652	32792	31656	
3469	0	31769	32816	31660	
3470	0	31992	32836	31659	
3471	0	32620	32736	31649	
3472	0	32948	32861	31672	
3473	0	32916	32884	31668	
3474	0	32972	32846	31671	
3475	0	33292	32936	31677	
3476	0	33400	32890	31652	
3477	0	33284	33076	31642	
3478	0	33472	32964	31640	
3479	0	33640	33032	31638	
3480	0	33160	32892	31637	
3481	0	33044	32964	31628	
3482	0	33084	32860	31628	
3483	0	32912	32837	31613	
3484	0	32676	32877	31616	
3485	0	32304	32790	31604	
3486	0	31964	32805	31612	
3487	0	31900	32862	31628	
3488	0	31912	32820	31646	
3489	0	32060	32772	31656	
3490	0	32288	32644	31658	
3491	0	32367	32724	31680	
3492	0	32740	32740	31677	
3493	0	33020	32771	31680	
3494	0	33144	32876	31656	
3495	0	33440	32784	31644	
3496	0	33344	32670	31645	
3497	0	33592	32831	31657	
3498	0	33632	32900	31654	
3499	0	33700	32868	31652	
3500	0	33370	32736	31644	
3501	0	33256	32684	31623	
3502	0	32732	32793	31632	
3503	0	32828	32757	31636	
3504	0	32696	32768	31636	
3505	0	32448	32728	31629	
3506	0	32269	32708	31646	
3507	0	32368	32753	31646	
3508	0	32560	32700	31617	
3509	0	32204	32780	31633	
3510	0	31872	32766	31636	
3511	0	31860	32830	31652	
3512	0	31988	32888	31637	
3513	0	32280	32850	31637	
3514	0	32596	32814	31652	
3515	0	32776	32940	31660	
3516	0	33008	33028	31680	
3517	0	32584	32948	31680	
3518	0	32342	33132	31686	
3519	0	32940	32970	31644	
3520	0	33816	33024	31653	
3521	0	34484	33009	31646	
3522	0	34216	33006	31648	
3523	0	33772	32804	31661	
3524	0	34020	32797	31654	
3525	0	33448	32726	31677	
3526	0	32688	32876	31712	
3527	0	32209	32849	31720	
3528	0	31701	32924	31688	
3529	0	31376	32744	31700	
3530	0	31698	32740	31705	
3531	0	31880	32953	31692	
3532	0	32069	32864	31678	
3533	0	32296	32982	31688	
3534	0	32504	32992	31692	
3535	0	32908	32949	31688	
3536	0	33354	33101	31684	
3537	0	33484	33288	31662	
3538	0	33450	32652	31664	
3539	0	33536	32736	31666	
3540	0	33488	32672	31668	
3541	0	33540	32656	31686	
3542	0	33442	32853	31660	
3543	0	33010	32750	31665	
3544	0	32712	32741	31660	
3545	0	32454	32688	31656	
3546	0	32184	32620	31649	
3547	0	32136	32688	31670	
3548	0	32028	32694	31682	
3549	0	31972	32830	31684	
3550	0	32332	32877	31694	
3551	0	32428	32858	31681	
3552	0	32169	32862	31677	
3553	0	32193	32789	31660	
3554	0	32464	32974	31668	
3555	0	32976	33024	31676	
3556	0	33468	32964	31701	
3557	0	33652	32909	31688	
3558	0	33565	32825	31687	
3559	0	33408	32900	31676	
3560	0	33496	32904	31670	
3561	0	33516	32935	31682	
3562	0	33532	32756	31687	
3563	0	33188	32752	31687	
3564	0	32709	32804	31678	
3565	0	32342	32768	31666	
3566	0	32296	32775	31684	
3567	0	32188	32748	31684	
3568	0	31736	32780	31673	
3569	0	31748	32646	31696	
3570	0	32084	32737	31704	
3571	0	32316	32868	31678	
3572	0	32700	32767	31678	
3573	0	33008	32844	31669	
3574	0	32942	32839	31684	
3575	0	33080	32996	31694	
3576	0	33276	32849	31709	
3577	0	33392	32930	31702	
3578	0	33148	32848	31688	
3579	0	33021	32687	31680	
3580	0	32960	32813	31660	
3581	0	33308	32942	31652	
3582	0	33548	32712	31653	
3583	0	33220	32792	31676	
3584	0	32961	32698	31654	
3585	0	32944	32740	31669	
3586	0	32517	32868	31664	
3587	0	32236	33081	31678	
3588	0	32108	32734	31678	
3589	0	31980	32868	31693	
3590	0	32152	32809	31668	
3591	0	32276	32866	31652	
3592	0	32344	32868	31624	
3593	0	32572	32812	31632	
3594	0	32752	32908	31637	
3595	0	32892	32936	31664	
3596	0	33064	32892	31678	
3597	0	33364	33142	31684	
3598	0	33409	33164	31679	
3599	0	33328	32908	31676	
3600	0	33220	32888	31684	
3601	0	33024	32923	31680	
3602	0	32505	32829	31684	
3603	0	31484	32860	31700	
3604	0	31228	32876	31688	
3605	0	32445	32736	31694	
3606	0	33885	32692	31692	
3607	0	33764	32775	31689	
3608	0	33248	32736	31682	
3609	0	33087	32708	31695	
3610	0	33492	32752	31664	
3611	0	32869	32821	31678	
3612	0	32820	32857	31672	
3613	0	32854	32909	31680	
3614	0	32676	32816	31684	
3615	0	32396	32912	31684	
3616	0	32750	33202	31668	
3617	0	32880	33009	31660	
3618	0	32992	32928	31660	
3619	0	33253	32856	31661	
3620	0	33092	32694	31661	
3621	0	32806	32679	31651	
3622	0	33040	32820	31670	
3623	0	32824	32852	31670	
3624	0	32704	32652	31658	
3625	0	32432	32670	31672	
3626	0	32268	32628	31665	
3627	0	32200	32693	31672	
3628	0	32424	32804	31672	
3629	0	32620	32693	31680	
3630	0	32488	32698	31656	
3631	0	32332	32734	31655	
3632	0	32401	32853	31664	
3633	0	32336	32829	31660	
3634	0	32484	32903	31668	
3635	0	32644	32844	31637	
3636	0	32908	32884	31648	
3637	0	32968	33125	31648	
3638	0	33108	32785	31652	
3639	0	33560	32680	31672	
3640	0	33728	32767	31694	
3641	0	33601	32812	31684	
3642	0	33452	33023	31684	
3643	0	33108	32824	31680	
3644	0	32596	32704	31701	
3645	0	32580	32640	31700	
3646	0	32580	32796	31708	
3647	0	32284	32924	31717	
3648	0	31868	32808	31706	
3649	0	32044	32806	31702	
3650	0	32388	32922	31690	
3651	0	32605	32902	31681	
3652	0	33028	32775	31700	
3653	0	33300	32856	31684	
3654	0	33156	32964	31678	
3655	0	32904	32909	31676	
3656	0	32774	32768	31702	
3657	0	32926	33030	31682	
3658	0	33000	32944	31661	
3659	0	33064	32888	31665	
3660	0	33220	32932	31670	
3661	0	33268	32840	31664	
3662	0	33112	32868	31673	
3663	0	33024	32829	31684	
3664	0	32845	32751	31688	
3665	0	32612	32743	31693	
3666	0	32432	32904	31716	
3667	0	32362	32824	31697	
3668	0	32252	32676	31712	
3669	0	32149	32704	31700	
3670	0	32101	32720	31712	
3671	0	32165	32656	31712	
3672	0	32084	32756	31694	
3673	0	32136	32741	31700	
3674	0	32504	32839	31682	
3675	0	32542	32804	31672	
3676	0	33288	32956	31652	
3677	0	34201	32906	31650	
3678	0	33672	33041	31636	
3679	0	33444	32869	31648	
3680	0	33372	32932	31644	
3681	0	33380	32864	31628	
3682	0	33632	32885	31623	
3683	0	33468	32796	31624	
3684	0	33040	32796	31628	
3685	0	32633	33010	31648	
3686	0	32224	32648	31661	
3687	0	32128	32512	31660	
3688	0	32025	32757	31665	
3689	0	31872	32676	31681	
3690	0	31996	32724	31684	
3691	0	32192	32816	31680	
3692	0	32256	32838	31686	
3693	0	32384	32833	31714	
3694	0	32624	32850	31700	
3695	0	32900	32872	31673	
3696	0	33012	32871	31680	
3697	0	33040	32953	31708	
3698	0	33060	32890	31679	
3699	0	32432	32771	31681	
3700	0	32757	32892	31693	
3701	0	33196	32860	31684	
3702	0	33373	32711	31680	
3703	0	33696	32780	31668	
3704	0	34114	32876	31676	
3705	0	34044	32895	31694	
3706	0	33445	32750	31692	
3707	0	32772	32764	31693	
3708	0	32428	32816	31700	
3709	0	32009	32672	31700	
3710	0	31872	32807	31713	
3711	0	31748	32898	31712	
3712	0	32064	33028	31693	
3713	0	32264	32706	31666	
3714	0	32276	32668	31670	
3715	0	32480	32908	31661	
3716	0	32710	32912	31668	
3717	0	33024	32989	31660	
3718	0	33224	32962	31636	
3719	0	33585	32838	31628	
3720	0	33620	32908	31636	
3721	0	33512	32960	31670	
3722	0	33156	32921	31659	
3723	0	32784	32970	31647	
3724	0	32700	32833	31668	
3725	0	32444	32904	31664	
3726	0	32588	32892	31668	
3727	0	32672	32940	31677	
3728	0	32544	32760	31671	
3729	0	32436	32588	31640	
3730	0	32464	32884	31656	
3731	0	32316	32932	31672	
3732	0	32400	32843	31680	
3733	0	32416	32774	31692	
3734	0	32724	32783	31689	
3735	0	32836	32855	31676	
3736	0	33112	32876	31668	
3737	0	32992	32808	31685	
3738	0	33066	32803	31671	
3739	0	33260	32846	31686	
3740	0	33332	32729	31672	
3741	0	33300	32748	31671	
3742	0	33382	32788	31684	
3743	0	33312	32728	31681	
3744	0	33188	32741	31685	
3745	0	32732	32812	31686	
3746	0	32164	32680	31696	
3747	0	32052	32713	31716	
3748	0	31804	32762	31716	
3749	0	31814	32861	31718	
3750	0	32188	32801	31713	
3751	0	32240	32840	31716	
3752	0	32512	32988	31728	
3753	0	32948	32868	31724	
3754	0	33288	32916	31716	
3755	0	32998	32965	31712	
3756	0	33096	32701	31732	
3757	0	33276	32868	31722	
3758	0	33329	32950	31720	
3759	0	33276	32809	31740	
3760	0	33305	32897	31732	
3761	0	33272	33064	31716	
3762	0	33280	32860	31736	
3763	0	33072	32741	31732	
3764	0	32901	32881	31743	
3765	0	32670	32636	31728	
3766	0	32416	32641	31745	
3767	0	32287	32890	31736	
3768	0	32129	32877	31744	
3769	0	32160	32752	31744	
3770	0	32208	32916	31760	
3771	0	32332	32880	31733	
3772	0	32213	32933	31735	
3773	0	32368	32917	31751	
3774	0	32646	32892	31724	
3775	0	32609	32935	31710	
3776	0	33088	32794	31730	
3777	0	33492	33136	31721	
3778	0	33419	32952	31716	
3779	0	33268	32717	31732	
3780	0	33244	32882	31724	
3781	0	33356	32898	31704	
3782	0	32784	32896	31710	
3783	0	32530	32663	31735	
3784	0	32644	32775	31740	
3785	0	32960	32831	31734	
3786	0	32260	32716	31741	
3787	0	32252	32804	31713	
3788	0	32636	32775	31697	
3789	0	33121	32728	31708	
3790	0	33269	32764	31716	
3791	0	33016	32710	31688	
3792	0	32964	32825	31694	
3793	0	33124	32780	31687	
3794	0	32852	32770	31688	
3795	0	32648	32876	31684	
3796	0	32636	32872	31684	
3797	0	32760	33013	31716	
3798	0	32605	33005	31684	
3799	0	32788	32718	31680	
3800	0	32900	32836	31660	
3801	0	33108	32830	31684	
3802	0	33304	33044	31672	
3803	0	33280	33026	31685	
3804	0	32944	32721	31688	
3805	0	32540	32832	31684	
3806	0	32241	32700	31664	
3807	0	32348	32775	31678	
3808	0	32476	32775	31680	
3809	0	32230	32748	31672	
3810	0	32132	32876	31660	
3811	0	32152	32775	31640	
3812	0	32224	32796	31636	
3813	0	32732	32894	31656	
3814	0	32913	32857	31660	
3815	0	32920	32912	31650	
3816	0	33089	32830	31657	
3817	0	33263	32892	31674	
3818	0	33276	32901	31652	
3819	0	33264	32810	31655	
3820	0	33328	32789	31647	
3821	0	33300	32896	31644	
3822	0	33208	32792	31633	
3823	0	33080	32728	31636	
3824	0	32864	32652	31636	
3825	0	32738	32728	31632	
3826	0	32420	32742	31656	
3827	0	32321	32792	31684	
3828	0	32056	32862	31686	
3829	0	31988	32807	31685	
3830	0	32056	32972	31660	
3831	0	32200	32718	31664	
3832	0	32452	32852	31681	
3833	0	32648	32823	31680	
3834	0	33056	32812	31688	
3835	0	33021	32798	31704	
3836	0	33190	32904	31712	
3837	0	33292	33176	31720	
3838	0	33416	32804	31717	
3839	0	33348	32872	31720	
3840	0	33165	32813	31748	
3841	0	33224	32876	31737	
3842	0	33060	32864	31720	
3843	0	32868	32720	31720	
3844	0	32792	32777	31734	
3845	0	32744	32844	31732	
3846	0	32568	32844	31712	
3847	0	32520	32748	31724	
3848	0	32549	32685	31724	
3849	0	32436	32740	31722	
3850	0	32388	32861	31734	
3851	0	32356	32752	31716	
3852	0	32148	32872	31721	
3853	0	32146	32732	31730	
3854	0	32408	32868	31733	
3855	0	32745	32852	31696	
3856	0	32938	32916	31701	
3857	0	33277	32965	31698	
3858	0	33416	33109	31704	
3859	0	33548	32948	31704	
3860	0	33552	32768	31716	
3861	0	33290	33036	31724	
3862	0	33184	32861	31730	
3863	0	32868	32904	31732	
3864	0	33040	32784	31761	
3865	0	32186	32774	31757	
3866	0	31840	32767	31743	
3867	0	31980	32713	31740	
3868	0	32392	32804	31732	
3869	0	32704	32780	31708	
3870	0	32920	32625	31717	
3871	0	33140	32775	31681	
3872	0	32932	32693	31697	
3873	0	32784	32842	31718	
3874	0	32641	32801	31700	
3875	0	32688	32832	31705	
3876	0	32720	32772	31696	
3877	0	32926	32980	31672	
3878	0	33509	32836	31674	
3879	0	33264	32868	31664	
3880	0	32992	32801	31660	
3881	0	33180	32712	31645	
3882	0	33166	32765	31653	
3883	0	33049	32716	31670	
3884	0	32834	32812	31678	
3885	0	32788	32901	31675	
3886	0	32716	32948	31677	
3887	0	32432	33008	31676	
3888	0	32148	32840	31668	
3889	0	32124	33025	31702	
3890	0	32292	32773	31700	
3891	0	32196	32846	31677	
3892	0	32236	32968	31684	
3893	0	32324	32732	31668	
3894	0	32488	32744	31688	
3895	0	32732	32925	31706	
3896	0	32876	32824	31705	
3897	0	33176	33124	31684	
3898	0	33280	32846	31697	
3899	0	33540	32948	31684	
3900	0	33504	32935	31687	
3901	0	33444	32852	31692	
3902	0	33280	32736	31685	
3903	0	33092	32668	31680	
3904	0	32800	32697	31676	
3905	0	32884	32808	31708	
3906	0	32676	32750	31724	
3907	0	32282	32781	31713	
3908	0	31560	32784	31717	
3909	0	31046	32697	31704	
3910	0	31212	32724	31696	
3911	0	31940	32748	31709	
3912	0	32748	32889	31712	
3913	0	33196	33070	31676	
3914	0	33736	32866	31661	
3915	0	33840	32924	31665	
3916	0	34281	32784	31680	
3917	0	34388	32940	31660	
3918	0	34092	33102	31668	
3919	0	33174	32948	31652	
3920	0	32848	32924	31628	
3921	0	32826	32821	31628	
3922	0	32876	32902	31639	
3923	0	32733	32749	31630	
3924	0	32592	32788	31638	
3925	0	32428	32724	31628	
3926	0	32068	32768	31636	
3927	0	31956	32944	31657	
3928	0	31880	32876	31650	
3929	0	31856	32800	31644	
3930	0	32036	32731	31653	
3931	0	32076	32788	31649	
3932	0	32344	32797	31652	
3933	0	32717	32848	31648	
3934	0	33022	32805	31647	
3935	0	33423	32914	31652	
3936	0	33352	32928	31632	
3937	0	33288	32940	31636	
3938	0	32528	32961	31652	
3939	0	32212	33024	31661	
3940	0	32821	32848	31647	
3941	0	33536	32824	31649	
3942	0	34280	32809	31648	
3943	0	34540	32820	31656	
3944	0	33972	32708	31644	
3945	0	33216	32676	31692	
3946	0	32612	32716	31692	
3947	0	31972	32630	31682	
3948	0	31532	32772	31684	
3949	0	31585	32890	31698	
3950	0	31664	32916	31717	
3951	0	32148	32766	31714	
3952	0	32351	32841	31706	
3953	0	32532	32816	31708	
3954	0	32714	32872	31697	
3955	0	32689	32956	31680	
3956	0	32784	32781	31684	
3957	0	33096	32920	31676	
3958	0	33252	32998	31696	
3959	0	33468	32965	31712	
3960	0	33676	32918	31716	
3961	0	33722	32918	31722	
3962	0	33553	32952	31712	
3963	0	33029	33028	31708	
3964	0	32812	32696	31694	
3965	0	32548	32772	31708	
3966	0	32364	32821	31728	
3967	0	32256	32874	31737	
3968	0	32100	32828	31744	
3969	0	32004	32689	31738	
3970	0	31866	32670	31734	
3971	0	32564	32775	31737	
3972	0	32372	32824	31732	
3973	0	32276	32847	31720	
3974	0	32396	32712	31719	
3975	0	32848	32760	31736	
3976	0	32813	32836	31733	
3977	0	33348	32832	31718	
3978	0	33792	33031	31713	
3979	0	33952	32993	31700	
3980	0	33864	32440	31684	
3981	0	33534	32724	31677	
3982	0	33584	33008	31688	
3983	0	33412	32764	31669	
3984	0	33193	32806	31660	
3985	0	32748	32885	31662	
3986	0	32292	32780	31660	
3987	0	32016	32804	31676	
3988	0	31860	32844	31700	
3989	0	31780	32912	31716	
3990	0	31868	32806	31718	
3991	0	31988	32937	31717	
3992	0	32160	32800	31721	
3993	0	32512	32817	31712	
3994	0	32764	32852	31704	
3995	0	32832	32914	31720	
3996	0	33088	32860	31716	
3997	0	33356	33008	31706	
3998	0	33592	32933	31712	
3999	0	33568	32812	31702	
4000	0	33588	32840	31684	
4001	0	33308	32825	31695	
4002	0	33028	32948	31725	
4003	0	32905	32812	31736	
4004	0	32984	32836	31729	
4005	0	32756	32684	31772	
4006	0	32540	32486	31769	
4007	0	32164	32650	31756	
4008	0	32024	32965	31756	
4009	0	31824	32606	31744	
4010	0	31636	32937	31724	
4011	0	31864	32704	31721	
4012	0	32342	32757	31708	
4013	0	32612	32660	31684	
4014	0	33164	32912	31680	
4015	0	33864	32944	31673	
4016	0	33853	32980	31673	
4017	0	33420	32948	31660	
4018	0	33368	32944	31661	
4019	0	33540	32905	31672	
4020	0	33440	32780	31669	
4021	0	33104	32892	31674	
4022	0	32984	32832	31701	
4023	0	32924	32813	31700	
4024	0	32646	32724	31696	
4025	0	32402	32815	31680	
4026	0	32168	32792	31692	
4027	0	32069	32832	31721	
4028	0	31788	32848	31720	
4029	0	31652	32876	31728	
4030	0	31812	32824	31724	
4031	0	31492	33045	31724	
4032	0	31461	33114	31713	
4033	0	32604	32788	31729	
4034	0	33472	32732	31740	
4035	0	34244	32836	31721	
4036	0	34704	32892	31719	
4037	0	34868	33100	31716	
4038	0	34573	32926	31732	
4039	0	34157	32842	31720	
4040	0	33456	32729	31704	
4041	0	32657	32820	31718	
4042	0	32272	32765	31704	
4043	0	32232	32767	31719	
4044	0	32202	32698	31740	
4045	0	32377	32641	31716	
4046	0	32316	32665	31714	
4047	0	32068	32722	31732	
4048	0	31936	32736	31736	
4049	0	31793	32677	31757	
4050	0	31961	32844	31749	
4051	0	32228	32818	31748	
4052	0	32349	32855	31732	
4053	0	32573	32856	31740	
4054	0	32768	32926	31750	
4055	0	32964	33112	31732	
4056	0	33116	32804	31741	
4057	0	33348	33060	31724	
4058	0	33342	32952	31732	
4059	0	33368	32816	31744	
4060	0	33468	32940	31750	
4061	0	33540	32784	31740	
4062	0	33460	32860	31737	
4063	0	33204	32889	31732	
4064	0	33020	32797	31749	
4065	0	32826	32836	31740	
4066	0	32493	32733	31751	
4067	0	32288	32660	31756	
4068	0	32124	32812	31750	
4069	0	31916	32780	31732	
4070	0	31902	32793	31714	
4071	0	31894	32782	31732	
4072	0	31733	32762	31727	
4073	0	32178	32816	31721	
4074	0	33208	32884	31708	
4075	0	33569	32854	31698	
4076	0	33348	32817	31696	
4077	0	33352	32834	31684	
4078	0	33408	32956	31686	
4079	0	33532	32846	31688	
4080	0	33528	32756	31669	
4081	0	33293	32742	31669	
4082	0	33182	32953	31676	
4083	0	33012	32860	31701	
4084	0	32649	32874	31684	
4085	0	32669	32860	31719	
4086	0	32428	32838	31717	
4087	0	32256	32784	31752	
4088	0	31968	32773	31751	
4089	0	31720	32804	31764	
4090	0	31513	32873	31751	
4091	0	31204	32772	31738	
4092	0	31644	32891	31738	
4093	0	32300	32737	31724	
4094	0	33048	32767	31716	
4095	0	33687	32944	31700	
4096	0	34032	32952	31685	
4097	0	34020	32948	31652	
4098	0	33820	33132	31636	
4099	0	34240	32572	31608	
4100	0	34496	32784	31604	
4101	0	34260	32708	31588	
4102	0	33712	32932	31592	
4103	0	33372	32926	31609	
4104	0	32724	32772	31636	
4105	0	32193	32753	31620	
4106	0	31924	32773	31656	
4107	0	31632	32736	31668	
4108	0	31512	32848	31675	
4109	0	31669	32767	31673	
4110	0	31836	32681	31676	
4111	0	31886	32964	31684	
4112	0	31884	32943	31716	
4113	0	32169	32868	31712	
4114	0	32528	32964	31692	
4115	0	32836	33121	31673	
4116	0	33136	32977	31656	
4117	0	33653	32725	31657	
4118	0	33688	32936	31668	
4119	0	33768	32932	31658	
4120	0	33788	32998	31668	
4121	0	33740	32934	31661	
4122	0	33384	32898	31639	
4123	0	32988	32704	31653	
4124	0	32772	32823	31681	
4125	0	32672	32712	31702	
4126	0	32332	32628	31716	
4127	0	32236	32756	31696	
4128	0	32170	32701	31712	
4129	0	32024	32596	31716	
4130	0	32058	32702	31721	
4131	0	32152	32824	31714	
4132	0	32320	32716	31740	
4133	0	32444	32800	31728	
4134	0	32588	32830	31716	
4135	0	32832	32932	31729	
4136	0	32996	33012	31717	
4137	0	33068	32968	31714	
4138	0	33316	33024	31721	
4139	0	33462	33021	31720	
4140	0	33316	32815	31710	
4141	0	33384	32895	31726	
4142	0	33328	32928	31724	
4143	0	33240	32982	31741	
4144	0	33060	32849	31736	
4145	0	32928	32847	31745	
4146	0	32736	32805	31740	
4147	0	32532	32840	31728	
4148	0	32230	32662	31736	
4149	0	32112	32740	31724	
4150	0	32044	32708	31741	
4151	0	32080	32651	31732	
4152	0	32168	32804	31725	
4153	0	32400	32908	31704	
4154	0	32614	33028	31721	
4155	0	32858	32804	31718	
4156	0	33056	32832	31694	
4157	0	33218	33033	31692	
4158	0	33364	32942	31700	
4159	0	33328	33022	31692	
4160	0	33330	33010	31682	
4161	0	33236	32912	31688	
4162	0	32876	32900	31697	
4163	0	32340	32661	31692	
4164	0	32356	32780	31685	
4165	0	32612	32958	31692	
4166	0	33040	32760	31716	
4167	0	32865	32544	31720	
4168	0	32976	32816	31759	
4169	0	32911	32940	31735	
4170	0	32860	32618	31722	
4171	0	32541	32709	31717	
4172	0	32400	32752	31714	
4173	0	32564	32808	31705	
4174	0	32505	32909	31694	
4175	0	32348	32868	31708	
4176	0	32616	32865	31709	
4177	0	33005	32829	31726	
4178	0	33216	32840	31736	
4179	0	33280	32964	31726	
4180	0	33325	32874	31704	
4181	0	33229	32761	31718	
4182	0	33192	32793	31712	
4183	0	33020	32684	31706	
4184	0	32876	32812	31698	
4185	0	32692	32929	31709	
4186	0	32408	32804	31693	
4187	0	32332	32960	31706	
4188	0	31845	32793	31721	
4189	0	31398	32820	31722	
4190	0	30792	32756	31729	
4191	0	30808	32736	31716	
4192	0	31561	32802	31706	
4193	0	32560	32774	31688	
4194	0	33964	32793	31684	
4195	0	35045	32769	31684	
4196	0	34700	32836	31664	
4197	0	33980	32852	31674	
4198	0	33412	32756	31648	
4199	0	33504	32732	31648	
4200	0	33722	32791	31623	
4201	0	33620	32876	31628	
4202	0	33452	32792	31619	
4203	0	33588	32788	31600	
4204	0	33360	32897	31596	
4205	0	32908	32900	31593	
4206	0	32780	32813	31610	
4207	0	32532	32784	31608	
4208	0	31816	32904	31614	
4209	0	31424	32766	31604	
4210	0	31580	32760	31645	
4211	0	31728	32793	31668	
4212	0	31892	32720	31672	
4213	0	32140	32916	31688	
4214	0	32392	32884	31680	
4215	0	32708	32921	31681	
4216	0	32828	33176	31688	
4217	0	33056	32920	31686	
4218	0	33260	32849	31704	
4219	0	33381	32953	31707	
4220	0	33325	32830	31716	
4221	0	33300	32890	31704	
4222	0	33344	32871	31688	
4223	0	33266	32772	31690	
4224	0	33004	32807	31704	
4225	0	32792	32746	31704	
4226	0	32525	32726	31714	
4227	0	32480	32826	31718	
4228	0	32212	32749	31714	
4229	0	32218	32801	31730	
4230	0	32184	32774	31718	
4231	0	32288	32869	31724	
4232	0	32314	32824	31745	
4233	0	32481	32799	31745	
4234	0	32696	32933	31772	
4235	0	32886	32861	31750	
4236	0	33124	32709	31760	
4237	0	33260	32874	31760	
4238	0	33372	32928	31754	
4239	0	33404	32921	31752	
4240	0	33268	32940	31741	
4241	0	33204	32696	31732	
4242	0	33164	32700	31702	
4243	0	33248	32775	31728	
4244	0	32964	32762	31741	
4245	0	32768	32720	31720	
4246	0	32580	32882	31734	
4247	0	32328	32868	31732	
4248	0	32164	32804	31728	
4249	0	32108	32857	31742	
4250	0	32105	32736	31748	
4251	0	32292	32834	31730	
4252	0	32405	32808	31716	
4253	0	32516	32713	31708	
4254	0	32640	32741	31708	
4255	0	32852	32870	31680	
4256	0	33068	32788	31680	
4257	0	33229	32857	31692	
4258	0	33392	33012	31692	
4259	0	33460	33031	31681	
4260	0	33340	32956	31704	
4261	0	33340	32848	31690	
4262	0	33160	32951	31688	
4263	0	32940	32828	31701	
4264	0	32852	32632	31711	
4265	0	32605	32716	31700	
4266	0	32264	32692	31708	
4267	0	32104	32716	31702	
4268	0	32552	32833	31704	
4269	0	32512	32733	31716	
4270	0	32400	32860	31690	
4271	0	32488	32900	31700	
4272	0	32469	32727	31688	
4273	0	32356	32782	31668	
4274	0	32940	32758	31649	
4275	0	33098	32689	31682	
4276	0	32900	32766	31692	
4277	0	32876	33020	31704	
4278	0	33349	33116	31716	
4279	0	33338	32932	31709	
4280	0	33456	32900	31717	
4281	0	33490	32869	31712	
4282	0	33636	32728	31712	
4283	0	33188	32800	31701	
4284	0	32744	32708	31720	
4285	0	32328	32772	31699	
4286	0	32101	32756	31697	
4287	0	32114	32692	31700	
4288	0	31792	32788	31704	
4289	0	31444	32888	31702	
4290	0	31706	32839	31690	
4291	0	32148	32965	31673	
4292	0	31784	32938	31649	
4293	0	32412	32812	31638	
4294	0	33720	32948	31623	
4295	0	34586	33021	31597	
4296	0	34492	32973	31612	
4297	0	34341	32836	31609	
4298	0	33965	32956	31628	
4299	0	33272	32824	31644	
4300	0	33056	32762	31656	
4301	0	32808	32741	31656	
4302	0	32646	32690	31649	
4303	0	32508	32716	31660	
4304	0	32540	32715	31688	
4305	0	32596	32844	31686	
4306	0	32472	32786	31688	
4307	0	32236	32724	31700	
4308	0	32028	32792	31700	
4309	0	31844	32736	31712	
4310	0	32016	32820	31716	
4311	0	32068	32725	31720	
4312	0	32374	32730	31704	
4313	0	32625	32836	31704	
4314	0	32832	33041	31696	
4315	0	32912	32836	31689	
4316	0	32992	33091	31686	
4317	0	33246	32880	31692	
4318	0	33280	32713	31684	
4319	0	33472	32912	31668	
4320	0	33440	32850	31678	
4321	0	33380	32852	31695	
4322	0	33336	32848	31704	
4323	0	33176	32900	31694	
4324	0	32948	32880	31704	
4325	0	32800	32824	31711	
4326	0	32408	32784	31704	
4327	0	32208	32885	31704	
4328	0	32000	32800	31714	
4329	0	32044	32740	31728	
4330	0	32156	32700	31720	
4331	0	32396	32757	31711	
4332	0	32444	32775	31718	
4333	0	32564	32888	31724	
4334	0	32410	32906	31700	
4335	0	32480	32950	31716	
4336	0	32708	32946	31715	
4337	0	33205	33031	31704	
4338	0	33148	32941	31708	
4339	0	33436	32913	31708	
4340	0	33864	32844	31735	
4341	0	33736	32974	31716	
4342	0	33713	32845	31709	
4343	0	33656	32732	31712	
4344	0	33436	32769	31708	
4345	0	33216	32796	31697	
4346	0	32714	32830	31722	
4347	0	32088	32802	31729	
4348	0	31876	32838	31724	
4349	0	31800	32720	31716	
4350	0	31847	32704	31716	
4351	0	31948	32692	31720	
4352	0	32196	32760	31708	
4353	0	32304	32853	31716	
4354	0	32476	32920	31690	
4355	0	32684	32748	31700	
4356	0	32905	32756	31689	
4357	0	33088	32742	31696	
4358	0	33265	32996	31688	
4359	0	33408	32852	31706	
4360	0	33464	32917	31705	
4361	0	33445	32876	31716	
4362	0	33676	32824	31704	
4363	0	33730	32964	31696	
4364	0	32844	32796	31711	
4365	0	32268	32666	31716	
4366	0	32120	32745	31684	
4367	0	32036	32696	31684	
4368	0	32392	32796	31704	
4369	0	32460	32782	31685	
4370	0	32348	32780	31671	
4371	0	32732	32954	31657	
4372	0	32680	32820	31663	
4373	0	32420	32831	31637	
4374	0	32472	32772	31658	
4375	0	32608	32935	31660	
4376	0	32416	32780	31654	
4377	0	32532	32932	31645	
4378	0	33153	32903	31653	
4379	0	33632	32888	31669	
4380	0	33900	32904	31655	
4381	0	34088	32963	31652	
4382	0	33961	32820	31649	
4383	0	33786	32696	31660	
4384	0	33208	32688	31656	
4385	0	32593	32724	31656	
4386	0	32180	32705	31668	
4387	0	31896	32876	31688	
4388	0	31660	33012	31680	
4389	0	31844	32848	31673	
4390	0	31992	32745	31664	
4391	0	32226	33012	31660	
4392	0	32368	32969	31668	
4393	0	32244	32901	31658	
4394	0	32360	32814	31654	
4395	0	32560	32968	31652	
4396	0	32780	32902	31660	
4397	0	33132	32984	31678	
4398	0	33268	32932	31681	
4399	0	33456	32796	31676	
4400	0	33600	32741	31660	
4401	0	33710	32722	31653	
4402	0	33564	32705	31653	
4403	0	33476	32801	31658	
4404	0	33425	32900	31665	
4405	0	33348	32892	31676	
4406	0	32700	32708	31688	
4407	0	32241	32916	31692	
4408	0	31956	33062	31689	
4409	0	31308	32774	31676	
4410	0	31416	32757	31679	
4411	0	31934	32801	31676	
4412	0	32552	32818	31660	
4413	0	32913	32799	31668	
4414	0	33125	32886	31658	
4415	0	33172	32988	31652	
4416	0	33260	32745	31654	
4417	0	33181	32768	31668	
4418	0	33056	32975	31649	
4419	0	33100	32870	31648	
4420	0	33104	32741	31647	
4421	0	32922	32824	31640	
4422	0	32901	32932	31644	
4423	0	33044	32908	31649	
4424	0	33028	32800	31641	
4425	0	33180	32741	31645	
4426	0	32684	32826	31646	
4427	0	32508	32775	31637	
4428	0	32288	32886	31647	
4429	0	32296	32972	31656	
4430	0	32304	32957	31660	
4431	0	32380	32877	31670	
4432	0	32460	32960	31668	
4433	0	32526	32944	31678	
4434	0	32588	32903	31680	
4435	0	32692	32804	31668	
4436	0	32876	32782	31656	
4437	0	33016	32876	31666	
4438	0	33136	32876	31664	
4439	0	33150	32720	31688	
4440	0	33180	32688	31706	
4441	0	33222	32616	31700	
4442	0	33156	32659	31692	
4443	0	32805	32645	31691	
4444	0	32480	32718	31685	
4445	0	32404	32744	31712	
4446	0	32464	32753	31694	
4447	0	32862	32737	31696	
4448	0	33124	32880	31714	
4449	0	33192	32714	31717	
4450	0	32906	33044	31724	
4451	0	32440	32980	31728	
4452	0	32532	32668	31714	
4453	0	32864	32817	31681	
4454	0	32784	32688	31704	
4455	0	32824	32844	31708	
4456	0	32884	32996	31704	
4457	0	32904	33084	31704	
4458	0	32964	32967	31697	
4459	0	32910	32840	31682	
4460	0	32976	32800	31700	
4461	0	33001	32810	31708	
4462	0	33088	32835	31725	
4463	0	32988	32868	31740	
4464	0	32808	32820	31744	
4465	0	32748	32844	31769	
4466	0	31696	32790	31761	
4467	0	31532	32877	31756	
4468	0	31740	32972	31781	
4469	0	32364	32756	31777	
4470	0	32924	32736	31751	
4471	0	33192	32743	31737	
4472	0	33312	32772	31756	
4473	0	33468	32884	31764	
4474	0	33160	32932	31776	
4475	0	33160	32684	31783	
4476	0	33088	32796	31792	
4477	0	32776	32949	31789	
4478	0	32452	33213	31761	
4479	0	32521	33030	31764	
4480	0	32768	32796	31764	
4481	0	32900	32948	31766	
4482	0	33096	32900	31750	
4483	0	33504	32576	31742	
4484	0	33645	32668	31751	
4485	0	33132	32866	31740	
4486	0	32588	32969	31766	
4487	0	32572	32932	31776	
4488	0	32452	32840	31774	
4489	0	32068	32822	31756	
4490	0	32228	32924	31764	
4491	0	32192	32944	31740	
4492	0	32292	32859	31736	
4493	0	32356	32732	31748	
4494	0	32564	32724	31751	
4495	0	32726	32838	31751	
4496	0	32860	32760	31735	
4497	0	33097	32984	31732	
4498	0	33252	33104	31721	
4499	0	33362	32936	31708	
4500	0	33329	32829	31716	
4501	0	33240	32780	31705	
4502	0	33124	32786	31705	
4503	0	32954	32845	31737	
4504	0	32792	32966	31748	
4505	0	32753	32978	31736	
4506	0	32536	32966	31717	
4507	0	32512	32900	31725	
4508	0	32470	32743	31734	
4509	0	32229	32781	31734	
4510	0	32224	32886	31728	
4511	0	32328	32714	31728	
4512	0	32504	32706	31736	
4513	0	32548	32764	31751	
4514	0	32712	32764	31760	
4515	0	32788	32812	31760	
4516	0	32944	32816	31740	
4517	0	33102	32822	31716	
4518	0	33153	32881	31712	
4519	0	33264	32873	31730	
4520	0	33288	32740	31732	
4521	0	33304	32775	31743	
4522	0	33224	32769	31732	
4523	0	33161	32796	31716	
4524	0	32916	32914	31708	
4525	0	32836	32764	31710	
4526	0	32641	32766	31698	
4527	0	32484	32919	31708	
4528	0	32424	32924	31734	
4529	0	32236	32816	31730	
4530	0	32216	32878	31740	
4531	0	32317	32816	31748	
4532	0	32305	32861	31722	
4533	0	32402	32772	31710	
4534	0	32620	32644	31717	
4535	0	32744	32751	31712	
4536	0	32900	32908	31686	
4537	0	33029	32974	31680	
4538	0	33136	33064	31685	
4539	0	33132	32844	31690	
4540	0	33236	32740	31696	
4541	0	33432	32760	31704	
4542	0	33329	32609	31719	
4543	0	33068	32672	31721	
4544	0	32886	32756	31724	
4545	0	32689	32712	31710	
4546	0	32452	32773	31710	
4547	0	32272	32880	31717	
4548	0	32122	32780	31726	
4549	0	32084	32770	31720	
4550	0	31080	32832	31738	
4551	0	30392	32756	31729	
4552	0	31536	32798	31730	
4553	0	32884	32804	31725	
4554	0	33948	32785	31705	
4555	0	35056	32806	31700	
4556	0	35168	32869	31692	
4557	0	34848	32853	31685	
4558	0	34465	32976	31676	
4559	0	33704	33076	31650	
4560	0	33304	33246	31658	
4561	0	33158	32464	31676	
4562	0	32768	32844	31660	
4563	0	32148	32740	31685	
4564	0	32148	32656	31668	
4565	0	32160	32885	31674	
4566	0	32134	32864	31672	
4567	0	32048	32752	31688	
4568	0	32000	32804	31712	
4569	0	32133	32876	31730	
4570	0	32156	32750	31724	
4571	0	32121	32964	31738	
4572	0	32228	32992	31748	
4573	0	32372	33009	31742	
4574	0	32528	32972	31740	
4575	0	32740	32964	31744	
4576	0	32796	32917	31724	
4577	0	33012	32944	31708	
4578	0	33220	33021	31702	
4579	0	33412	32844	31692	
4580	0	33612	32740	31719	
4581	0	33652	32801	31701	
4582	0	33192	32796	31689	
4583	0	32920	32711	31688	
4584	0	32860	32647	31680	
4585	0	32736	32688	31711	
4586	0	32656	32764	31717	
4587	0	32501	32678	31729	
4588	0	32436	32762	31716	
4589	0	32372	32772	31721	
4590	0	32565	32877	31716	
4591	0	32498	32924	31696	
4592	0	32408	32994	31716	
4593	0	32388	33089	31718	
4594	0	32468	32726	31708	
4595	0	32692	32890	31710	
4596	0	32756	32855	31685	
4597	0	33016	32978	31688	
4598	0	33256	32866	31685	
4599	0	33352	32892	31698	
4600	0	33226	32647	31695	
4601	0	32929	32725	31689	
4602	0	32852	32812	31684	
4603	0	32816	32655	31705	
4604	0	33004	32646	31692	
4605	0	32885	32772	31690	
4606	0	32668	32846	31697	
4607	0	32612	32756	31682	
4608	0	32520	32898	31689	
4609	0	32492	32844	31688	
4610	0	32654	32944	31676	
4611	0	32634	32921	31704	
4612	0	32608	32904	31712	
4613	0	32744	32889	31694	
4614	0	32844	32892	31684	
4615	0	32948	32980	31688	
4616	0	33008	32956	31668	
4617	0	33032	32993	31684	
4618	0	33078	32989	31680	
4619	0	32960	32797	31686	
4620	0	32928	32717	31676	
4621	0	32892	32834	31677	
4622	0	32812	32669	31654	
4623	0	32702	32610	31644	
4624	0	32602	32628	31649	
4625	0	32605	32740	31652	
4626	0	32616	32617	31632	
4627	0	32508	32625	31652	
4628	0	32608	32876	31668	
4629	0	32544	32821	31652	
4630	0	32604	32868	31658	
4631	0	32668	32976	31652	
4632	0	32656	32881	31676	
