# OpenSignals Text File Format
# {"00:07:80:4D:2E:AD": {"sensor": ["EMG", "EMG", "XYZ"], "device name": "00:07:80:4D:2E:AD", "column": ["nSeq", "DI", "CH1", "CH2", "CH3"], "sync interval": 2, "time": "15:34:51.978", "comments": "stone | ch1_flexor_digitorum_superficialis ch2_aductor_policis ch3_acc_z [trial 2]", "device connection": "BTH00:07:80:4D:2E:AD", "channels": [1, 2, 3], "keywords": "", "mode": 0, "digital IO": [0, 1], "firmware version": 773, "device": "biosignalsplux", "position": 0, "sampling rate": 1000, "label": ["CH1", "CH2", "CH3"], "resolution": [16, 16, 16], "date": "2019-1-23", "special": [{}, {}, {}]}}
# EndOfHeader
0	0	32992	32745	35884	
1	0	33084	32718	35868	
2	0	33084	32764	35876	
3	0	33117	32746	35868	
4	0	32996	32772	35877	
5	0	32932	32793	35862	
6	0	32776	32808	35885	
7	0	32718	32824	35892	
8	0	32604	32884	35892	
9	0	32578	32920	35916	
10	0	32444	32904	35908	
11	0	32460	32816	35900	
12	0	32397	32956	35873	
13	0	32512	32836	35892	
14	0	32540	32949	35916	
15	0	32676	32830	35908	
16	0	32836	32876	35896	
17	0	32920	32728	35880	
18	0	33130	32820	35892	
19	0	32988	32788	35892	
20	0	33081	32804	35880	
21	0	33084	32775	35873	
22	0	33188	32784	35872	
23	0	33120	32764	35884	
24	0	33024	32813	35878	
25	0	32964	32756	35904	
26	0	32776	32941	35924	
27	0	32697	32846	35937	
28	0	32564	32889	35924	
29	0	32564	32792	35922	
30	0	32424	32768	35932	
31	0	32420	32788	35916	
32	0	32440	32820	35940	
33	0	32440	32741	35914	
34	0	32570	32908	35904	
35	0	32656	32753	35904	
36	0	32872	32869	35912	
37	0	32868	32893	35908	
38	0	33049	32817	35873	
39	0	33044	32888	35884	
40	0	32996	32693	35894	
41	0	33036	32783	35885	
42	0	33044	32866	35893	
43	0	33026	32847	35900	
44	0	33000	32881	35904	
45	0	32888	32804	35868	
46	0	32752	32860	35880	
47	0	32620	32772	35888	
48	0	32596	32892	35894	
49	0	32548	32996	35902	
50	0	32524	32832	35896	
51	0	32416	32940	35896	
52	0	32532	32832	35893	
53	0	32498	32852	35888	
54	0	32605	32813	35880	
55	0	32654	32775	35884	
56	0	32732	32880	35864	
57	0	32920	32792	35873	
58	0	32997	32830	35870	
59	0	33065	32842	35880	
60	0	33081	32858	35865	
61	0	33066	32697	35892	
62	0	33100	32838	35892	
63	0	33044	32840	35901	
64	0	33036	32786	35892	
65	0	32896	32848	35889	
66	0	32776	32825	35876	
67	0	32720	32761	35888	
68	0	32624	32980	35888	
69	0	32520	33000	35896	
70	0	32460	32937	35908	
71	0	32412	32852	35896	
72	0	32452	32884	35892	
73	0	32448	32786	35892	
74	0	32608	32761	35894	
75	0	32688	32804	35896	
76	0	32717	32840	35892	
77	0	32896	32826	35884	
78	0	32996	32812	35904	
79	0	32964	32892	35906	
80	0	33148	32853	35905	
81	0	33032	32863	35894	
82	0	33048	32690	35892	
83	0	33020	32724	35876	
84	0	32924	32828	35877	
85	0	32880	32647	35872	
86	0	32758	32716	35904	
87	0	32740	32869	35912	
88	0	32668	32756	35909	
89	0	32558	32903	35916	
90	0	32516	32974	35906	
91	0	32485	32820	35908	
92	0	32550	32844	35920	
93	0	32616	32900	35934	
94	0	32576	32836	35941	
95	0	32730	32838	35943	
96	0	32792	32774	35928	
97	0	32878	32748	35884	
98	0	32992	32816	35887	
99	0	33001	32824	35888	
100	0	33060	32775	35900	
101	0	33088	32708	35924	
102	0	33068	32828	35900	
103	0	32976	32720	35897	
104	0	32972	32864	35886	
105	0	32905	32757	35896	
106	0	32797	32820	35914	
107	0	32728	32908	35928	
108	0	32612	32837	35935	
109	0	32500	33088	35942	
110	0	32477	32882	35924	
111	0	32514	32902	35907	
112	0	32357	32860	35921	
113	0	32416	32917	35903	
114	0	32504	32809	35900	
115	0	32644	32884	35900	
116	0	32892	32872	35912	
117	0	33016	32768	35898	
118	0	32960	32828	35888	
119	0	33070	32694	35904	
120	0	33100	32892	35892	
121	0	33072	32748	35879	
122	0	33112	32782	35869	
123	0	33076	32750	35877	
124	0	33016	32909	35880	
125	0	32908	32826	35870	
126	0	32765	32830	35848	
127	0	32728	32921	35866	
128	0	32652	32896	35872	
129	0	32504	32911	35866	
130	0	32402	32906	35892	
131	0	32388	32884	35880	
132	0	32451	32836	35876	
133	0	32548	32840	35860	
134	0	32656	32848	35877	
135	0	32768	32889	35879	
136	0	32752	32880	35876	
137	0	32956	32898	35852	
138	0	33076	32841	35865	
139	0	33108	32797	35872	
140	0	33077	32828	35848	
141	0	32948	32854	35844	
142	0	33096	32757	35837	
143	0	33056	32808	35868	
144	0	33044	32773	35863	
145	0	32928	32836	35878	
146	0	32738	32668	35886	
147	0	32572	32772	35853	
148	0	32625	32890	35865	
149	0	32452	32824	35894	
150	0	32448	32918	35888	
151	0	32436	32753	35892	
152	0	32468	32926	35893	
153	0	32485	32852	35880	
154	0	32596	32840	35912	
155	0	32736	32887	35892	
156	0	32862	32820	35880	
157	0	32812	32902	35880	
158	0	32932	32829	35876	
159	0	33117	32862	35892	
160	0	33080	32704	35868	
161	0	33128	32754	35846	
162	0	33152	32780	35860	
163	0	33032	32665	35884	
164	0	33056	32684	35910	
165	0	32956	32789	35904	
166	0	32769	32800	35929	
167	0	32720	32834	35904	
168	0	32624	32825	35904	
169	0	32500	32932	35916	
170	0	32520	32928	35910	
171	0	32465	32804	35921	
172	0	32500	32834	35913	
173	0	32532	32758	35910	
174	0	32532	32832	35905	
175	0	32658	32864	35910	
176	0	32728	32936	35898	
177	0	32880	32881	35884	
178	0	32970	32820	35899	
179	0	33016	32860	35924	
180	0	33053	32845	35904	
181	0	33077	32753	35892	
182	0	33049	32773	35888	
183	0	33008	32750	35886	
184	0	32988	32720	35896	
185	0	32914	32832	35869	
186	0	32808	32792	35886	
187	0	32756	32898	35903	
188	0	32584	32900	35904	
189	0	32488	32903	35936	
190	0	32472	32828	35908	
191	0	32492	32888	35912	
192	0	32484	32758	35919	
193	0	32449	32909	35904	
194	0	32560	32775	35892	
195	0	32752	32889	35888	
196	0	32762	32804	35880	
197	0	32812	32744	35886	
198	0	32961	32885	35892	
199	0	33033	32738	35907	
200	0	33028	32732	35901	
201	0	33089	32753	35885	
202	0	33132	32780	35876	
203	0	33065	32744	35888	
204	0	32920	32775	35876	
205	0	32856	32813	35868	
206	0	32752	32816	35876	
207	0	32694	32852	35876	
208	0	32496	32960	35889	
209	0	32500	32952	35893	
210	0	32464	32768	35897	
211	0	32460	32873	35896	
212	0	32424	32928	35896	
213	0	32504	33076	35919	
214	0	32664	32848	35909	
215	0	32725	33031	35912	
216	0	32816	32844	35896	
217	0	32928	32897	35868	
218	0	33088	32935	35884	
219	0	33148	32766	35904	
220	0	33028	32681	35892	
221	0	33080	32706	35890	
222	0	33124	32704	35878	
223	0	33044	32764	35873	
224	0	32976	32796	35904	
225	0	32908	32841	35900	
226	0	32784	32788	35912	
227	0	32668	32953	35902	
228	0	32492	32948	35889	
229	0	32464	32960	35873	
230	0	32396	32932	35873	
231	0	32504	33032	35887	
232	0	32480	32877	35876	
233	0	32628	32860	35882	
234	0	32628	32798	35887	
235	0	32716	32841	35880	
236	0	32756	32817	35877	
237	0	32982	32910	35864	
238	0	33026	32942	35864	
239	0	32908	32756	35884	
240	0	33025	32748	35896	
241	0	33077	32690	35893	
242	0	33101	32701	35892	
243	0	33028	32720	35887	
244	0	32940	32721	35894	
245	0	32905	32776	35884	
246	0	32816	32860	35913	
247	0	32716	32922	35908	
248	0	32592	33129	35900	
249	0	32464	32892	35912	
250	0	32520	32953	35908	
251	0	32470	32840	35920	
252	0	32428	32676	35897	
253	0	32508	32756	35880	
254	0	32532	32870	35872	
255	0	32636	32756	35856	
256	0	32860	32764	35820	
257	0	33004	32894	35828	
258	0	33012	32758	35860	
259	0	33022	32834	35877	
260	0	33012	32813	35898	
261	0	33008	32752	35892	
262	0	33025	32805	35884	
263	0	33090	32750	35880	
264	0	32982	32853	35892	
265	0	32937	32916	35910	
266	0	32748	32778	35936	
267	0	32700	33008	35924	
268	0	32676	32775	35916	
269	0	32580	32895	35910	
270	0	32538	32809	35890	
271	0	32508	32900	35877	
272	0	32480	32868	35857	
273	0	32464	32872	35864	
274	0	32608	32920	35865	
275	0	32654	32884	35868	
276	0	32788	32898	35882	
277	0	32853	32951	35871	
278	0	33024	32900	35868	
279	0	33072	32780	35862	
280	0	33108	32744	35864	
281	0	33080	32702	35864	
282	0	33080	32736	35872	
283	0	33024	32676	35866	
284	0	32980	32807	35856	
285	0	32912	32766	35880	
286	0	32804	32852	35897	
287	0	32626	32884	35904	
288	0	32609	32840	35908	
289	0	32496	32996	35920	
290	0	32480	32880	35893	
291	0	32516	32901	35892	
292	0	32464	32879	35912	
293	0	32584	32870	35924	
294	0	32548	32909	35912	
295	0	32700	32853	35916	
296	0	32888	32828	35880	
297	0	32906	32868	35881	
298	0	32912	32716	35896	
299	0	32992	32775	35892	
300	0	33104	32724	35894	
301	0	33092	32825	35884	
302	0	33144	32808	35868	
303	0	33004	32728	35876	
304	0	33064	32870	35876	
305	0	32904	32748	35876	
306	0	32757	32856	35888	
307	0	32689	32776	35897	
308	0	32540	32868	35909	
309	0	32424	32834	35900	
310	0	32482	32868	35908	
311	0	32548	32844	35900	
312	0	32556	32864	35883	
313	0	32508	32884	35886	
314	0	32556	32852	35888	
315	0	32678	32756	35876	
316	0	32768	32832	35888	
317	0	32956	32832	35889	
318	0	32988	32801	35868	
319	0	33052	32842	35858	
320	0	33008	32740	35844	
321	0	33121	32740	35873	
322	0	33120	32849	35866	
323	0	32988	32709	35868	
324	0	33012	32847	35864	
325	0	32908	32788	35886	
326	0	32772	32760	35904	
327	0	32736	32828	35908	
328	0	32669	33000	35896	
329	0	32568	32984	35894	
330	0	32493	32924	35896	
331	0	32392	32913	35897	
332	0	32468	32892	35900	
333	0	32496	32792	35906	
334	0	32552	32806	35912	
335	0	32724	32906	35917	
336	0	32732	32785	35884	
337	0	32892	32937	35898	
338	0	32908	32748	35883	
339	0	33040	33024	35860	
340	0	33038	32785	35868	
341	0	33124	32836	35873	
342	0	33140	32758	35876	
343	0	33056	32790	35882	
344	0	33036	32744	35869	
345	0	32946	32828	35892	
346	0	32844	32758	35888	
347	0	32770	32724	35884	
348	0	32576	32844	35914	
349	0	32466	32982	35904	
350	0	32420	32868	35896	
351	0	32462	32948	35908	
352	0	32464	32876	35915	
353	0	32548	33049	35906	
354	0	32644	32788	35896	
355	0	32724	32837	35892	
356	0	32852	32868	35877	
357	0	32848	32716	35870	
358	0	32912	32902	35848	
359	0	33060	32676	35887	
360	0	33076	32745	35876	
361	0	33112	32700	35876	
362	0	33096	32748	35892	
363	0	33004	32708	35890	
364	0	33148	32773	35880	
365	0	32960	32816	35904	
366	0	32828	32896	35902	
367	0	32693	32900	35892	
368	0	32640	32919	35862	
369	0	32556	32666	35881	
370	0	32468	32778	35882	
371	0	32445	32869	35896	
372	0	32376	32917	35908	
373	0	32524	32932	35900	
374	0	32569	32969	35908	
375	0	32692	32916	35912	
376	0	32812	32964	35898	
377	0	32924	32913	35888	
378	0	32996	32780	35885	
379	0	33074	32825	35904	
380	0	33096	32700	35884	
381	0	33052	32654	35876	
382	0	33020	32668	35876	
383	0	33040	32794	35880	
384	0	32982	32688	35872	
385	0	32976	32752	35874	
386	0	32816	32878	35881	
387	0	32712	32950	35890	
388	0	32632	32947	35888	
389	0	32536	32943	35884	
390	0	32444	32936	35920	
391	0	32410	32904	35912	
392	0	32434	32822	35905	
393	0	32493	32846	35928	
394	0	32580	32868	35918	
395	0	32600	32858	35920	
396	0	32856	32812	35900	
397	0	32905	32996	35893	
398	0	32864	32756	35888	
399	0	33078	32848	35886	
400	0	33090	32823	35904	
401	0	33047	32680	35892	
402	0	33084	32683	35892	
403	0	33026	32692	35896	
404	0	33060	32684	35908	
405	0	32924	32734	35904	
406	0	32816	32785	35904	
407	0	32696	32860	35900	
408	0	32572	32880	35904	
409	0	32516	33016	35924	
410	0	32412	32889	35908	
411	0	32500	33012	35924	
412	0	32480	32912	35942	
413	0	32470	32933	35932	
414	0	32592	32806	35928	
415	0	32736	32876	35905	
416	0	32856	32866	35902	
417	0	32890	32848	35901	
418	0	32998	32988	35914	
419	0	32912	32688	35904	
420	0	32964	32716	35881	
421	0	33082	32706	35868	
422	0	33169	32812	35878	
423	0	33224	32836	35892	
424	0	33049	32812	35886	
425	0	32904	32881	35877	
426	0	32752	32746	35880	
427	0	32682	32764	35892	
428	0	32592	32832	35896	
429	0	32441	32853	35902	
430	0	32436	32910	35888	
431	0	32416	32908	35902	
432	0	32472	32916	35894	
433	0	32564	32919	35896	
434	0	32630	32815	35894	
435	0	32664	32868	35881	
436	0	32756	32750	35877	
437	0	32944	32868	35896	
438	0	33032	32878	35888	
439	0	33066	32724	35880	
440	0	33136	32728	35876	
441	0	33072	32758	35868	
442	0	33092	32760	35876	
443	0	32980	32752	35895	
444	0	33012	32815	35896	
445	0	32900	32764	35896	
446	0	32772	32928	35908	
447	0	32677	32898	35937	
448	0	32616	32920	35924	
449	0	32516	32834	35932	
450	0	32484	32829	35924	
451	0	32532	32915	35911	
452	0	32488	32927	35928	
453	0	32518	32853	35919	
454	0	32580	32980	35896	
455	0	32672	32869	35888	
456	0	32808	32836	35894	
457	0	32929	32820	35892	
458	0	32924	32913	35873	
459	0	33012	32752	35881	
460	0	33050	32668	35877	
461	0	33112	32662	35873	
462	0	33072	32696	35864	
463	0	33076	32653	35871	
464	0	33060	32775	35873	
465	0	32924	32704	35878	
466	0	32777	32812	35890	
467	0	32781	32948	35912	
468	0	32600	32980	35909	
469	0	32512	32828	35920	
470	0	32482	32984	35904	
471	0	32424	32868	35880	
472	0	32528	32916	35910	
473	0	32576	32858	35897	
474	0	32678	32832	35910	
475	0	32724	32768	35892	
476	0	32776	32822	35896	
477	0	32936	32770	35876	
478	0	32988	32902	35864	
479	0	33028	32910	35856	
480	0	33084	32729	35854	
481	0	33088	32792	35847	
482	0	33093	32692	35847	
483	0	33032	32713	35865	
484	0	32888	32720	35860	
485	0	32897	32782	35864	
486	0	32744	32796	35881	
487	0	32753	32816	35897	
488	0	32624	32928	35932	
489	0	32512	32924	35933	
490	0	32492	32980	35909	
491	0	32396	32966	35920	
492	0	32456	32887	35900	
493	0	32604	32772	35904	
494	0	32516	32844	35910	
495	0	32673	32793	35896	
496	0	32744	32801	35900	
497	0	32900	32792	35896	
498	0	32992	32828	35881	
499	0	33096	32692	35888	
500	0	33064	32760	35876	
501	0	33028	32733	35868	
502	0	33090	32786	35880	
503	0	33020	32676	35884	
504	0	32948	32788	35882	
505	0	32872	32816	35882	
506	0	32756	32824	35898	
507	0	32661	32888	35916	
508	0	32556	32910	35920	
509	0	32488	32844	35906	
510	0	32616	32961	35888	
511	0	32492	32940	35872	
512	0	32508	32921	35877	
513	0	32493	32860	35884	
514	0	32584	32847	35912	
515	0	32676	32832	35909	
516	0	32768	32804	35899	
517	0	32848	32841	35892	
518	0	32916	32804	35885	
519	0	33180	32888	35886	
520	0	33165	32844	35880	
521	0	33116	32926	35888	
522	0	33060	32908	35870	
523	0	33054	32720	35862	
524	0	33036	32775	35856	
525	0	33000	32836	35863	
526	0	32768	32808	35863	
527	0	32628	32849	35890	
528	0	32492	33017	35876	
529	0	32513	32933	35876	
530	0	32496	32856	35902	
531	0	32452	32876	35908	
532	0	32496	32816	35908	
533	0	32572	32784	35888	
534	0	32612	32852	35900	
535	0	32708	32750	35897	
536	0	32804	32832	35896	
537	0	32956	32848	35877	
538	0	32996	32812	35898	
539	0	33052	32748	35920	
540	0	33044	32729	35914	
541	0	33112	32714	35915	
542	0	33080	32694	35908	
543	0	33092	32736	35912	
544	0	33005	32736	35888	
545	0	32921	32717	35888	
546	0	32724	32780	35895	
547	0	32695	32799	35909	
548	0	32596	32928	35922	
549	0	32508	32944	35900	
550	0	32448	32848	35888	
551	0	32480	32829	35876	
552	0	32482	32769	35884	
553	0	32600	32844	35868	
554	0	32640	33036	35876	
555	0	32616	32956	35906	
556	0	32808	32884	35903	
557	0	32912	32812	35878	
558	0	32968	32982	35896	
559	0	33024	32744	35890	
560	0	33084	32767	35876	
561	0	33072	32817	35868	
562	0	33124	32724	35869	
563	0	33108	32728	35884	
564	0	33040	32684	35880	
565	0	32924	32674	35872	
566	0	32736	32738	35896	
567	0	32660	32933	35910	
568	0	32484	32980	35910	
569	0	32476	32830	35900	
570	0	32508	32965	35896	
571	0	32480	32934	35897	
572	0	32508	32964	35882	
573	0	32548	32867	35892	
574	0	32596	32856	35892	
575	0	32701	32794	35892	
576	0	32768	32921	35892	
577	0	32796	32900	35892	
578	0	32994	32853	35896	
579	0	33060	32818	35885	
580	0	33052	32822	35884	
581	0	33136	32700	35868	
582	0	33052	32714	35866	
583	0	33028	32811	35892	
584	0	32924	32806	35904	
585	0	32996	32765	35914	
586	0	32836	32808	35928	
587	0	32726	32916	35924	
588	0	32616	32927	35924	
589	0	32480	32860	35928	
590	0	32448	32828	35928	
591	0	32372	32832	35940	
592	0	32404	32810	35920	
593	0	32576	32888	35908	
594	0	32628	32829	35892	
595	0	32640	32910	35904	
596	0	32752	32821	35889	
597	0	32876	32788	35896	
598	0	32949	32847	35876	
599	0	33068	32797	35869	
600	0	33046	32781	35884	
601	0	33128	32772	35888	
602	0	33160	32740	35894	
603	0	33108	32694	35889	
604	0	33062	32689	35892	
605	0	32980	32820	35912	
606	0	32786	32852	35916	
607	0	32745	32824	35925	
608	0	32568	32804	35925	
609	0	32452	32932	35918	
610	0	32496	32932	35916	
611	0	32456	33022	35908	
612	0	32460	32823	35908	
613	0	32460	32852	35876	
614	0	32546	32956	35870	
615	0	32728	33008	35873	
616	0	32762	32884	35884	
617	0	32908	32768	35872	
618	0	33088	32816	35884	
619	0	33116	32720	35885	
620	0	33128	32736	35888	
621	0	33116	32817	35888	
622	0	33080	32822	35896	
623	0	32996	32732	35888	
624	0	32988	32778	35898	
625	0	32932	32741	35932	
626	0	32720	32836	35912	
627	0	32680	32920	35900	
628	0	32612	33000	35925	
629	0	32530	32948	35920	
630	0	32484	32844	35896	
631	0	32446	32829	35888	
632	0	32532	32766	35892	
633	0	32548	32775	35884	
634	0	32660	32700	35884	
635	0	32797	32824	35888	
636	0	32808	32881	35872	
637	0	32876	32929	35866	
638	0	32970	33008	35876	
639	0	32996	32847	35880	
640	0	32992	32804	35852	
641	0	32960	32812	35852	
642	0	33056	32848	35864	
643	0	32986	32797	35876	
644	0	33079	32736	35911	
645	0	32954	32880	35921	
646	0	32740	32852	35920	
647	0	32578	32920	35941	
648	0	32580	32744	35920	
649	0	32449	32721	35919	
650	0	32433	32809	35936	
651	0	32432	32790	35912	
652	0	32520	32885	35913	
653	0	32552	32806	35925	
654	0	32566	32848	35896	
655	0	32688	32903	35880	
656	0	32784	32948	35884	
657	0	32932	32812	35880	
658	0	32964	32847	35897	
659	0	33056	32758	35905	
660	0	33097	32696	35904	
661	0	33084	32752	35870	
662	0	33060	32721	35868	
663	0	32976	32842	35872	
664	0	32988	32732	35888	
665	0	32904	32908	35896	
666	0	32832	32773	35908	
667	0	32636	32848	35902	
668	0	32596	32981	35900	
669	0	32480	32815	35900	
670	0	32504	32824	35908	
671	0	32448	32911	35920	
672	0	32505	32770	35909	
673	0	32524	32892	35880	
674	0	32576	32767	35886	
675	0	32788	32865	35889	
676	0	32776	32730	35896	
677	0	32908	32848	35889	
678	0	33048	32865	35861	
679	0	33116	32815	35852	
680	0	33037	32830	35857	
681	0	33068	32749	35848	
682	0	33052	32860	35888	
683	0	33104	32661	35897	
684	0	33005	32812	35896	
685	0	32968	32757	35895	
686	0	32840	32878	35884	
687	0	32703	32828	35876	
688	0	32560	32850	35894	
689	0	32540	32906	35887	
690	0	32464	32830	35890	
691	0	32416	32924	35916	
692	0	32423	32856	35909	
693	0	32544	32994	35908	
694	0	32580	32912	35904	
695	0	32736	32956	35896	
696	0	32740	32880	35879	
697	0	32800	32821	35880	
698	0	33028	32882	35892	
699	0	33114	32742	35880	
700	0	33040	32756	35885	
701	0	33049	32677	35885	
702	0	33088	32744	35865	
703	0	33002	32772	35868	
704	0	32921	32832	35860	
705	0	32925	32814	35880	
706	0	32808	32848	35887	
707	0	32800	32868	35871	
708	0	32654	32900	35856	
709	0	32448	32788	35860	
710	0	32488	32960	35869	
711	0	32480	32822	35846	
712	0	32456	32900	35860	
713	0	32534	32888	35876	
714	0	32564	32844	35876	
715	0	32730	32917	35868	
716	0	32856	32806	35860	
717	0	32844	32968	35868	
718	0	32968	32855	35876	
719	0	33080	32945	35868	
720	0	33072	32873	35875	
721	0	33056	32932	35872	
722	0	33084	32824	35847	
723	0	33084	32860	35833	
724	0	33016	32590	35846	
725	0	32904	32633	35864	
726	0	32764	32740	35871	
727	0	32628	32752	35872	
728	0	32613	32804	35852	
729	0	32496	32716	35868	
730	0	32472	32708	35869	
731	0	32445	32726	35877	
732	0	32448	32816	35881	
733	0	32480	32905	35872	
734	0	32597	32817	35884	
735	0	32646	32970	35905	
736	0	32832	32884	35911	
737	0	32952	32609	35908	
738	0	33060	32775	35894	
739	0	32956	32486	35917	
740	0	33044	32652	35917	
741	0	33248	32745	35894	
742	0	33088	32696	35898	
743	0	33014	32792	35904	
744	0	32982	32742	35894	
745	0	32912	32904	35872	
746	0	32808	32854	35870	
747	0	32728	32940	35877	
748	0	32505	33102	35892	
749	0	32464	32997	35887	
750	0	32484	33046	35928	
751	0	32460	33158	35908	
752	0	32492	33004	35885	
753	0	32496	33070	35884	
754	0	32648	32989	35889	
755	0	32688	33000	35916	
756	0	32844	33221	35909	
757	0	32924	33447	35920	
758	0	33040	33572	35919	
759	0	33056	33287	35898	
760	0	33112	33412	35884	
761	0	33152	33175	35900	
762	0	33072	32872	35884	
763	0	33018	32432	35880	
764	0	32964	32228	35882	
765	0	32946	32096	35884	
766	0	32860	32385	35904	
767	0	32656	32613	35908	
768	0	32576	33096	35928	
769	0	32436	32764	35933	
770	0	32480	32636	35916	
771	0	32484	32658	35917	
772	0	32541	32501	35928	
773	0	32600	32148	35916	
774	0	32589	32056	35920	
775	0	32681	31893	35896	
776	0	32740	31830	35882	
777	0	32860	31788	35896	
778	0	32977	32276	35884	
779	0	33096	32814	35884	
780	0	33109	33287	35872	
781	0	33108	33541	35870	
782	0	33076	33581	35853	
783	0	32997	33796	35855	
784	0	32901	33508	35840	
785	0	32882	32993	35847	
786	0	32785	32601	35856	
787	0	32682	32360	35850	
788	0	32560	32332	35860	
789	0	32502	32701	35879	
790	0	32444	33014	35888	
791	0	32558	32941	35872	
792	0	32446	32912	35852	
793	0	32552	32836	35884	
794	0	32516	33189	35873	
795	0	32760	33142	35880	
796	0	32840	33078	35884	
797	0	32864	32893	35876	
798	0	32980	32846	35872	
799	0	33008	32652	35879	
800	0	33064	32721	35868	
801	0	33121	32628	35868	
802	0	33120	32508	35840	
803	0	33016	32314	35829	
804	0	33009	32248	35831	
805	0	32920	32236	35832	
806	0	32784	32775	35848	
807	0	32700	33440	35881	
808	0	32610	33580	35889	
809	0	32516	33692	35888	
810	0	32544	33276	35896	
811	0	32466	33160	35884	
812	0	32464	33024	35868	
813	0	32480	32638	35860	
814	0	32546	32343	35866	
815	0	32689	32596	35847	
816	0	32792	32908	35836	
817	0	32852	33112	35846	
818	0	32885	32761	35830	
819	0	33004	32820	35844	
820	0	33052	32772	35836	
821	0	33032	32746	35846	
822	0	33028	32549	35838	
823	0	32970	32324	35877	
824	0	32926	32345	35912	
825	0	32909	32566	35900	
826	0	32868	32744	35869	
827	0	32804	32758	35832	
828	0	32632	32852	35847	
829	0	32508	33004	35830	
830	0	32436	33080	35839	
831	0	32472	33165	35816	
832	0	32420	33124	35830	
833	0	32560	33028	35838	
834	0	32611	32857	35868	
835	0	32692	32992	35859	
836	0	32793	33043	35877	
837	0	32952	32884	35886	
838	0	32844	32854	35868	
839	0	32878	32736	35844	
840	0	33112	32879	35846	
841	0	33221	32629	35852	
842	0	33196	32809	35857	
843	0	33112	32830	35869	
844	0	33060	32722	35880	
845	0	32952	32769	35866	
846	0	32756	32874	35888	
847	0	32584	32820	35916	
848	0	32508	32908	35904	
849	0	32518	32868	35888	
850	0	32444	32810	35872	
851	0	32440	32736	35853	
852	0	32405	32705	35860	
853	0	32528	32852	35844	
854	0	32652	32876	35884	
855	0	32924	32930	35884	
856	0	32916	32897	35876	
857	0	33020	32928	35879	
858	0	33120	32761	35893	
859	0	33024	32772	35900	
860	0	33084	32815	35920	
861	0	33044	32900	35949	
862	0	33005	33076	35936	
863	0	32986	33140	35926	
864	0	32917	33276	35945	
865	0	32725	33111	35950	
866	0	32692	33012	35945	
867	0	32628	33062	35948	
868	0	32664	32864	35936	
869	0	32578	32389	35940	
870	0	32474	32508	35928	
871	0	32557	32696	35910	
872	0	32608	32636	35924	
873	0	32766	32580	35932	
874	0	32730	32972	35924	
875	0	32748	33153	35912	
876	0	32745	33167	35904	
877	0	32808	33388	35887	
878	0	32984	33468	35900	
879	0	32916	32831	35920	
880	0	32876	32197	35924	
881	0	32952	31977	35936	
882	0	33112	31543	35933	
883	0	33088	31440	35937	
884	0	32980	31863	35912	
885	0	32900	32142	35908	
886	0	32828	32308	35908	
887	0	32660	32542	35890	
888	0	32657	33004	35896	
889	0	32592	33015	35885	
890	0	32484	33012	35888	
891	0	32545	33183	35904	
892	0	32576	33340	35895	
893	0	32540	33420	35898	
894	0	32660	33272	35913	
895	0	32632	33261	35920	
896	0	32612	33048	35912	
897	0	32790	32928	35912	
898	0	32964	33141	35908	
899	0	33298	33040	35932	
900	0	33506	32992	35948	
901	0	33076	33000	35958	
902	0	32900	33304	35944	
903	0	32872	33744	35952	
904	0	32828	33664	35933	
905	0	32776	34256	35916	
906	0	32548	34174	35892	
907	0	32597	33424	35887	
908	0	32740	32290	35904	
909	0	32748	31724	35886	
910	0	32632	31446	35889	
911	0	32508	31542	35885	
912	0	32428	31317	35896	
913	0	32449	31032	35916	
914	0	32568	31162	35900	
915	0	32746	31673	35904	
916	0	32872	32280	35895	
917	0	32864	32694	35901	
918	0	32982	33232	35896	
919	0	33014	33348	35916	
920	0	33087	33272	35957	
921	0	33124	33260	35972	
922	0	33188	33306	35976	
923	0	33096	33232	35974	
924	0	33028	33132	35932	
925	0	32928	33368	35941	
926	0	32848	33617	35977	
927	0	32649	33344	36048	
928	0	32432	33218	36052	
929	0	32436	33220	36056	
930	0	32352	33068	36020	
931	0	32416	32964	35988	
932	0	32368	32700	35976	
933	0	32436	32879	35961	
934	0	32577	32846	35957	
935	0	32688	32314	36000	
936	0	33020	32396	36002	
937	0	33038	32669	35988	
938	0	32964	32996	36016	
939	0	33072	32860	36036	
940	0	33296	32924	36069	
941	0	33236	33174	36080	
942	0	33084	33037	36100	
943	0	32968	32596	36081	
944	0	32968	32781	36086	
945	0	32925	32688	36093	
946	0	32729	32536	36069	
947	0	32712	32517	36084	
948	0	32613	32476	36089	
949	0	32472	32964	36128	
950	0	32572	33013	36118	
951	0	32514	33121	36129	
952	0	32414	33108	36153	
953	0	32397	33220	36172	
954	0	32476	33023	36176	
955	0	32572	32892	36196	
956	0	32730	32690	36204	
957	0	32788	32586	36198	
958	0	32936	32600	36200	
959	0	33124	32439	36205	
960	0	33164	32639	36230	
961	0	33148	32500	36253	
962	0	33084	32496	36276	
963	0	33037	32584	36282	
964	0	33040	32620	36244	
965	0	32936	32788	36220	
966	0	32752	32997	36248	
967	0	32625	33254	36217	
968	0	32536	33575	36206	
969	0	32464	33229	36196	
970	0	32496	32756	36189	
971	0	32600	32524	36181	
972	0	32536	32312	36152	
973	0	32640	33440	36160	
974	0	32656	33432	36160	
975	0	32744	33320	36209	
976	0	32740	32798	36232	
977	0	32874	31804	36278	
978	0	32960	32300	36320	
979	0	32941	33543	36328	
980	0	33033	33485	36325	
981	0	32968	33031	36284	
982	0	33028	32558	36268	
983	0	33012	32561	36288	
984	0	33092	33068	36317	
985	0	32992	33189	36342	
986	0	32757	33100	36327	
987	0	32548	32680	36313	
988	0	32544	32665	36320	
989	0	32548	32532	36324	
990	0	32537	32736	36344	
991	0	32552	33049	36350	
992	0	32452	33222	36322	
993	0	32549	33102	36274	
994	0	32564	32664	36220	
995	0	32676	32828	36183	
996	0	32780	32772	36120	
997	0	32900	32432	36085	
998	0	32912	32404	36068	
999	0	33016	32509	36033	
1000	0	33014	32653	36015	
1001	0	32966	32592	35985	
1002	0	32904	32552	35956	
1003	0	32945	32830	35926	
1004	0	32861	32788	35872	
1005	0	32833	32158	35808	
1006	0	32617	32106	35752	
1007	0	32540	32263	35696	
1008	0	32564	32196	35719	
1009	0	32576	32340	35728	
1010	0	32772	32524	35706	
1011	0	32686	32584	35677	
1012	0	32648	32788	35708	
1013	0	32644	32584	35748	
1014	0	32641	32548	35764	
1015	0	32668	32472	35752	
1016	0	32764	32491	35740	
1017	0	33020	32474	35728	
1018	0	33056	32665	35700	
1019	0	32996	32612	35690	
1020	0	33064	32680	35676	
1021	0	32952	32812	35650	
1022	0	33085	32876	35652	
1023	0	32884	32996	35662	
1024	0	32906	33044	35652	
1025	0	32764	33000	35702	
1026	0	32708	32760	35770	
1027	0	32696	32536	35800	
1028	0	32634	33198	35856	
1029	0	32521	33824	35924	
1030	0	32388	33293	36000	
1031	0	32454	32524	36044	
1032	0	32560	30925	36112	
1033	0	32669	31552	36156	
1034	0	32600	32814	36233	
1035	0	32600	33444	36260	
1036	0	32826	33664	36285	
1037	0	32848	34237	36300	
1038	0	32900	34740	36303	
1039	0	32964	34252	36296	
1040	0	32952	33532	36297	
1041	0	32816	32923	36260	
1042	0	32960	32696	36204	
1043	0	33132	32447	36172	
1044	0	33230	31613	36152	
1045	0	32996	32175	36140	
1046	0	32660	32364	36096	
1047	0	32656	33017	36058	
1048	0	32772	32872	36020	
1049	0	32668	32726	35984	
1050	0	32456	32860	35951	
1051	0	32340	33054	35933	
1052	0	32420	33244	35860	
1053	0	32732	32584	35808	
1054	0	32848	31765	35784	
1055	0	32878	32450	35740	
1056	0	32864	32618	35719	
1057	0	33037	32856	35690	
1058	0	33056	33055	35672	
1059	0	33032	33024	35646	
1060	0	32972	32829	35597	
1061	0	33041	32432	35568	
1062	0	33092	32034	35528	
1063	0	33016	32324	35500	
1064	0	32936	32262	35456	
1065	0	32853	32700	35422	
1066	0	32720	33552	35397	
1067	0	32501	34788	35368	
1068	0	32412	34260	35325	
1069	0	32384	33504	35309	
1070	0	32304	33492	35298	
1071	0	32332	31612	35280	
1072	0	32385	30016	35262	
1073	0	32433	31444	35276	
1074	0	32583	32657	35240	
1075	0	32671	34813	35236	
1076	0	32788	33008	35220	
1077	0	33004	31016	35213	
1078	0	33112	30704	35225	
1079	0	33264	30856	35224	
1080	0	33592	32708	35257	
1081	0	33636	34780	35260	
1082	0	33400	34889	35276	
1083	0	33338	35604	35334	
1084	0	33192	37028	35380	
1085	0	32834	37208	35452	
1086	0	32540	35284	35512	
1087	0	32436	33380	35580	
1088	0	32576	32377	35671	
1089	0	32256	32157	35746	
1090	0	32072	32176	35815	
1091	0	31836	32056	35868	
1092	0	31982	32038	35948	
1093	0	32320	32530	36028	
1094	0	32328	32836	36128	
1095	0	32844	32641	36240	
1096	0	33236	32480	36328	
1097	0	33196	32480	36396	
1098	0	33548	31632	36446	
1099	0	33984	32351	36500	
1100	0	33592	33988	36556	
1101	0	33192	33708	36592	
1102	0	33172	33484	36656	
1103	0	33048	33580	36714	
1104	0	32802	33375	36728	
1105	0	32680	32776	36743	
1106	0	32392	32192	36768	
1107	0	32264	32184	36806	
1108	0	32204	32114	36829	
1109	0	32068	32307	36839	
1110	0	32148	32376	36796	
1111	0	32229	32367	36797	
1112	0	32361	32552	36780	
1113	0	32468	32696	36766	
1114	0	32620	32812	36720	
1115	0	32820	32986	36713	
1116	0	33028	33031	36700	
1117	0	33252	33100	36684	
1118	0	33320	34012	36644	
1119	0	33380	33623	36632	
1120	0	33414	32542	36615	
1121	0	33388	31400	36578	
1122	0	33532	32202	36552	
1123	0	33368	33189	36520	
1124	0	33032	33141	36492	
1125	0	32924	32620	36486	
1126	0	32562	32740	36493	
1127	0	32262	32708	36472	
1128	0	32110	32484	36456	
1129	0	31912	32328	36404	
1130	0	31952	32184	36368	
1131	0	32112	32492	36314	
1132	0	32228	32672	36272	
1133	0	32420	32870	36228	
1134	0	32668	32952	36193	
1135	0	32809	33077	36148	
1136	0	33120	32948	36052	
1137	0	33400	32886	36012	
1138	0	33492	32698	35975	
1139	0	33476	32608	35916	
1140	0	33456	32758	35892	
1141	0	33368	32968	35839	
1142	0	33260	33119	35785	
1143	0	32918	33076	35750	
1144	0	32684	32980	35728	
1145	0	32596	32724	35692	
1146	0	32440	32876	35663	
1147	0	32244	32971	35633	
1148	0	32004	33065	35614	
1149	0	31800	32797	35580	
1150	0	31848	32616	35560	
1151	0	32013	32655	35536	
1152	0	32192	32502	35510	
1153	0	32460	32444	35492	
1154	0	32748	32477	35473	
1155	0	32992	32840	35432	
1156	0	33260	32978	35390	
1157	0	33580	33414	35388	
1158	0	33852	33600	35372	
1159	0	33934	33428	35351	
1160	0	33941	33371	35314	
1161	0	33556	33380	35300	
1162	0	33344	32988	35276	
1163	0	33121	32801	35236	
1164	0	32792	32894	35188	
1165	0	32348	32760	35126	
1166	0	32376	32506	35092	
1167	0	32532	32860	35009	
1168	0	31908	32816	34948	
1169	0	31378	32269	34890	
1170	0	31624	32428	34820	
1171	0	31884	32588	34776	
1172	0	31949	33604	34708	
1173	0	32264	33564	34625	
1174	0	32862	32446	34588	
1175	0	33260	32294	34537	
1176	0	33676	32308	34520	
1177	0	34300	32456	34494	
1178	0	34724	33333	34461	
1179	0	34608	34906	34444	
1180	0	34164	35500	34418	
1181	0	33974	34170	34415	
1182	0	33888	32088	34404	
1183	0	33648	30901	34416	
1184	0	32984	31736	34397	
1185	0	32352	31524	34414	
1186	0	31700	31004	34468	
1187	0	30656	31823	34482	
1188	0	29888	33412	34476	
1189	0	29704	33620	34484	
1190	0	29644	34128	34516	
1191	0	30252	34512	34541	
1192	0	31096	33990	34544	
1193	0	31920	33145	34536	
1194	0	32858	32640	34540	
1195	0	33930	32396	34516	
1196	0	34840	32217	34481	
1197	0	35481	32496	34444	
1198	0	35792	32512	34420	
1199	0	36166	32661	34376	
1200	0	36164	32612	34324	
1201	0	35288	32584	34278	
1202	0	34732	32661	34224	
1203	0	34268	32584	34208	
1204	0	33310	32617	34156	
1205	0	31948	32505	34134	
1206	0	30824	32572	34096	
1207	0	29840	32597	34055	
1208	0	29084	32468	34005	
1209	0	28740	32462	33966	
1210	0	28908	32452	33922	
1211	0	29868	32432	33908	
1212	0	30960	32446	33860	
1213	0	32160	32461	33836	
1214	0	33385	32613	33802	
1215	0	33968	32712	33790	
1216	0	34456	32925	33781	
1217	0	35000	32968	33777	
1218	0	35124	33008	33781	
1219	0	34784	32928	33788	
1220	0	34532	32830	33799	
1221	0	34190	32338	33824	
1222	0	33988	32092	33868	
1223	0	33636	30968	33928	
1224	0	32886	29711	33975	
1225	0	32032	32876	34049	
1226	0	31720	36012	34142	
1227	0	31864	35109	34216	
1228	0	31798	34439	34300	
1229	0	31200	33440	34388	
1230	0	30606	30396	34490	
1231	0	30760	28670	34597	
1232	0	31296	30828	34681	
1233	0	32464	34605	34760	
1234	0	33592	34846	34854	
1235	0	34372	36812	34934	
1236	0	35076	36032	34986	
1237	0	35248	33889	35036	
1238	0	34664	34176	35084	
1239	0	34376	33532	35108	
1240	0	34468	32950	35134	
1241	0	34584	32192	35168	
1242	0	35016	32220	35179	
1243	0	34080	32194	35207	
1244	0	33624	32560	35214	
1245	0	33080	32521	35245	
1246	0	32156	32417	35246	
1247	0	31128	32576	35240	
1248	0	30308	32424	35206	
1249	0	29880	32557	35192	
1250	0	29752	32457	35176	
1251	0	30040	32430	35166	
1252	0	30429	32455	35128	
1253	0	30798	32488	35106	
1254	0	30784	32521	35098	
1255	0	31002	32825	35065	
1256	0	31389	33100	35044	
1257	0	32708	33152	35004	
1258	0	34224	32996	34992	
1259	0	35104	32968	34974	
1260	0	35264	33072	34918	
1261	0	35024	33535	34888	
1262	0	34484	33818	34804	
1263	0	33328	33287	34712	
1264	0	32780	32912	34609	
1265	0	32881	32684	34504	
1266	0	32844	32423	34370	
1267	0	32540	32393	34224	
1268	0	32304	32110	34064	
1269	0	32512	32260	33916	
1270	0	33104	32304	33746	
1271	0	33648	32300	33564	
1272	0	33972	32324	33389	
1273	0	34772	32580	33220	
1274	0	34604	32559	33061	
1275	0	33244	32796	32937	
1276	0	32388	32820	32814	
1277	0	31696	33064	32717	
1278	0	31118	33294	32668	
1279	0	31348	33213	32632	
1280	0	32056	33224	32597	
1281	0	32224	33164	32580	
1282	0	32654	33196	32602	
1283	0	33016	33273	32616	
1284	0	33020	33078	32641	
1285	0	33200	33052	32673	
1286	0	33616	32893	32720	
1287	0	33881	32680	32784	
1288	0	33836	32869	32852	
1289	0	33240	32649	32912	
1290	0	32628	32662	32977	
1291	0	32240	32620	33088	
1292	0	32568	32708	33196	
1293	0	32325	32588	33324	
1294	0	32636	32741	33465	
1295	0	32769	32972	33615	
1296	0	32500	33468	33796	
1297	0	32816	33268	34004	
1298	0	33360	33295	34224	
1299	0	33424	32656	34439	
1300	0	33788	31581	34663	
1301	0	33845	30884	34919	
1302	0	33327	33350	35172	
1303	0	33228	34614	35401	
1304	0	32792	33813	35620	
1305	0	31712	33678	35804	
1306	0	30936	33588	35956	
1307	0	29985	32814	36089	
1308	0	30176	32140	36202	
1309	0	30712	32628	36252	
1310	0	31404	33244	36232	
1311	0	32197	33596	36190	
1312	0	32800	33260	36062	
1313	0	32904	33204	35900	
1314	0	32992	32772	35684	
1315	0	33116	32548	35432	
1316	0	33492	32557	35148	
1317	0	33800	32767	34860	
1318	0	33964	32792	34550	
1319	0	33848	32932	34261	
1320	0	33580	32718	33993	
1321	0	32468	32806	33736	
1322	0	32256	32674	33533	
1323	0	31764	32751	33358	
1324	0	31273	32580	33216	
1325	0	30980	32612	33098	
1326	0	30993	32580	33068	
1327	0	30812	32724	33040	
1328	0	31036	32748	32997	
1329	0	32400	32732	32981	
1330	0	32448	32569	32996	
1331	0	33056	32661	33020	
1332	0	34648	32558	33038	
1333	0	36232	32592	33017	
1334	0	37000	32692	33000	
1335	0	36712	32807	32952	
1336	0	36672	32870	32892	
1337	0	36296	33032	32850	
1338	0	35580	32966	32728	
1339	0	34756	33033	32621	
1340	0	34029	33012	32519	
1341	0	33177	33060	32453	
1342	0	31396	33084	32436	
1343	0	31228	32801	32437	
1344	0	31080	32524	32512	
1345	0	30884	32506	32596	
1346	0	29144	32660	32784	
1347	0	28876	32741	33028	
1348	0	29592	32917	33304	
1349	0	31081	32982	33632	
1350	0	32160	32834	33960	
1351	0	33116	32665	34332	
1352	0	33456	32744	34716	
1353	0	33310	32976	35080	
1354	0	33061	32998	35416	
1355	0	33237	33004	35676	
1356	0	33780	33049	35844	
1357	0	34073	33112	35908	
1358	0	34808	32972	35867	
1359	0	35140	33224	35744	
1360	0	33249	32804	35532	
1361	0	31857	32978	35294	
1362	0	32632	33440	35017	
1363	0	33125	33720	34780	
1364	0	33676	33460	34600	
1365	0	33376	33030	34453	
1366	0	32992	32844	34388	
1367	0	33288	32949	34353	
1368	0	33624	32566	34320	
1369	0	32784	31458	34272	
1370	0	31156	31464	34224	
1371	0	30380	32397	34160	
1372	0	29816	32068	34068	
1373	0	28861	32668	33965	
1374	0	28490	34009	33864	
1375	0	29897	34310	33748	
1376	0	32100	32784	33583	
1377	0	33712	31442	33418	
1378	0	34168	32308	33232	
1379	0	34632	33696	33064	
1380	0	34872	32780	32894	
1381	0	35640	32420	32740	
1382	0	36628	32604	32606	
1383	0	36624	32676	32524	
1384	0	34916	32668	32469	
1385	0	33548	32764	32542	
1386	0	32424	32660	32304	
1387	0	31688	32652	32164	
1388	0	30684	32716	32214	
1389	0	29800	32708	32276	
1390	0	29392	32668	32285	
1391	0	29034	32484	32360	
1392	0	28676	32628	32477	
1393	0	29740	32801	32644	
1394	0	32188	32776	32817	
1395	0	33177	32940	32930	
1396	0	33560	33016	32934	
1397	0	32692	33132	32842	
1398	0	32816	33184	32721	
1399	0	35324	32998	32489	
1400	0	37132	32914	32184	
1401	0	37068	32858	31744	
1402	0	36960	32815	31208	
1403	0	37400	32797	30608	
1404	0	37300	32792	29500	
1405	0	34988	32544	28864	
1406	0	32476	32524	28596	
1407	0	32228	32612	28052	
1408	0	32572	32540	27428	
1409	0	31248	32269	27100	
1410	0	30800	32226	27038	
1411	0	31028	32580	27190	
1412	0	31176	32972	27477	
1413	0	31226	33072	27824	
1414	0	31144	33168	28220	
1415	0	31320	33112	28588	
1416	0	30248	32842	28988	
1417	0	27228	32624	29333	
1418	0	28068	32639	29644	
1419	0	28188	33010	29965	
1420	0	27946	33065	30272	
1421	0	29492	33016	30582	
1422	0	33438	32812	30906	
1423	0	35628	32348	31208	
1424	0	36116	32380	31480	
1425	0	37608	32744	31682	
1426	0	39916	32628	31896	
1427	0	40064	32661	32134	
1428	0	35140	32560	32392	
1429	0	32108	32608	32685	
1430	0	28788	32828	32968	
1431	0	30932	32625	33292	
1432	0	34364	32504	33602	
1433	0	36396	32656	33912	
1434	0	38244	32903	34247	
1435	0	38901	33116	34534	
1436	0	38684	32466	34801	
1437	0	36772	32804	35060	
1438	0	34157	32804	35292	
1439	0	31358	30888	35520	
1440	0	25700	30060	35721	
1441	0	21198	32612	35920	
1442	0	19901	34440	36092	
1443	0	21649	33336	36236	
1444	0	23596	33211	36378	
1445	0	29537	33104	36485	
1446	0	34372	32932	36588	
1447	0	39104	32901	36644	
1448	0	41408	33505	36664	
1449	0	41488	33501	36624	
1450	0	41756	33473	36516	
1451	0	42657	32860	36336	
1452	0	39824	32785	36072	
1453	0	35892	32836	35708	
1454	0	31200	32654	35284	
1455	0	28096	32454	34873	
1456	0	30612	32618	34458	
1457	0	30920	32960	34084	
1458	0	30324	32945	33840	
1459	0	29416	32444	33636	
1460	0	29776	31684	33574	
1461	0	31076	31214	33661	
1462	0	32600	31870	33764	
1463	0	33856	32364	33896	
1464	0	33064	31698	34028	
1465	0	32376	31078	34223	
1466	0	32404	33272	34407	
1467	0	31984	35950	34567	
1468	0	30936	36440	34656	
1469	0	29752	35228	34702	
1470	0	27546	33728	34636	
1471	0	25636	33016	34487	
1472	0	26994	32240	34242	
1473	0	27926	32532	33956	
1474	0	33161	32813	33612	
1475	0	37852	32868	33284	
1476	0	41484	32572	32932	
1477	0	41192	32631	32631	
1478	0	37692	32849	32414	
1479	0	32025	32492	32272	
1480	0	23076	32592	32149	
1481	0	20983	33184	32080	
1482	0	24854	33268	32136	
1483	0	34920	32824	32208	
1484	0	42049	32140	32324	
1485	0	46688	31992	32433	
1486	0	48688	32208	32508	
1487	0	46582	32380	32540	
1488	0	41724	32156	32568	
1489	0	35360	32224	32604	
1490	0	31268	32589	32660	
1491	0	28444	32448	32772	
1492	0	27576	33312	32916	
1493	0	27132	33925	33025	
1494	0	27208	34116	33086	
1495	0	27728	34066	33097	
1496	0	28648	33980	33048	
1497	0	29584	33044	32950	
1498	0	30289	32460	32829	
1499	0	31272	32541	32687	
1500	0	31952	32293	32556	
1501	0	32089	32057	32428	
1502	0	32096	31804	32324	
1503	0	32420	31943	32280	
1504	0	33170	31418	32289	
1505	0	33488	31983	32360	
1506	0	32901	32344	32469	
1507	0	32277	32684	32536	
1508	0	30979	33205	32608	
1509	0	29984	33548	32649	
1510	0	28988	33672	32632	
1511	0	25326	33480	32649	
1512	0	27445	33220	32676	
1513	0	30416	32996	32650	
1514	0	33776	33102	32593	
1515	0	37584	32712	32520	
1516	0	40868	33812	32488	
1517	0	42192	34044	32444	
1518	0	39773	32888	32374	
1519	0	38413	31268	32310	
1520	0	38016	31148	32249	
1521	0	37312	33092	32208	
1522	0	34472	33988	32200	
1523	0	30596	33752	32184	
1524	0	29555	33944	32180	
1525	0	30456	33536	32196	
1526	0	31197	32392	32200	
1527	0	30648	32092	32194	
1528	0	30288	32924	32253	
1529	0	28924	32932	32272	
1530	0	27016	33328	32274	
1531	0	27996	33048	32256	
1532	0	28008	32760	32271	
1533	0	29121	32381	32228	
1534	0	31456	32049	32166	
1535	0	33852	32640	32132	
1536	0	35624	32548	32096	
1537	0	36700	32285	32052	
1538	0	36448	32576	32000	
1539	0	34445	33125	31970	
1540	0	30660	33301	31948	
1541	0	28124	33144	31952	
1542	0	30048	33312	31972	
1543	0	35041	33080	31944	
1544	0	36824	33000	31880	
1545	0	37900	33176	31778	
1546	0	40160	32828	31676	
1547	0	39686	32753	31565	
1548	0	38572	32836	31450	
1549	0	36448	33508	31386	
1550	0	31592	33656	31324	
1551	0	30264	33196	31352	
1552	0	29096	32397	31410	
1553	0	29264	32076	31468	
1554	0	30004	32834	31520	
1555	0	30312	33055	31596	
1556	0	30825	33423	31685	
1557	0	31224	32838	31772	
1558	0	31624	32320	31824	
1559	0	32144	32006	31872	
1560	0	32456	31903	31926	
1561	0	32260	32229	31978	
1562	0	32334	32543	31977	
1563	0	32616	33368	31960	
1564	0	32833	34012	31908	
1565	0	32840	32996	31832	
1566	0	32440	33592	31644	
1567	0	31573	34821	31456	
1568	0	32148	34138	31268	
1569	0	32728	32020	31132	
1570	0	32288	30953	31055	
1571	0	32853	31234	31055	
1572	0	33364	32556	31102	
1573	0	33548	32856	31165	
1574	0	33892	32471	31258	
1575	0	33066	33284	31351	
1576	0	32892	33709	31453	
1577	0	32880	33780	31564	
1578	0	33196	34149	31677	
1579	0	33124	33220	31781	
1580	0	33088	31828	31852	
1581	0	33034	30962	31902	
1582	0	32962	32553	31860	
1583	0	33093	33120	31876	
1584	0	32868	33128	31912	
1585	0	32784	33042	31897	
1586	0	32520	32276	31920	
1587	0	32120	32534	31960	
1588	0	31612	33108	31984	
1589	0	31613	33492	32024	
1590	0	32308	33045	32028	
1591	0	33072	32831	32024	
1592	0	32957	32706	32038	
1593	0	32876	32568	32016	
1594	0	32612	32525	32003	
1595	0	32820	32512	31982	
1596	0	33044	32684	31996	
1597	0	33373	32842	31973	
1598	0	33876	33140	31970	
1599	0	34308	33031	31960	
1600	0	33692	33290	31960	
1601	0	33224	32736	31969	
1602	0	32696	33164	31964	
1603	0	32582	33054	31944	
1604	0	31408	32792	31944	
1605	0	28992	32810	31908	
1606	0	22447	32932	31912	
1607	0	24460	33016	31926	
1608	0	30288	32968	31904	
1609	0	36116	32772	31930	
1610	0	38989	32712	31944	
1611	0	40345	32684	31920	
1612	0	39508	33124	31912	
1613	0	39768	32910	31928	
1614	0	38885	32996	31932	
1615	0	36400	32797	31903	
1616	0	33480	33136	31838	
1617	0	33392	33260	31765	
1618	0	30648	33260	31764	
1619	0	30068	33344	31764	
1620	0	30324	32810	31760	
1621	0	31000	32500	31760	
1622	0	32136	32727	31752	
1623	0	30959	33329	31760	
1624	0	30552	33508	31751	
1625	0	32768	33312	31768	
1626	0	33940	32341	31756	
1627	0	32804	31814	31752	
1628	0	32896	32534	31740	
1629	0	32280	32852	31722	
1630	0	31881	33285	31688	
1631	0	31484	32759	31681	
1632	0	31004	32544	31682	
1633	0	31376	32804	31672	
1634	0	32112	32972	31668	
1635	0	32628	33173	31656	
1636	0	32952	32685	31613	
1637	0	33057	33047	31553	
1638	0	32724	33412	31520	
1639	0	32444	33092	31497	
1640	0	33128	32712	31478	
1641	0	33308	32464	31480	
1642	0	33288	32869	31481	
1643	0	32948	32775	31508	
1644	0	33274	32552	31540	
1645	0	32933	32456	31581	
1646	0	32448	32964	31620	
1647	0	32084	32841	31628	
1648	0	31976	32949	31668	
1649	0	32417	33316	31673	
1650	0	32912	33064	31677	
1651	0	32792	32636	31688	
1652	0	32081	32724	31694	
1653	0	31748	32828	31692	
1654	0	32344	32640	31712	
1655	0	33616	32513	31704	
1656	0	33704	33146	31700	
1657	0	33712	32637	31709	
1658	0	34217	32706	31716	
1659	0	33901	32981	31704	
1660	0	33316	32936	31709	
1661	0	33244	33008	31696	
1662	0	32576	32777	31724	
1663	0	32024	32602	31725	
1664	0	31704	32975	31732	
1665	0	31400	32852	31736	
1666	0	31512	32732	31708	
1667	0	31336	32516	31684	
1668	0	32898	32549	31644	
1669	0	31380	32644	31549	
1670	0	30620	33064	31480	
1671	0	32256	32980	31420	
1672	0	33637	32442	31390	
1673	0	35828	32259	31376	
1674	0	36616	32621	31380	
1675	0	35144	32719	31400	
1676	0	34440	32745	31436	
1677	0	33600	32816	31444	
1678	0	32888	32876	31484	
1679	0	33888	33592	31481	
1680	0	34632	32773	31500	
1681	0	33816	32806	31522	
1682	0	32660	33259	31544	
1683	0	31168	33256	31557	
1684	0	30964	32710	31556	
1685	0	31660	33638	31517	
1686	0	32332	33100	31512	
1687	0	32216	31857	31516	
1688	0	32060	30484	31536	
1689	0	31948	31514	31548	
1690	0	31744	33332	31540	
1691	0	31273	32964	31528	
1692	0	31372	32804	31539	
1693	0	30997	33482	31556	
1694	0	30757	33308	31584	
1695	0	32228	33239	31593	
1696	0	33392	33129	31604	
1697	0	33972	32940	31624	
1698	0	33904	32605	31632	
1699	0	34314	32740	31653	
1700	0	34604	32756	31646	
1701	0	34118	32756	31637	
1702	0	34041	32816	31620	
1703	0	33732	33068	31626	
1704	0	33949	32764	31638	
1705	0	34256	32498	31623	
1706	0	33808	32960	31636	
1707	0	32512	32996	31656	
1708	0	30992	32865	31674	
1709	0	30264	32864	31681	
1710	0	30228	32668	31700	
1711	0	31036	32413	31720	
1712	0	31733	32685	31724	
1713	0	32512	32986	31724	
1714	0	33556	32861	31716	
1715	0	33832	32717	31684	
1716	0	33216	32712	31674	
1717	0	32597	32962	31652	
1718	0	32172	33524	31616	
1719	0	32944	32520	31584	
1720	0	33693	32553	31540	
1721	0	33960	32820	31504	
1722	0	33808	33145	31452	
1723	0	33900	32804	31423	
1724	0	33713	32608	31410	
1725	0	33264	32456	31381	
1726	0	32412	32671	31348	
1727	0	32057	33148	31332	
1728	0	31726	33458	31325	
1729	0	31512	32797	31305	
1730	0	31544	32268	31312	
1731	0	32146	32676	31296	
1732	0	32660	33213	31324	
1733	0	32510	33144	31304	
1734	0	32232	31916	31310	
1735	0	32460	31812	31334	
1736	0	32448	32653	31338	
1737	0	32284	33145	31349	
1738	0	31280	33314	31345	
1739	0	31280	32488	31332	
1740	0	31406	31288	31336	
1741	0	33182	32548	31364	
1742	0	34249	35126	31354	
1743	0	35246	34676	31369	
1744	0	36236	33596	31344	
1745	0	37149	33364	31381	
1746	0	37204	33332	31405	
1747	0	35092	32896	31416	
1748	0	32908	32540	31428	
1749	0	31564	32560	31452	
1750	0	30780	32765	31457	
1751	0	30298	32455	31448	
1752	0	30916	32704	31430	
1753	0	31544	32678	31433	
1754	0	31652	32924	31440	
1755	0	31820	33312	31408	
1756	0	32708	33862	31397	
1757	0	33028	33145	31383	
1758	0	32972	32318	31372	
1759	0	33008	32212	31360	
1760	0	32836	32689	31376	
1761	0	32928	32398	31412	
1762	0	32840	32229	31444	
1763	0	32208	32570	31466	
1764	0	31500	32549	31473	
1765	0	30784	32476	31508	
1766	0	30448	32762	31512	
1767	0	31622	32821	31520	
1768	0	32972	32799	31472	
1769	0	33228	32784	31432	
1770	0	34436	32809	31388	
1771	0	35086	32780	31358	
1772	0	35236	32940	31328	
1773	0	34740	32612	31322	
1774	0	34436	32481	31316	
1775	0	34392	33005	31324	
1776	0	33188	33305	31325	
1777	0	31840	32988	31332	
1778	0	32036	33305	31348	
1779	0	32436	33477	31377	
1780	0	32686	33084	31384	
1781	0	32584	32752	31415	
1782	0	32408	32802	31440	
1783	0	32244	32672	31433	
1784	0	32067	32874	31454	
1785	0	31766	32996	31468	
1786	0	31968	32587	31476	
1787	0	32290	32704	31496	
1788	0	32252	32792	31500	
1789	0	32416	33092	31484	
1790	0	32384	33110	31476	
1791	0	32012	32710	31470	
1792	0	31152	32760	31444	
1793	0	31052	32800	31432	
1794	0	30138	32741	31401	
1795	0	30964	33012	31380	
1796	0	32732	32880	31368	
1797	0	34946	32726	31354	
1798	0	36752	32968	31332	
1799	0	36608	32894	31333	
1800	0	35760	33020	31320	
1801	0	35120	32668	31328	
1802	0	34308	32633	31341	
1803	0	33152	33200	31341	
1804	0	31686	33005	31336	
1805	0	31876	32800	31365	
1806	0	32298	32031	31372	
1807	0	32289	32636	31372	
1808	0	32192	33145	31384	
1809	0	31832	33121	31376	
1810	0	31649	32664	31376	
1811	0	31222	32605	31378	
1812	0	32158	32542	31376	
1813	0	32272	33018	31364	
1814	0	32324	33452	31366	
1815	0	33000	32519	31352	
1816	0	32686	32961	31352	
1817	0	32840	32949	31352	
1818	0	33016	32536	31351	
1819	0	32921	32620	31352	
1820	0	33652	32889	31344	
1821	0	34632	32868	31364	
1822	0	34436	32580	31380	
1823	0	33460	33512	31399	
1824	0	33040	34191	31389	
1825	0	32936	32712	31413	
1826	0	31680	31072	31424	
1827	0	30020	30874	31436	
1828	0	27844	32724	31436	
1829	0	28904	33224	31444	
1830	0	31336	33331	31420	
1831	0	34016	33240	31381	
1832	0	35516	33428	31333	
1833	0	36356	33584	31300	
1834	0	36740	33303	31244	
1835	0	35404	32596	31217	
1836	0	34116	32556	31184	
1837	0	33065	32677	31149	
1838	0	31912	32804	31162	
1839	0	31676	32716	31169	
1840	0	31854	32978	31178	
1841	0	32900	33180	31196	
1842	0	32968	32671	31202	
1843	0	33436	32800	31230	
1844	0	32976	32721	31257	
1845	0	32108	32990	31253	
1846	0	31524	32840	31316	
1847	0	31736	32830	31176	
1848	0	32394	32872	31320	
1849	0	32548	32676	31396	
1850	0	32321	32633	31359	
1851	0	32558	32612	31298	
1852	0	32576	31776	31280	
1853	0	32392	32212	31284	
1854	0	30816	33049	31304	
1855	0	31522	33573	31320	
1856	0	32752	33724	31322	
1857	0	33656	32966	31348	
1858	0	34157	33071	31348	
1859	0	34097	33286	31342	
1860	0	33381	32847	31349	
1861	0	33569	32664	31336	
1862	0	31624	32720	31326	
1863	0	31620	32772	31332	
1864	0	32792	32828	31336	
1865	0	33156	32737	31316	
1866	0	34040	32840	31317	
1867	0	34928	32696	31308	
1868	0	34636	32992	31333	
1869	0	33698	32740	31345	
1870	0	31956	32292	31356	
1871	0	32360	32700	31368	
1872	0	32661	32964	31332	
1873	0	31928	33044	31364	
1874	0	31740	32848	31388	
1875	0	31944	32730	31392	
1876	0	32216	32877	31392	
1877	0	32420	32880	31390	
1878	0	32908	33104	31383	
1879	0	32904	32932	31383	
1880	0	32376	32808	31384	
1881	0	31636	32652	31364	
1882	0	32536	32655	31381	
1883	0	33076	32760	31382	
1884	0	33570	32792	31394	
1885	0	33948	32828	31399	
1886	0	34196	32774	31393	
1887	0	33464	32701	31376	
1888	0	32432	32682	31362	
1889	0	32100	33100	31341	
1890	0	31744	32988	31334	
1891	0	31456	32743	31332	
1892	0	31668	32720	31332	
1893	0	31792	32784	31332	
1894	0	31486	32824	31348	
1895	0	30748	32724	31381	
1896	0	30637	32965	31361	
1897	0	32360	33144	31344	
1898	0	35688	32879	31352	
1899	0	36980	32822	31332	
1900	0	37044	32733	31325	
1901	0	36328	33124	31308	
1902	0	34788	33220	31300	
1903	0	33784	32941	31300	
1904	0	32373	32800	31309	
1905	0	31160	32536	31326	
1906	0	30768	32656	31340	
1907	0	31640	32812	31362	
1908	0	32344	32780	31384	
1909	0	32048	33004	31372	
1910	0	31308	33740	31360	
1911	0	31642	32175	31354	
1912	0	31668	32356	31302	
1913	0	32341	33180	31272	
1914	0	32700	33316	31239	
1915	0	32445	32800	31222	
1916	0	33024	32086	31181	
1917	0	33136	32552	31167	
1918	0	32972	32927	31156	
1919	0	32813	32492	31156	
1920	0	32800	32826	31160	
1921	0	33529	32844	31194	
1922	0	34064	33692	31196	
1923	0	33824	34149	31196	
1924	0	33180	32898	31184	
1925	0	33065	31020	31200	
1926	0	32716	31024	31199	
1927	0	31768	32572	31205	
1928	0	31098	33168	31220	
1929	0	30708	32871	31205	
1930	0	31140	33024	31184	
1931	0	32748	33125	31168	
1932	0	33104	33328	31110	
1933	0	34372	33428	31050	
1934	0	34568	33016	31030	
1935	0	33736	32536	31014	
1936	0	33500	32712	30994	
1937	0	33304	32976	30988	
1938	0	32952	32905	31012	
1939	0	32832	32868	31020	
1940	0	32125	32968	31064	
1941	0	32120	32997	31104	
1942	0	31820	32277	31132	
1943	0	33072	32826	31137	
1944	0	33636	33356	31160	
1945	0	33089	33154	31152	
1946	0	32852	32669	31168	
1947	0	32992	32524	31160	
1948	0	32800	32600	31176	
1949	0	32368	32532	31204	
1950	0	31960	33140	31208	
1951	0	31820	32959	31232	
1952	0	31940	32956	31244	
1953	0	31788	32982	31280	
1954	0	32540	33124	31281	
1955	0	33272	32744	31305	
1956	0	33764	32696	31324	
1957	0	34423	32348	31317	
1958	0	34389	32784	31330	
1959	0	33334	32924	31341	
1960	0	32688	33017	31340	
1961	0	32632	32839	31330	
1962	0	30932	32765	31324	
1963	0	30000	32716	31327	
1964	0	30960	32820	31341	
1965	0	32824	32766	31364	
1966	0	34217	32568	31340	
1967	0	34776	32244	31340	
1968	0	34558	32133	31333	
1969	0	34572	32636	31334	
1970	0	34268	33372	31320	
1971	0	33536	33322	31318	
1972	0	32544	33601	31308	
1973	0	32768	33380	31304	
1974	0	32244	33064	31292	
1975	0	31909	33004	31319	
1976	0	31860	33070	31306	
1977	0	31928	32780	31318	
1978	0	31805	31924	31332	
1979	0	31828	32196	31337	
1980	0	32828	32868	31340	
1981	0	33528	33293	31335	
1982	0	33316	33148	31350	
1983	0	33464	32770	31353	
1984	0	33020	32890	31376	
1985	0	32692	32802	31396	
1986	0	31432	32740	31412	
1987	0	31629	32745	31436	
1988	0	32058	33168	31425	
1989	0	31500	34452	31420	
1990	0	31838	33504	31407	
1991	0	32436	31784	31392	
1992	0	33290	30919	31388	
1993	0	33832	32130	31376	
1994	0	34148	33088	31368	
1995	0	34788	32808	31365	
1996	0	34252	32820	31332	
1997	0	33457	32850	31300	
1998	0	33288	32876	31271	
1999	0	32700	32641	31252	
2000	0	32189	32672	31245	
2001	0	32684	33612	31244	
2002	0	32956	33573	31224	
2003	0	32934	33312	31247	
2004	0	32844	33148	31284	
2005	0	32900	32576	31316	
2006	0	32460	32552	31350	
2007	0	32128	32865	31351	
2008	0	32183	33440	31364	
2009	0	32084	33073	31368	
2010	0	31968	32528	31352	
2011	0	32024	32598	31343	
2012	0	32128	32656	31337	
2013	0	31894	32788	31360	
2014	0	30900	32821	31340	
2015	0	31246	32780	31329	
2016	0	32636	32772	31309	
2017	0	33969	32808	31292	
2018	0	35164	33240	31300	
2019	0	34648	33312	31292	
2020	0	34193	33005	31268	
2021	0	34308	32734	31272	
2022	0	33816	32656	31276	
2023	0	33388	32456	31268	
2024	0	32832	32501	31273	
2025	0	32553	32742	31260	
2026	0	32392	32712	31245	
2027	0	31882	32812	31241	
2028	0	31708	32909	31246	
2029	0	31888	32865	31258	
2030	0	32352	32712	31254	
2031	0	32192	32816	31257	
2032	0	31344	32960	31264	
2033	0	31080	32797	31269	
2034	0	30764	32737	31244	
2035	0	30640	32804	31236	
2036	0	29984	32837	31225	
2037	0	31944	32970	31220	
2038	0	35264	32958	31184	
2039	0	38380	32972	31156	
2040	0	38560	32397	31120	
2041	0	37324	32894	31108	
2042	0	36304	33316	31088	
2043	0	34488	33182	31080	
2044	0	32514	33012	31068	
2045	0	31393	32684	31086	
2046	0	31285	32543	31128	
2047	0	30718	32364	31153	
2048	0	30948	31956	31200	
2049	0	30888	32194	31201	
2050	0	31060	32544	31206	
2051	0	31444	33124	31216	
2052	0	31664	33200	31204	
2053	0	31936	33192	31222	
2054	0	32288	33052	31220	
2055	0	32280	33048	31237	
2056	0	32357	33014	31228	
2057	0	32740	32740	31239	
2058	0	32808	32929	31252	
2059	0	33368	32900	31261	
2060	0	33552	32848	31271	
2061	0	34212	32877	31252	
2062	0	34490	33136	31268	
2063	0	33876	32476	31285	
2064	0	33124	32876	31264	
2065	0	32844	32810	31276	
2066	0	32676	32824	31296	
2067	0	32440	32723	31294	
2068	0	32316	32822	31310	
2069	0	31792	32712	31296	
2070	0	31936	32831	31308	
2071	0	32048	32876	31309	
2072	0	32368	32724	31296	
2073	0	32604	32760	31299	
2074	0	32728	32775	31310	
2075	0	32784	32676	31312	
2076	0	32673	32956	31330	
2077	0	32540	32944	31329	
2078	0	32792	33181	31308	
2079	0	33116	32860	31314	
2080	0	33188	32644	31311	
2081	0	33148	32836	31308	
2082	0	32892	32836	31325	
2083	0	32807	32878	31343	
2084	0	32340	32894	31319	
2085	0	32094	33013	31301	
2086	0	32113	32902	31285	
2087	0	33072	32686	31247	
2088	0	33402	32928	31200	
2089	0	33788	32836	31172	
2090	0	33932	32528	31154	
2091	0	34257	32700	31124	
2092	0	33596	32647	31140	
2093	0	32449	32761	31129	
2094	0	32605	32848	31119	
2095	0	32896	32844	31137	
2096	0	32653	33044	31172	
2097	0	32492	32725	31177	
2098	0	32664	33012	31201	
2099	0	32749	33056	31208	
2100	0	32752	32623	31201	
2101	0	32548	32340	31204	
2102	0	32600	32309	31198	
2103	0	32576	32692	31192	
2104	0	32516	33172	31196	
2105	0	32500	33493	31201	
2106	0	32612	33482	31220	
2107	0	32688	33253	31215	
2108	0	32984	33080	31237	
2109	0	33081	32177	31242	
2110	0	31840	32052	31249	
2111	0	29460	32212	31270	
2112	0	29536	32082	31277	
2113	0	31232	34248	31296	
2114	0	33144	34866	31300	
2115	0	34308	32692	31288	
2116	0	35392	31432	31288	
2117	0	35922	32037	31292	
2118	0	35484	32708	31292	
2119	0	35220	31569	31380	
2120	0	34368	32071	31180	
2121	0	32720	32714	31328	
2122	0	32108	33516	31348	
2123	0	32324	33504	31276	
2124	0	32900	33213	31245	
2125	0	33066	33084	31252	
2126	0	32228	32872	31277	
2127	0	31888	32881	31268	
2128	0	31872	32963	31264	
2129	0	32033	32704	31289	
2130	0	31684	32696	31276	
2131	0	31404	32741	31275	
2132	0	31556	32700	31284	
2133	0	31124	32848	31288	
2134	0	31232	32724	31276	
2135	0	32165	32681	31272	
2136	0	33556	33004	31256	
2137	0	33748	32941	31256	
2138	0	32932	32957	31256	
2139	0	32956	32888	31220	
2140	0	33012	32890	31221	
2141	0	34140	32688	31198	
2142	0	34024	32652	31175	
2143	0	34748	32612	31160	
2144	0	34212	32807	31148	
2145	0	32988	32885	31124	
2146	0	32280	32980	31111	
2147	0	31874	33062	31092	
2148	0	32133	33104	31077	
2149	0	33452	33088	31085	
2150	0	33536	32516	31076	
2151	0	32644	32466	31097	
2152	0	32104	32660	31121	
2153	0	32757	32821	31120	
2154	0	32520	32840	31128	
2155	0	32292	33000	31138	
2156	0	32552	32980	31148	
2157	0	32585	33010	31172	
2158	0	32644	32854	31168	
2159	0	32752	33034	31184	
2160	0	32624	32801	31172	
2161	0	32856	33073	31160	
2162	0	32636	32584	31176	
2163	0	32578	32589	31204	
2164	0	32604	32780	31231	
2165	0	32636	32797	31236	
2166	0	32612	32943	31240	
2167	0	32672	33160	31244	
2168	0	33049	33086	31244	
2169	0	33048	32960	31236	
2170	0	32864	33081	31260	
2171	0	32400	32830	31256	
2172	0	32579	32776	31273	
2173	0	32896	32688	31288	
2174	0	33092	32684	31288	
2175	0	33140	32758	31282	
2176	0	33204	32557	31261	
2177	0	33312	32678	31240	
2178	0	33354	33264	31255	
2179	0	33272	33425	31252	
2180	0	33152	32867	31244	
2181	0	32948	32232	31233	
2182	0	32726	32144	31230	
2183	0	32676	32813	31247	
2184	0	31676	33014	31254	
2185	0	30772	32764	31256	
2186	0	31332	32976	31248	
2187	0	31888	32902	31236	
2188	0	32882	33132	31230	
2189	0	33612	32952	31218	
2190	0	33676	32900	31200	
2191	0	33108	32628	31176	
2192	0	33388	32688	31149	
2193	0	33756	32700	31128	
2194	0	33768	32872	31145	
2195	0	32896	32678	31142	
2196	0	32660	32882	31146	
2197	0	32644	32874	31149	
2198	0	32664	32616	31132	
2199	0	32968	33011	31140	
2200	0	33104	33317	31132	
2201	0	32986	32745	31143	
2202	0	32967	32678	31141	
2203	0	32884	32668	31156	
2204	0	32034	32708	31156	
2205	0	32526	33092	31150	
2206	0	32756	32864	31166	
2207	0	32757	32840	31193	
2208	0	31896	32640	31176	
2209	0	31724	32804	31182	
2210	0	31708	32616	31185	
2211	0	31252	32836	31178	
2212	0	31948	32885	31176	
2213	0	33240	32454	31169	
2214	0	34094	32724	31176	
2215	0	34380	32828	31148	
2216	0	33972	32936	31144	
2217	0	33740	32978	31120	
2218	0	33476	33037	31111	
2219	0	32896	32956	31137	
2220	0	32984	32956	31105	
2221	0	32616	32773	31097	
2222	0	32876	32826	31098	
2223	0	32658	33196	31101	
2224	0	33156	32476	31092	
2225	0	33388	32912	31092	
2226	0	33332	32744	31111	
2227	0	32636	32782	31119	
2228	0	31536	32616	31140	
2229	0	31360	32647	31160	
2230	0	31628	32677	31167	
2231	0	32208	32648	31164	
2232	0	32353	32552	31172	
2233	0	32289	32922	31188	
2234	0	32828	33391	31176	
2235	0	32732	33940	31183	
2236	0	32376	32956	31206	
2237	0	32560	32257	31192	
2238	0	33096	32544	31185	
2239	0	33276	32506	31159	
2240	0	33488	32508	31182	
2241	0	33273	32775	31180	
2242	0	33208	32621	31190	
2243	0	33169	32793	31225	
2244	0	32892	33076	31226	
2245	0	32940	33188	31216	
2246	0	34112	32876	31214	
2247	0	34741	32858	31218	
2248	0	33640	32886	31228	
2249	0	32619	32679	31240	
2250	0	32080	32872	31232	
2251	0	31808	33012	31217	
2252	0	31464	32788	31204	
2253	0	31670	32825	31193	
2254	0	31796	32712	31244	
2255	0	32252	32592	31252	
2256	0	32736	32712	31221	
2257	0	33001	32666	31234	
2258	0	33132	32968	31232	
2259	0	33214	33086	31224	
2260	0	33300	32870	31228	
2261	0	33108	32728	31208	
2262	0	33149	32976	31221	
2263	0	32708	32756	31228	
2264	0	30548	32860	31204	
2265	0	30312	32748	31208	
2266	0	30956	32708	31238	
2267	0	32240	32833	31246	
2268	0	32860	33020	31256	
2269	0	34170	32917	31253	
2270	0	35736	32744	31236	
2271	0	36596	32838	31214	
2272	0	35972	32732	31200	
2273	0	34140	32772	31177	
2274	0	32976	33020	31173	
2275	0	32229	32648	31136	
2276	0	32246	32494	31128	
2277	0	32108	32728	31125	
2278	0	31444	32918	31140	
2279	0	32020	34164	31156	
2280	0	32320	33832	31144	
2281	0	32598	32548	31149	
2282	0	32884	30912	31140	
2283	0	32920	31689	31156	
2284	0	32728	33052	31168	
2285	0	32784	32966	31189	
2286	0	32733	32286	31188	
2287	0	32381	32566	31182	
2288	0	32024	32408	31216	
2289	0	31808	32345	31212	
2290	0	31488	32902	31233	
2291	0	31384	33528	31232	
2292	0	31324	33316	31208	
2293	0	31736	33365	31193	
2294	0	32228	33000	31140	
2295	0	32784	32793	31092	
2296	0	33692	33000	31040	
2297	0	34712	32816	31017	
2298	0	34844	32957	30991	
2299	0	34764	33348	30993	
2300	0	34260	33142	30996	
2301	0	33736	32700	30997	
2302	0	33036	32412	31032	
2303	0	32820	32633	31056	
2304	0	32796	32935	31066	
2305	0	32544	32953	31072	
2306	0	32369	32814	31066	
2307	0	32110	33012	31083	
2308	0	32324	32884	31069	
2309	0	31640	32684	31068	
2310	0	31013	32684	31073	
2311	0	31462	32775	31077	
2312	0	32066	32734	31087	
2313	0	32400	32884	31104	
2314	0	33414	32728	31120	
2315	0	33818	32941	31124	
2316	0	33804	33424	31109	
2317	0	33261	33436	31082	
2318	0	33476	32746	31087	
2319	0	33712	31632	31100	
2320	0	33569	32380	31120	
2321	0	33574	33197	31136	
2322	0	32780	32712	31132	
2323	0	32141	32584	31161	
2324	0	32124	32581	31160	
2325	0	31932	32376	31173	
2326	0	32248	33120	31206	
2327	0	32644	33888	31212	
2328	0	32976	32946	31209	
2329	0	33284	31357	31222	
2330	0	32712	31754	31233	
2331	0	32768	33816	31232	
2332	0	33046	34204	31216	
2333	0	32980	33396	31233	
2334	0	32556	33448	31238	
2335	0	32004	32994	31236	
2336	0	32328	32840	31239	
2337	0	32560	32714	31237	
2338	0	32785	32445	31244	
2339	0	32980	32348	31292	
2340	0	33124	32610	31301	
2341	0	33028	32729	31312	
2342	0	32948	33118	31295	
2343	0	33304	33148	31285	
2344	0	33296	33007	31294	
2345	0	33380	32952	31269	
2346	0	33204	32773	31280	
2347	0	32849	32906	31276	
2348	0	32368	32794	31276	
2349	0	32232	32726	31260	
2350	0	32000	32636	31272	
2351	0	31856	32605	31276	
2352	0	32030	32801	31270	
2353	0	32365	32692	31276	
2354	0	32436	32748	31300	
2355	0	32556	32992	31320	
2356	0	32837	32886	31306	
2357	0	33341	32956	31288	
2358	0	33354	32903	31302	
2359	0	33322	33062	31288	
2360	0	33216	32869	31220	
2361	0	33261	32799	31293	
2362	0	32693	32989	31316	
2363	0	32292	32908	31276	
2364	0	31884	32910	31236	
2365	0	32465	32845	31200	
2366	0	33092	32901	31188	
2367	0	33648	32852	31188	
2368	0	33340	32820	31161	
2369	0	33504	32852	31164	
2370	0	33428	32604	31164	
2371	0	32636	32804	31152	
2372	0	32220	33208	31148	
2373	0	32096	32580	31148	
2374	0	31812	32446	31148	
2375	0	32047	32990	31174	
2376	0	31584	32990	31185	
2377	0	31412	32788	31176	
2378	0	32436	32781	31168	
2379	0	33592	33184	31191	
2380	0	34240	32924	31204	
2381	0	33600	32838	31205	
2382	0	33132	32859	31197	
2383	0	33196	32780	31212	
2384	0	33336	32802	31218	
2385	0	33404	32932	31201	
2386	0	33144	32820	31190	
2387	0	32970	32600	31172	
2388	0	33904	32565	31144	
2389	0	33368	32621	31124	
2390	0	32552	32521	31124	
2391	0	31936	33228	31112	
2392	0	31498	33692	31102	
2393	0	32392	33268	31100	
2394	0	32636	32480	31109	
2395	0	32777	31776	31113	
2396	0	33188	32236	31120	
2397	0	33377	32588	31132	
2398	0	32800	32836	31152	
2399	0	32504	32892	31129	
2400	0	32676	32724	31132	
2401	0	33256	32756	31142	
2402	0	33116	33066	31143	
2403	0	32559	32965	31143	
2404	0	32390	32978	31164	
2405	0	32804	32919	31145	
2406	0	33268	32837	31132	
2407	0	32896	32768	31137	
2408	0	33080	32668	31142	
2409	0	32468	32840	31144	
2410	0	31460	32740	31156	
2411	0	31288	32929	31140	
2412	0	31752	32876	31132	
2413	0	32548	32800	31111	
2414	0	33055	32684	31092	
2415	0	33292	32840	31044	
2416	0	33216	32715	31012	
2417	0	33344	32752	30997	
2418	0	33636	32876	30988	
2419	0	33424	32994	31020	
2420	0	33080	32933	31024	
2421	0	33188	33044	31040	
2422	0	33325	32908	31080	
2423	0	33308	32704	31109	
2424	0	32964	32700	31142	
2425	0	32692	32812	31148	
2426	0	32380	32856	31176	
2427	0	32008	32824	31204	
2428	0	31848	32922	31226	
2429	0	31756	33053	31222	
2430	0	31548	32516	31242	
2431	0	32260	32464	31232	
2432	0	32448	32709	31244	
2433	0	32688	32775	31248	
2434	0	32501	32792	31258	
2435	0	32365	32924	31268	
2436	0	32612	32801	31255	
2437	0	33168	32428	31244	
2438	0	33684	32865	31252	
2439	0	33865	33218	31240	
2440	0	33884	33132	31233	
2441	0	33889	33200	31232	
2442	0	33816	33152	31244	
2443	0	33940	32949	31240	
2444	0	33844	32650	31234	
2445	0	33266	32812	31249	
2446	0	32784	32821	31242	
2447	0	32964	32812	31241	
2448	0	32528	32656	31237	
2449	0	31582	32632	31225	
2450	0	30516	32695	31232	
2451	0	30780	32897	31244	
2452	0	29840	32506	31218	
2453	0	30777	32712	31226	
2454	0	32438	32406	31212	
2455	0	33872	32465	31206	
2456	0	34884	32816	31221	
2457	0	35520	32960	31212	
2458	0	35205	32879	31224	
2459	0	33720	33264	31204	
2460	0	32640	34533	31200	
2461	0	32153	34101	31201	
2462	0	32128	32432	31180	
2463	0	32572	30648	31175	
2464	0	33041	31637	31172	
2465	0	33396	32816	31150	
2466	0	33364	32688	31144	
2467	0	33320	32736	31143	
2468	0	33212	33104	31156	
2469	0	32969	33162	31160	
2470	0	32354	32971	31142	
2471	0	31908	32909	31140	
2472	0	31252	33431	31144	
2473	0	31244	33208	31156	
2474	0	31548	32448	31146	
2475	0	32016	32028	31150	
2476	0	32556	32656	31143	
2477	0	33582	32748	31166	
2478	0	34032	32935	31156	
2479	0	33712	33360	31156	
2480	0	33680	32565	31165	
2481	0	33016	32796	31160	
2482	0	32956	32959	31180	
2483	0	33192	32844	31162	
2484	0	33588	33140	31152	
2485	0	33204	33176	31157	
2486	0	32116	32930	31144	
2487	0	31790	33052	31148	
2488	0	31940	32996	31156	
2489	0	32540	32908	31159	
2490	0	32564	32588	31148	
2491	0	31973	32712	31153	
2492	0	32262	32820	31174	
2493	0	32824	32808	31180	
2494	0	33092	32788	31184	
2495	0	32572	32357	31160	
2496	0	32566	32664	31152	
2497	0	32956	32345	31174	
2498	0	33172	32572	31144	
2499	0	33318	33177	31133	
2500	0	33557	33549	31132	
2501	0	33536	33042	31119	
2502	0	33292	32945	31124	
2503	0	32900	33200	31136	
2504	0	32774	32793	31150	
2505	0	32605	32751	31143	
2506	0	32716	32472	31172	
2507	0	32824	32838	31172	
2508	0	32512	33212	31184	
2509	0	31728	32700	31178	
2510	0	31646	32585	31172	
2511	0	31972	32852	31168	
2512	0	31977	33052	31172	
2513	0	31324	32452	31170	
2514	0	30485	32616	31188	
2515	0	31573	32813	31190	
2516	0	33280	32744	31196	
2517	0	34236	32895	31185	
2518	0	34572	33044	31189	
2519	0	34796	33168	31164	
2520	0	35252	32996	31172	
2521	0	35120	32876	31166	
2522	0	34932	32634	31156	
2523	0	34300	32712	31143	
2524	0	33300	32714	31156	
2525	0	32538	32750	31180	
2526	0	31930	32669	31190	
2527	0	31402	32864	31182	
2528	0	31518	33046	31196	
2529	0	31832	33012	31191	
2530	0	31992	32700	31192	
2531	0	32046	32724	31202	
2532	0	32180	32822	31185	
2533	0	32260	32808	31183	
2534	0	32160	32936	31158	
2535	0	32392	32903	31132	
2536	0	32796	32873	31104	
2537	0	32820	32720	31085	
2538	0	32488	32845	31073	
2539	0	33148	32664	31056	
2540	0	33576	32730	31073	
2541	0	33540	32788	31076	
2542	0	33528	33012	31100	
2543	0	33364	33365	31100	
2544	0	33152	33212	31108	
2545	0	31624	32849	31121	
2546	0	30894	32964	31157	
2547	0	31868	32760	31172	
2548	0	33152	32791	31186	
2549	0	33524	32804	31190	
2550	0	33465	32536	31184	
2551	0	33092	32580	31188	
2552	0	32844	32630	31181	
2553	0	32593	32782	31148	
2554	0	32820	32956	31168	
2555	0	32836	32996	31164	
2556	0	32705	32584	31153	
2557	0	33044	32673	31162	
2558	0	33014	33164	31148	
2559	0	33056	33185	31159	
2560	0	32852	32998	31171	
2561	0	33068	32849	31176	
2562	0	32825	32832	31169	
2563	0	31980	32748	31177	
2564	0	31968	32796	31174	
2565	0	32396	32788	31165	
2566	0	32840	32782	31182	
2567	0	33040	32736	31188	
2568	0	33144	32841	31190	
2569	0	33070	32749	31197	
2570	0	33364	33088	31197	
2571	0	33388	32268	31169	
2572	0	32980	32373	31156	
2573	0	31872	32801	31168	
2574	0	31980	32668	31134	
2575	0	32633	32676	31148	
2576	0	33272	33340	31161	
2577	0	33132	33620	31172	
2578	0	33096	33028	31172	
2579	0	32524	32064	31180	
2580	0	32676	32542	31169	
2581	0	32912	32782	31152	
2582	0	32908	32868	31156	
2583	0	33096	32748	31158	
2584	0	33100	32903	31143	
2585	0	32258	32900	31143	
2586	0	32213	33172	31132	
2587	0	32332	32838	31130	
2588	0	33464	32812	31132	
2589	0	34140	32664	31141	
2590	0	34173	32832	31157	
2591	0	33146	32774	31172	
2592	0	32102	32916	31172	
2593	0	31609	32868	31172	
2594	0	31544	33252	31170	
2595	0	31333	34570	31196	
2596	0	31800	33761	31208	
2597	0	32768	32184	31176	
2598	0	33300	30238	31128	
2599	0	33260	31381	31140	
2600	0	33640	32500	31160	
2601	0	33640	32775	31170	
2602	0	33358	32916	31168	
2603	0	33432	33103	31158	
2604	0	33264	33056	31153	
2605	0	32896	32888	31146	
2606	0	32866	33264	31156	
2607	0	32380	32772	31144	
2608	0	32162	32876	31160	
2609	0	32250	32844	31150	
2610	0	32064	32421	31177	
2611	0	31854	32828	31165	
2612	0	32181	33040	31182	
2613	0	32168	33073	31156	
2614	0	32436	33202	31124	
2615	0	32673	33228	31142	
2616	0	32568	33086	31118	
2617	0	32560	33322	31108	
2618	0	32412	33280	31120	
2619	0	30460	33052	31116	
2620	0	30748	32728	31118	
2621	0	32288	32968	31118	
2622	0	34344	32956	31100	
2623	0	36064	32053	31087	
2624	0	36788	32556	31084	
2625	0	37000	32704	31092	
2626	0	36028	32810	31070	
2627	0	34632	32637	31084	
2628	0	33264	32830	31078	
2629	0	31776	32564	31052	
2630	0	30756	32624	31062	
2631	0	30568	32298	31080	
2632	0	30848	32249	31068	
2633	0	31137	32868	31080	
2634	0	31446	32860	31100	
2635	0	31860	32884	31096	
2636	0	32360	33276	31126	
2637	0	32804	33320	31114	
2638	0	32892	32945	31108	
2639	0	33164	32812	31096	
2640	0	33336	32686	31104	
2641	0	33580	32876	31104	
2642	0	33444	32968	31120	
2643	0	33449	32997	31109	
2644	0	33236	32676	31134	
2645	0	32680	32942	31132	
2646	0	32314	32680	31129	
2647	0	32620	32848	31129	
2648	0	32390	32912	31135	
2649	0	32136	32910	31158	
2650	0	32072	32872	31181	
2651	0	31940	32822	31168	
2652	0	31852	32850	31136	
2653	0	32048	32924	31149	
2654	0	32388	33104	31180	
2655	0	33324	33262	31176	
2656	0	33296	32892	31173	
2657	0	33140	32337	31178	
2658	0	32800	32273	31180	
2659	0	33280	32676	31172	
2660	0	33352	32545	31173	
2661	0	33320	32456	31156	
2662	0	33332	32538	31156	
2663	0	32780	32775	31129	
2664	0	31912	33016	31147	
2665	0	32272	33063	31128	
2666	0	32892	33047	31128	
2667	0	33452	32964	31117	
2668	0	33740	33234	31100	
2669	0	33228	32916	31100	
2670	0	32776	32532	31088	
2671	0	32224	32761	31080	
2672	0	32132	32710	31088	
2673	0	32834	32912	31090	
2674	0	33064	32780	31060	
2675	0	32748	33909	31078	
2676	0	32704	34420	31090	
2677	0	33057	33250	31104	
2678	0	32804	30916	31132	
2679	0	32592	30806	31136	
2680	0	32524	32380	31132	
2681	0	32600	32648	31124	
2682	0	32988	32705	31124	
2683	0	33692	32936	31145	
2684	0	33449	33081	31168	
2685	0	33184	33182	31172	
2686	0	33096	33140	31156	
2687	0	32360	33105	31152	
2688	0	32008	33293	31148	
2689	0	32060	33196	31148	
2690	0	32080	32724	31174	
2691	0	32228	32325	31168	
2692	0	31984	32396	31156	
2693	0	32222	32308	31149	
2694	0	32420	32805	31174	
2695	0	32100	32964	31176	
2696	0	32156	33120	31198	
2697	0	32808	33276	31169	
2698	0	33233	33052	31146	
2699	0	33828	33119	31140	
2700	0	34024	32932	31128	
2701	0	34736	33124	31160	
2702	0	34520	32884	31184	
2703	0	33888	32690	31178	
2704	0	33960	32718	31172	
2705	0	33256	32808	31180	
2706	0	32580	32832	31188	
2707	0	31760	32660	31180	
2708	0	30746	32964	31160	
2709	0	31204	32737	31154	
2710	0	32100	32695	31127	
2711	0	32554	32614	31141	
2712	0	32732	32702	31147	
2713	0	32784	32909	31160	
2714	0	31892	32838	31184	
2715	0	31476	32908	31184	
2716	0	31953	32804	31168	
2717	0	32700	32808	31156	
2718	0	33352	32820	31150	
2719	0	34052	32860	31141	
2720	0	34520	32858	31126	
2721	0	34544	33012	31116	
2722	0	34272	32964	31121	
2723	0	33868	32810	31104	
2724	0	33432	32831	31100	
2725	0	32789	32710	31100	
2726	0	32280	32773	31108	
2727	0	31932	32696	31125	
2728	0	31736	32692	31145	
2729	0	31684	32983	31172	
2730	0	31228	32990	31164	
2731	0	30885	33180	31164	
2732	0	31729	32764	31153	
2733	0	32056	32010	31152	
2734	0	32345	32706	31118	
2735	0	33168	32852	31103	
2736	0	32957	32620	31096	
2737	0	33892	32596	31072	
2738	0	35048	32732	31062	
2739	0	34628	33108	31053	
2740	0	34004	32470	31080	
2741	0	33664	32908	31089	
2742	0	33289	33157	31104	
2743	0	32832	33154	31112	
2744	0	32324	33066	31118	
2745	0	32228	32860	31112	
2746	0	32084	32812	31114	
2747	0	32024	32791	31125	
2748	0	31657	33076	31125	
2749	0	31408	32912	31108	
2750	0	31588	32324	31112	
2751	0	31812	32576	31110	
2752	0	32420	32666	31095	
2753	0	33384	32764	31113	
2754	0	33517	32740	31089	
2755	0	33320	32800	31098	
2756	0	33464	32788	31088	
2757	0	34089	32780	31080	
2758	0	34144	32789	31053	
2759	0	33432	33031	31040	
2760	0	32536	32887	31071	
2761	0	32376	32816	31084	
2762	0	32296	32737	31108	
2763	0	32397	32612	31113	
2764	0	32428	32454	31134	
2765	0	32488	32980	31144	
2766	0	33028	33132	31165	
2767	0	33268	32948	31169	
2768	0	32800	32892	31146	
2769	0	32445	32772	31149	
2770	0	32538	32560	31128	
2771	0	32832	32702	31120	
2772	0	33138	32711	31140	
2773	0	33004	32764	31169	
2774	0	32452	32952	31169	
2775	0	32221	32808	31146	
2776	0	32416	33000	31154	
2777	0	32629	32741	31161	
2778	0	32760	32920	31145	
2779	0	33200	32992	31148	
2780	0	33344	33066	31150	
2781	0	33088	32612	31169	
2782	0	32992	32613	31148	
2783	0	33388	32999	31144	
2784	0	33328	32984	31152	
2785	0	32774	32772	31168	
2786	0	32496	32922	31156	
2787	0	32400	32510	31175	
2788	0	32284	32720	31199	
2789	0	32160	32700	31202	
2790	0	31988	32505	31172	
2791	0	31920	32769	31178	
2792	0	31876	32785	31160	
2793	0	32384	32784	31148	
2794	0	32924	32736	31164	
2795	0	33208	32814	31148	
2796	0	33516	32727	31136	
2797	0	33373	32806	31130	
2798	0	33064	32909	31125	
2799	0	31933	33180	31140	
2800	0	32560	32934	31164	
2801	0	33513	32792	31164	
2802	0	34236	32848	31176	
2803	0	33942	32791	31153	
2804	0	33360	32879	31172	
2805	0	33104	32800	31176	
2806	0	31896	32902	31169	
2807	0	31224	32824	31164	
2808	0	31672	32864	31173	
2809	0	32304	32744	31194	
2810	0	33008	32694	31184	
2811	0	33328	32768	31185	
2812	0	33584	32689	31172	
2813	0	33505	32624	31178	
2814	0	32776	32785	31181	
2815	0	32388	32716	31192	
2816	0	32460	32780	31176	
2817	0	32348	32753	31168	
2818	0	32601	32868	31164	
2819	0	32288	33076	31133	
2820	0	32844	32973	31138	
2821	0	33512	33781	31134	
2822	0	33484	33724	31133	
2823	0	33604	34049	31126	
2824	0	34080	33153	31098	
2825	0	33840	31968	31096	
2826	0	33310	30368	31098	
2827	0	31800	30913	31106	
2828	0	31640	32614	31116	
2829	0	31813	32681	31100	
2830	0	31881	32849	31088	
2831	0	32164	33084	31077	
2832	0	32544	33100	31092	
2833	0	32506	33229	31092	
2834	0	32708	33182	31092	
2835	0	32768	33131	31104	
2836	0	32865	33014	31116	
2837	0	32968	32976	31120	
2838	0	33036	32948	31136	
2839	0	32912	32812	31144	
2840	0	33120	32889	31156	
2841	0	32924	32921	31156	
2842	0	32556	32954	31132	
2843	0	33063	32720	31114	
2844	0	33444	32535	31106	
2845	0	33365	33044	31116	
2846	0	33104	33220	31116	
2847	0	32752	32940	31120	
2848	0	32376	32987	31137	
2849	0	32380	32988	31120	
2850	0	32317	32752	31110	
2851	0	32113	32592	31118	
2852	0	32172	32519	31106	
2853	0	32568	32745	31105	
2854	0	32895	32775	31098	
2855	0	32996	32805	31092	
2856	0	33400	32992	31087	
2857	0	33432	32782	31088	
2858	0	33011	32848	31090	
2859	0	33060	32990	31108	
2860	0	32604	32610	31120	
2861	0	32332	32756	31142	
2862	0	32387	32924	31120	
2863	0	32696	32569	31132	
2864	0	32856	32800	31144	
2865	0	32656	32960	31157	
2866	0	33084	33169	31160	
2867	0	33196	33173	31152	
2868	0	33444	33126	31164	
2869	0	33042	32850	31148	
2870	0	33056	32462	31149	
2871	0	32444	32492	31124	
2872	0	31737	32226	31117	
2873	0	32000	32342	31116	
2874	0	32293	32588	31096	
2875	0	31676	32833	31108	
2876	0	32034	33108	31117	
2877	0	33044	33104	31132	
2878	0	33952	33092	31121	
2879	0	34520	33016	31110	
2880	0	34564	32850	31096	
2881	0	34220	32775	31120	
2882	0	33796	32860	31120	
2883	0	33328	32996	31127	
2884	0	32687	32868	31120	
2885	0	32024	32873	31136	
2886	0	31924	32762	31144	
2887	0	32081	32623	31156	
2888	0	32064	32756	31141	
2889	0	31992	33008	31145	
2890	0	31928	32748	31148	
2891	0	31284	32624	31156	
2892	0	31221	32664	31148	
2893	0	31772	32753	31158	
2894	0	32608	32896	31159	
2895	0	33292	32806	31146	
2896	0	33316	32996	31128	
2897	0	33036	33212	31124	
2898	0	33062	33382	31141	
2899	0	32876	32956	31138	
2900	0	32608	31880	31148	
2901	0	33301	32374	31137	
2902	0	33685	33096	31132	
2903	0	34572	33038	31110	
2904	0	35144	32872	31128	
2905	0	34804	32992	31156	
2906	0	33956	32656	31160	
2907	0	32933	32614	31144	
2908	0	32393	32888	31136	
2909	0	31740	32756	31148	
2910	0	31456	32641	31153	
2911	0	31348	32897	31161	
2912	0	31732	32949	31160	
2913	0	31996	32788	31156	
2914	0	32288	33050	31152	
2915	0	32308	32736	31140	
2916	0	32276	32756	31160	
2917	0	32528	32892	31153	
2918	0	32800	32908	31151	
2919	0	32938	32924	31150	
2920	0	33008	32770	31122	
2921	0	33200	32660	31126	
2922	0	33384	32734	31144	
2923	0	33700	32858	31141	
2924	0	34008	32921	31132	
2925	0	33832	32937	31134	
2926	0	33376	32932	31152	
2927	0	32456	32840	31169	
2928	0	32188	32925	31154	
2929	0	31784	32730	31148	
2930	0	31680	32696	31156	
2931	0	32128	32996	31154	
2932	0	32320	32516	31150	
2933	0	32472	32652	31121	
2934	0	32326	33041	31119	
2935	0	32740	33087	31108	
2936	0	32765	32749	31096	
2937	0	32648	32377	31109	
2938	0	32876	32252	31092	
2939	0	32804	32108	31084	
2940	0	32840	32740	31076	
2941	0	32976	33108	31094	
2942	0	33188	33170	31082	
2943	0	33364	32968	31052	
2944	0	33792	33257	31046	
2945	0	34040	33076	31025	
2946	0	33906	33856	31016	
2947	0	31497	33916	31029	
2948	0	31500	32949	31035	
2949	0	32036	30893	31036	
2950	0	32728	30639	31048	
2951	0	33472	32390	31070	
2952	0	33444	32861	31068	
2953	0	33152	32794	31068	
2954	0	32784	33238	31072	
2955	0	31532	33194	31092	
2956	0	31832	33158	31096	
2957	0	32549	33026	31100	
2958	0	33392	32816	31102	
2959	0	33776	32925	31106	
2960	0	33662	32676	31092	
2961	0	33592	32519	31100	
2962	0	33178	32768	31120	
2963	0	32546	33063	31122	
2964	0	31984	33472	31125	
2965	0	31350	33174	31118	
2966	0	31657	32927	31134	
2967	0	32448	32544	31132	
2968	0	32276	33000	31118	
2969	0	32704	33050	31124	
2970	0	33600	32804	31144	
2971	0	33668	32485	31153	
2972	0	33781	32601	31156	
2973	0	33228	32728	31137	
2974	0	32408	32817	31158	
2975	0	32156	32718	31144	
2976	0	32762	33088	31160	
2977	0	32881	33146	31160	
2978	0	32722	33132	31145	
2979	0	32980	32809	31134	
2980	0	33304	32668	31137	
2981	0	33156	32548	31168	
2982	0	33300	32552	31172	
2983	0	33180	32768	31157	
2984	0	33020	32748	31125	
2985	0	32760	32860	31133	
2986	0	32732	32828	31126	
2987	0	32668	32916	31116	
2988	0	32312	32828	31120	
2989	0	32328	33415	31151	
2990	0	32234	32280	31145	
2991	0	31524	32196	31156	
2992	0	31158	32817	31148	
2993	0	31648	32848	31148	
2994	0	32293	33020	31134	
2995	0	32932	33112	31150	
2996	0	33542	32924	31168	
2997	0	33856	32954	31181	
2998	0	33920	32972	31168	
2999	0	33688	32881	31168	
3000	0	33596	32928	31164	
3001	0	33216	32682	31172	
3002	0	33064	32716	31156	
3003	0	33180	32751	31124	
3004	0	33300	32894	31132	
3005	0	33165	32696	31137	
3006	0	32892	32908	31135	
3007	0	32033	32900	31132	
3008	0	31865	33040	31141	
3009	0	32036	34256	31161	
3010	0	32220	34056	31154	
3011	0	32167	32512	31153	
3012	0	32216	30776	31156	
3013	0	31244	31536	31136	
3014	0	31249	32860	31124	
3015	0	32864	32552	31116	
3016	0	34004	32208	31118	
3017	0	34533	31956	31140	
3018	0	34639	32756	31116	
3019	0	34544	33080	31109	
3020	0	34048	33054	31098	
3021	0	33310	33445	31098	
3022	0	32830	33638	31121	
3023	0	32484	33432	31116	
3024	0	32508	33216	31115	
3025	0	32744	32788	31108	
3026	0	32512	32516	31100	
3027	0	32352	33264	31122	
3028	0	32248	33472	31124	
3029	0	31920	32366	31120	
3030	0	31588	31750	31110	
3031	0	31852	32543	31118	
3032	0	32092	32921	31125	
3033	0	32196	32855	31104	
3034	0	32476	32621	31104	
3035	0	32856	32816	31141	
3036	0	33116	32892	31136	
3037	0	33108	32898	31120	
3038	0	33314	33133	31124	
3039	0	33389	32972	31100	
3040	0	33332	32924	31104	
3041	0	33214	32768	31113	
3042	0	33214	32774	31116	
3043	0	33142	32793	31125	
3044	0	33112	33017	31125	
3045	0	33040	33007	31104	
3046	0	32740	32364	31100	
3047	0	32586	32465	31090	
3048	0	32576	32789	31100	
3049	0	31784	32836	31106	
3050	0	31524	32661	31118	
3051	0	31752	32884	31116	
3052	0	32108	33040	31124	
3053	0	32808	32844	31116	
3054	0	33198	32954	31108	
3055	0	33144	32840	31108	
3056	0	33008	32892	31096	
3057	0	33284	32682	31084	
3058	0	33628	32884	31088	
3059	0	33456	33088	31079	
3060	0	33268	32956	31080	
3061	0	33192	32983	31084	
3062	0	33121	33044	31052	
3063	0	33820	32837	31060	
3064	0	33248	32856	31079	
3065	0	32464	32702	31081	
3066	0	32012	32339	31088	
3067	0	32204	32296	31064	
3068	0	32364	32631	31076	
3069	0	32712	32692	31069	
3070	0	32900	32887	31074	
3071	0	32904	32864	31069	
3072	0	33049	32957	31046	
3073	0	32692	32817	31052	
3074	0	32180	32845	31040	
3075	0	32012	32836	31052	
3076	0	32448	32524	31053	
3077	0	32248	33045	31086	
3078	0	31304	32993	31084	
3079	0	31616	32988	31069	
3080	0	32434	32586	31071	
3081	0	33356	32398	31081	
3082	0	34409	32508	31096	
3083	0	35044	32395	31096	
3084	0	34577	32777	31102	
3085	0	33972	33092	31096	
3086	0	33720	33008	31093	
3087	0	33572	32724	31100	
3088	0	33288	32834	31093	
3089	0	32268	33076	31076	
3090	0	31520	32975	31084	
3091	0	31184	32848	31077	
3092	0	31202	32796	31085	
3093	0	31790	32900	31088	
3094	0	31989	32950	31084	
3095	0	32128	32934	31096	
3096	0	32360	33069	31094	
3097	0	32572	32954	31068	
3098	0	33172	33408	31040	
3099	0	33658	33430	31049	
3100	0	33736	32588	31046	
3101	0	32736	31714	31064	
3102	0	32800	31981	31077	
3103	0	33144	32660	31072	
3104	0	33592	32775	31060	
3105	0	33500	32904	31068	
3106	0	33113	32704	31072	
3107	0	32969	32869	31080	
3108	0	32412	32837	31098	
3109	0	32360	32808	31108	
3110	0	32552	32903	31110	
3111	0	32280	34192	31096	
3112	0	32092	34312	31097	
3113	0	32208	32998	31106	
3114	0	32592	30726	31100	
3115	0	33056	30572	31088	
3116	0	33113	32601	31108	
3117	0	32942	32536	31092	
3118	0	32896	32572	31111	
3119	0	33000	33321	31108	
3120	0	33072	33220	31102	
3121	0	32916	33096	31087	
3122	0	32208	33064	31069	
3123	0	32652	32852	31072	
3124	0	33302	32808	31072	
3125	0	33645	33040	31060	
3126	0	33676	32985	31077	
3127	0	33540	32928	31089	
3128	0	33049	32925	31101	
3129	0	32432	32932	31092	
3130	0	32021	33000	31109	
3131	0	32025	32858	31110	
3132	0	32012	32654	31113	
3133	0	31872	32768	31093	
3134	0	32152	32756	31084	
3135	0	32362	32900	31096	
3136	0	32694	32800	31096	
3137	0	32948	32688	31100	
3138	0	33224	32408	31106	
3139	0	33100	32726	31084	
3140	0	33060	32640	31098	
3141	0	33200	33196	31110	
3142	0	33132	33642	31113	
3143	0	33260	33085	31110	
3144	0	33242	32932	31108	
3145	0	33044	32820	31112	
3146	0	32604	32892	31100	
3147	0	32780	32792	31094	
3148	0	32896	32813	31102	
3149	0	33276	32976	31110	
3150	0	32776	32754	31108	
3151	0	32096	32676	31119	
3152	0	31956	32722	31116	
3153	0	32176	32684	31117	
3154	0	31672	32685	31128	
3155	0	31624	32988	31114	
3156	0	32429	32680	31125	
3157	0	33292	32762	31105	
3158	0	33760	33244	31100	
3159	0	34041	33376	31107	
3160	0	34040	32527	31108	
3161	0	33821	32325	31116	
3162	0	33460	32494	31125	
3163	0	33326	32572	31119	
3164	0	32528	32809	31133	
3165	0	31760	33084	31144	
3166	0	32206	32977	31133	
3167	0	32495	32932	31132	
3168	0	32414	33012	31136	
3169	0	32116	32841	31153	
3170	0	31684	32605	31124	
3171	0	31876	32649	31110	
3172	0	32096	32644	31093	
3173	0	32653	32706	31074	
3174	0	33856	32780	31072	
3175	0	33768	32908	31084	
3176	0	33548	32980	31081	
3177	0	32828	33068	31068	
3178	0	33184	33604	31076	
3179	0	33464	33141	31078	
3180	0	34120	32484	31084	
3181	0	34092	31972	31081	
3182	0	33600	32548	31092	
3183	0	33556	32998	31089	
3184	0	32954	33024	31096	
3185	0	32496	32661	31108	
3186	0	31728	32744	31108	
3187	0	31256	32740	31112	
3188	0	31684	32900	31118	
3189	0	32022	32890	31125	
3190	0	31996	32904	31128	
3191	0	31956	32889	31154	
3192	0	32062	32875	31146	
3193	0	31903	32625	31149	
3194	0	31993	32852	31130	
3195	0	32094	32670	31148	
3196	0	32605	32816	31142	
3197	0	33036	32890	31119	
3198	0	33380	33028	31108	
3199	0	33748	32917	31116	
3200	0	33677	32508	31100	
3201	0	34073	32592	31088	
3202	0	32988	32577	31077	
3203	0	32572	32810	31056	
3204	0	33304	33132	31041	
3205	0	33813	32977	31040	
3206	0	34384	32820	31044	
3207	0	34360	32713	31055	
3208	0	33700	33100	31064	
3209	0	32504	32783	31064	
3210	0	31808	32820	31084	
3211	0	31674	32838	31084	
3212	0	31528	32808	31095	
3213	0	31292	32936	31112	
3214	0	31780	32956	31120	
3215	0	32156	34207	31125	
3216	0	32436	33844	31114	
3217	0	32665	31944	31121	
3218	0	32974	30504	31119	
3219	0	33072	31893	31117	
3220	0	33064	33188	31111	
3221	0	33025	32822	31116	
3222	0	32982	32668	31124	
3223	0	33024	33168	31124	
3224	0	33040	33544	31128	
3225	0	33444	32902	31108	
3226	0	33600	32705	31116	
3227	0	33748	32640	31111	
3228	0	33548	32903	31104	
3229	0	33184	32788	31110	
3230	0	32488	32600	31118	
3231	0	31800	32664	31084	
3232	0	31775	33022	31073	
3233	0	31962	32881	31069	
3234	0	32433	33055	31076	
3235	0	32508	33036	31064	
3236	0	32568	33060	31077	
3237	0	32684	32997	31076	
3238	0	32902	33000	31064	
3239	0	33088	33153	31068	
3240	0	33236	32893	31080	
3241	0	33188	32809	31076	
3242	0	33464	32801	31076	
3243	0	33364	33008	31072	
3244	0	33132	32950	31069	
3245	0	32604	33110	31064	
3246	0	32434	32897	31088	
3247	0	32380	32793	31092	
3248	0	32298	32869	31098	
3249	0	32164	32516	31101	
3250	0	31850	32612	31120	
3251	0	30296	32764	31152	
3252	0	30765	32686	31140	
3253	0	32264	32828	31153	
3254	0	33450	32826	31140	
3255	0	34496	32852	31120	
3256	0	35348	33287	31110	
3257	0	35268	33341	31082	
3258	0	34724	32902	31076	
3259	0	34248	32372	31068	
3260	0	33056	32256	31076	
3261	0	32152	32712	31060	
3262	0	32164	32712	31036	
3263	0	32368	32780	31025	
3264	0	32542	32734	31032	
3265	0	32588	32910	31060	
3266	0	32656	32895	31073	
3267	0	32234	32808	31101	
3268	0	31672	32864	31090	
3269	0	31446	32816	31108	
3270	0	31704	32756	31076	
3271	0	32160	32804	31072	
3272	0	31600	32737	31070	
3273	0	31360	32525	31085	
3274	0	32036	32712	31072	
3275	0	32906	32910	31066	
3276	0	33942	32943	31084	
3277	0	34632	32901	31072	
3278	0	35124	32924	31092	
3279	0	34721	32916	31104	
3280	0	34597	32741	31098	
3281	0	33976	32863	31098	
3282	0	33376	32760	31094	
3283	0	32669	32803	31092	
3284	0	31914	32484	31092	
3285	0	31806	32519	31114	
3286	0	32348	32918	31121	
3287	0	32308	32992	31132	
3288	0	32380	33048	31132	
3289	0	32308	32775	31118	
3290	0	32044	32594	31096	
3291	0	31844	32536	31104	
3292	0	32048	32808	31120	
3293	0	31976	32832	31134	
3294	0	32136	33068	31120	
3295	0	32612	32904	31092	
3296	0	32660	32528	31092	
3297	0	33166	33046	31102	
3298	0	33404	33041	31117	
3299	0	33510	32941	31134	
3300	0	33384	32852	31140	
3301	0	33308	32698	31144	
3302	0	33345	32588	31136	
3303	0	33205	33060	31137	
3304	0	33080	33182	31134	
3305	0	33004	32766	31125	
3306	0	32746	32605	31116	
3307	0	32516	32762	31120	
3308	0	32332	33944	31132	
3309	0	32032	34290	31128	
3310	0	31988	33237	31140	
3311	0	31984	31224	31140	
3312	0	32204	30484	31142	
3313	0	32404	32478	31132	
3314	0	32446	32860	31141	
3315	0	32680	32373	31120	
3316	0	33048	32465	31092	
3317	0	33528	33128	31096	
3318	0	33369	33097	31094	
3319	0	33142	33038	31120	
3320	0	33188	33150	31130	
3321	0	33200	33316	31140	
3322	0	33188	33750	31128	
3323	0	33132	33524	31121	
3324	0	33064	32816	31136	
3325	0	32720	32073	31140	
3326	0	32606	32388	31136	
3327	0	32092	32777	31109	
3328	0	31920	32724	31081	
3329	0	32214	32888	31068	
3330	0	32424	32780	31060	
3331	0	32544	32724	31032	
3332	0	32034	32652	31032	
3333	0	31680	32700	31037	
3334	0	32656	32809	31018	
3335	0	33872	32940	31016	
3336	0	34056	32856	31013	
3337	0	33912	32760	30996	
3338	0	34064	32980	31000	
3339	0	33844	32980	31023	
3340	0	33208	32837	31008	
3341	0	33046	32902	31010	
3342	0	32401	32961	31016	
3343	0	32152	32901	31023	
3344	0	32168	32870	31044	
3345	0	31725	32958	31052	
3346	0	32140	32980	31056	
3347	0	32904	32848	31045	
3348	0	33320	33002	31052	
3349	0	33297	33048	31045	
3350	0	33168	32930	31030	
3351	0	32728	32644	31056	
3352	0	32082	32652	31062	
3353	0	32292	32380	31054	
3354	0	32640	32316	31032	
3355	0	32644	32576	31028	
3356	0	32664	33214	31054	
3357	0	33277	32940	31046	
3358	0	33024	33122	31032	
3359	0	32848	33140	31044	
3360	0	32952	32908	31056	
3361	0	33128	33061	31088	
3362	0	33412	32588	31092	
3363	0	33658	32961	31072	
3364	0	33655	33076	31066	
3365	0	33374	32882	31069	
3366	0	32940	32705	31074	
3367	0	32180	32628	31065	
3368	0	31906	32596	31060	
3369	0	31794	32799	31068	
3370	0	31600	32482	31071	
3371	0	31660	31881	31065	
3372	0	31932	32382	31068	
3373	0	31984	33172	31056	
3374	0	32622	33212	31045	
3375	0	32916	34012	31048	
3376	0	32872	35053	31060	
3377	0	33094	33687	31050	
3378	0	32928	31671	31044	
3379	0	33420	31271	31086	
3380	0	33917	32453	31091	
3381	0	33225	32950	31094	
3382	0	33212	32686	31096	
3383	0	33604	32921	31095	
3384	0	33168	32948	31096	
3385	0	33024	32979	31076	
3386	0	33068	32932	31060	
3387	0	32644	32952	31054	
3388	0	32185	32933	31064	
3389	0	32072	33064	31052	
3390	0	32008	32896	31048	
3391	0	32100	32861	31046	
3392	0	32120	32686	31048	
3393	0	31978	32804	31065	
3394	0	32236	32618	31092	
3395	0	32596	32700	31096	
3396	0	32960	32708	31104	
3397	0	33500	32884	31104	
3398	0	33980	32772	31105	
3399	0	33852	33029	31128	
3400	0	33557	32866	31114	
3401	0	33282	32896	31102	
3402	0	33208	32960	31104	
3403	0	32704	33343	31125	
3404	0	32816	33376	31137	
3405	0	32553	32802	31137	
3406	0	32144	31798	31140	
3407	0	31852	32218	31146	
3408	0	32200	32678	31124	
3409	0	32086	32469	31104	
3410	0	32128	32754	31098	
3411	0	32752	32958	31094	
3412	0	33412	33265	31072	
3413	0	33524	33190	31040	
3414	0	33688	32964	31052	
3415	0	32724	32748	31048	
3416	0	32344	32897	31048	
3417	0	32536	32864	31072	
3418	0	33004	32932	31087	
3419	0	33108	32968	31096	
3420	0	33089	32798	31096	
3421	0	32892	32852	31104	
3422	0	33240	32796	31106	
3423	0	33556	32917	31100	
3424	0	34049	32812	31097	
3425	0	33816	32889	31092	
3426	0	33208	33037	31070	
3427	0	32650	32805	31061	
3428	0	31816	32732	31056	
3429	0	31205	32932	31046	
3430	0	30724	32968	31044	
3431	0	30928	32965	31016	
3432	0	31052	32644	31008	
3433	0	31712	32638	31004	
3434	0	32638	32800	30976	
3435	0	33568	32972	30985	
3436	0	34148	33036	30985	
3437	0	34176	32861	31004	
3438	0	34572	32973	30997	
3439	0	34276	33028	31008	
3440	0	33420	32364	30996	
3441	0	32856	32676	30973	
3442	0	33052	32804	30969	
3443	0	33248	32940	30998	
3444	0	33244	32898	30996	
3445	0	33452	32764	31013	
3446	0	32752	32948	31003	
3447	0	32064	32982	31020	
3448	0	31825	33064	31020	
3449	0	31756	33085	31012	
3450	0	31712	32855	31016	
3451	0	31896	32756	31040	
3452	0	32093	32744	31044	
3453	0	32148	32794	31064	
3454	0	32236	32788	31084	
3455	0	32404	32764	31076	
3456	0	32500	32936	31054	
3457	0	33036	32578	31049	
3458	0	33378	32948	31065	
3459	0	33172	33220	31060	
3460	0	33024	32918	31048	
3461	0	33344	32892	31044	
3462	0	33932	32852	31057	
3463	0	33712	32668	31048	
3464	0	33086	32581	31068	
3465	0	32964	32729	31088	
3466	0	33034	32802	31084	
3467	0	32980	32764	31100	
3468	0	32668	32677	31106	
3469	0	32224	32820	31090	
3470	0	32289	32958	31104	
3471	0	32576	33072	31111	
3472	0	32700	32868	31110	
3473	0	32584	32595	31120	
3474	0	31866	32681	31106	
3475	0	31900	32516	31078	
3476	0	32402	32748	31084	
3477	0	32612	33056	31085	
3478	0	33136	33262	31088	
3479	0	33297	33295	31080	
3480	0	33220	33052	31079	
3481	0	32902	32884	31068	
3482	0	33028	32647	31076	
3483	0	33237	32628	31080	
3484	0	33220	32592	31116	
3485	0	31912	32729	31124	
3486	0	32016	32768	31110	
3487	0	33076	32856	31109	
3488	0	33788	32934	31098	
3489	0	34504	33096	31108	
3490	0	33885	33425	31104	
3491	0	33116	33176	31086	
3492	0	32281	32308	31068	
3493	0	31909	31929	31030	
3494	0	32076	32292	30984	
3495	0	31993	32320	30965	
3496	0	32420	32612	30969	
3497	0	32684	32866	30976	
3498	0	31676	33176	30997	
3499	0	32184	34564	31012	
3500	0	33036	34653	31013	
3501	0	33637	33304	31010	
3502	0	33748	30753	31024	
3503	0	33792	31097	31040	
3504	0	33510	32712	31034	
3505	0	33108	32988	31052	
3506	0	32489	32588	31036	
3507	0	32156	32850	31054	
3508	0	31908	32878	31072	
3509	0	31882	33027	31076	
3510	0	32188	32692	31077	
3511	0	32172	32968	31100	
3512	0	32092	32740	31084	
3513	0	32504	32956	31095	
3514	0	32944	32888	31098	
3515	0	33052	32868	31088	
3516	0	33344	33162	31080	
3517	0	33450	33217	31080	
3518	0	33956	32836	31084	
3519	0	33716	32980	31100	
3520	0	33220	32937	31094	
3521	0	33040	32893	31087	
3522	0	32916	32862	31078	
3523	0	32920	32940	31092	
3524	0	32856	33242	31104	
3525	0	32820	33264	31111	
3526	0	32664	32837	31089	
3527	0	32468	32865	31084	
3528	0	32736	33025	31097	
3529	0	32364	32708	31096	
3530	0	31952	32630	31114	
3531	0	31916	32568	31136	
3532	0	32048	32573	31137	
3533	0	32116	32624	31111	
3534	0	32420	32886	31120	
3535	0	32684	32873	31104	
3536	0	32864	32895	31101	
3537	0	33036	32888	31084	
3538	0	33328	32833	31089	
3539	0	33124	32892	31088	
3540	0	32416	32761	31100	
3541	0	32644	32892	31100	
3542	0	33188	32958	31090	
3543	0	33645	33046	31080	
3544	0	33590	33100	31072	
3545	0	33634	32892	31080	
3546	0	33829	32760	31076	
3547	0	33108	32704	31081	
3548	0	32576	32756	31088	
3549	0	32052	32704	31084	
3550	0	31804	32586	31078	
3551	0	31953	32816	31100	
3552	0	32401	32614	31076	
3553	0	32808	32716	31071	
3554	0	32596	32788	31069	
3555	0	32672	32900	31092	
3556	0	32880	32913	31084	
3557	0	32862	32602	31085	
3558	0	32620	32924	31076	
3559	0	32457	33078	31060	
3560	0	32592	33263	31046	
3561	0	32200	33688	31052	
3562	0	32660	33488	31046	
3563	0	33101	32596	31042	
3564	0	33832	32182	31041	
3565	0	34104	32552	31060	
3566	0	33840	32789	31044	
3567	0	33708	32648	31040	
3568	0	33382	32512	31060	
3569	0	32672	32569	31040	
3570	0	32276	32464	31032	
3571	0	31946	32750	31020	
3572	0	31136	33009	31040	
3573	0	31889	32880	31036	
3574	0	32549	32900	31034	
3575	0	32927	33181	31020	
3576	0	33004	33256	31024	
3577	0	33213	32708	31028	
3578	0	33266	33405	31024	
3579	0	32776	34317	31020	
3580	0	32364	33435	31041	
3581	0	32444	31460	31042	
3582	0	32592	30860	31044	
3583	0	33454	32421	31044	
3584	0	33269	32984	31054	
3585	0	33092	32198	31064	
3586	0	33144	32428	31076	
3587	0	33328	33164	31060	
3588	0	33328	33738	31068	
3589	0	33133	33185	31057	
3590	0	32768	32998	31068	
3591	0	32160	33446	31060	
3592	0	32084	33096	31060	
3593	0	31956	32910	31071	
3594	0	31804	32801	31050	
3595	0	31884	32941	31028	
3596	0	32244	33028	31036	
3597	0	32410	32837	31044	
3598	0	32616	33028	31048	
3599	0	33090	32800	31048	
3600	0	33397	32929	31052	
3601	0	33952	32934	31045	
3602	0	34212	32702	31033	
3603	0	33848	32692	31048	
3604	0	33220	32573	31062	
3605	0	32628	32672	31066	
3606	0	32334	32613	31069	
3607	0	32260	32552	31072	
3608	0	32316	32720	31080	
3609	0	32224	32775	31092	
3610	0	31212	32770	31102	
3611	0	31432	32775	31100	
3612	0	32051	33224	31076	
3613	0	32624	33140	31068	
3614	0	33088	32990	31076	
3615	0	33439	32879	31060	
3616	0	32988	32901	31036	
3617	0	31745	32879	31048	
3618	0	31168	32792	31060	
3619	0	32420	32924	31070	
3620	0	34372	32799	31069	
3621	0	35088	32856	31066	
3622	0	34889	32920	31060	
3623	0	34768	32984	31069	
3624	0	34833	32890	31084	
3625	0	33950	33224	31086	
3626	0	33104	33305	31097	
3627	0	32508	32964	31088	
3628	0	30976	32755	31100	
3629	0	30956	32768	31100	
3630	0	31156	32263	31108	
3631	0	31384	32750	31108	
3632	0	31952	32861	31100	
3633	0	32736	32440	31089	
3634	0	32749	32504	31072	
3635	0	32592	32452	31073	
3636	0	32758	32877	31066	
3637	0	32944	33140	31081	
3638	0	33116	34337	31085	
3639	0	33064	33685	31088	
3640	0	32744	31790	31109	
3641	0	32320	31048	31100	
3642	0	31948	32665	31124	
3643	0	32760	33432	31108	
3644	0	33624	32806	31090	
3645	0	34220	32824	31092	
3646	0	34304	33074	31096	
3647	0	34222	32548	31098	
3648	0	33772	32964	31100	
3649	0	32872	33318	31110	
3650	0	32444	33060	31111	
3651	0	32312	32787	31092	
3652	0	32224	32650	31082	
3653	0	32180	32574	31066	
3654	0	31702	32608	31064	
3655	0	31913	33080	31088	
3656	0	32376	33439	31092	
3657	0	32488	33600	31085	
3658	0	32716	33543	31080	
3659	0	32825	33224	31063	
3660	0	32976	32569	31052	
3661	0	32784	32218	31061	
3662	0	32826	31696	31048	
3663	0	32940	32088	31057	
3664	0	33172	33088	31072	
3665	0	33612	33048	31070	
3666	0	33952	32864	31068	
3667	0	33498	32998	31072	
3668	0	33108	33044	31070	
3669	0	32818	32773	31064	
3670	0	31864	32581	31052	
3671	0	31761	32519	31052	
3672	0	31834	32647	31068	
3673	0	31620	32702	31076	
3674	0	31824	33080	31093	
3675	0	32324	33280	31061	
3676	0	33032	33172	31068	
3677	0	33346	32903	31048	
3678	0	33712	32824	31056	
3679	0	33484	32968	31057	
3680	0	33388	32772	31036	
3681	0	33670	32716	31012	
3682	0	33264	32780	31013	
3683	0	33008	32902	30996	
3684	0	32977	32917	30988	
3685	0	32884	32804	30974	
3686	0	32768	32713	30994	
3687	0	32476	32806	31022	
3688	0	32336	32690	31016	
3689	0	32216	32840	31025	
3690	0	32241	32769	31034	
3691	0	32273	32637	31036	
3692	0	32256	32668	31028	
3693	0	32137	32660	31024	
3694	0	31833	33036	31012	
3695	0	31252	32817	31016	
3696	0	31704	32852	31010	
3697	0	32884	32657	30980	
3698	0	33764	32768	30970	
3699	0	34468	32740	30980	
3700	0	35072	32786	30997	
3701	0	34716	32756	30988	
3702	0	33884	32824	31005	
3703	0	33422	33272	31000	
3704	0	33016	32796	30980	
3705	0	32332	32804	30992	
3706	0	32388	32971	31020	
3707	0	32527	32768	31032	
3708	0	32448	32766	31048	
3709	0	31988	33081	31064	
3710	0	31676	32832	31073	
3711	0	31500	32464	31052	
3712	0	31849	32804	31045	
3713	0	32388	33056	31047	
3714	0	32508	32730	31050	
3715	0	32590	32616	31060	
3716	0	32558	32644	31050	
3717	0	32784	32823	31056	
3718	0	32748	32693	31048	
3719	0	33036	33060	31056	
3720	0	33432	33648	31069	
3721	0	33268	33844	31068	
3722	0	33484	33168	31050	
3723	0	33872	32111	31076	
3724	0	34105	32336	31082	
3725	0	32768	32900	31068	
3726	0	32034	32929	31064	
3727	0	32570	32588	31060	
3728	0	33228	32786	31060	
3729	0	33228	32878	31092	
3730	0	33048	32462	31074	
3731	0	32804	32604	31060	
3732	0	32328	32696	31081	
3733	0	32384	32590	31076	
3734	0	32128	32804	31080	
3735	0	31940	33205	31073	
3736	0	32349	34708	31072	
3737	0	32753	34169	31073	
3738	0	33093	32112	31068	
3739	0	33141	30294	31052	
3740	0	33129	31152	31060	
3741	0	33228	32519	31070	
3742	0	33084	32762	31064	
3743	0	32720	33248	31061	
3744	0	32596	33793	31052	
3745	0	32532	33848	31058	
3746	0	32808	33452	31050	
3747	0	32884	33280	31046	
3748	0	32710	32900	31048	
3749	0	32421	32838	31040	
3750	0	32148	32669	31060	
3751	0	32228	32540	31052	
3752	0	32552	32467	31044	
3753	0	32296	32568	31032	
3754	0	32374	33072	31034	
3755	0	32680	33188	31020	
3756	0	33205	32644	31012	
3757	0	33376	32870	31024	
3758	0	33384	32916	31028	
3759	0	33578	32684	31036	
3760	0	33380	32757	31023	
3761	0	33013	33076	31014	
3762	0	31964	33276	31013	
3763	0	32412	32932	31016	
3764	0	33252	33022	31020	
3765	0	33604	32888	31012	
3766	0	33660	32920	30992	
3767	0	33452	32936	30976	
3768	0	33275	32644	30984	
3769	0	32765	32834	30976	
3770	0	32468	32612	30999	
3771	0	32236	32794	31012	
3772	0	31854	32884	31034	
3773	0	31681	32749	31052	
3774	0	31788	32546	31048	
3775	0	31924	32937	31032	
3776	0	32304	32860	31056	
3777	0	32804	32430	31045	
3778	0	33272	32868	31005	
3779	0	33314	33060	31008	
3780	0	33448	33053	31000	
3781	0	33304	33143	30992	
3782	0	33328	32872	30994	
3783	0	33120	32838	30976	
3784	0	32784	32860	30980	
3785	0	32824	32830	30969	
3786	0	32944	32892	30976	
3787	0	32701	32869	30996	
3788	0	32436	32897	30998	
3789	0	32121	32932	31012	
3790	0	32076	32688	31020	
3791	0	32340	32768	31020	
3792	0	32492	32504	31021	
3793	0	32494	32904	31030	
3794	0	32588	32785	31028	
3795	0	32720	33297	31016	
3796	0	32768	33280	31001	
3797	0	32816	32578	30976	
3798	0	33132	31996	30998	
3799	0	33661	32681	31008	
3800	0	34096	32876	31013	
3801	0	34480	32414	31008	
3802	0	33561	32548	31028	
3803	0	33116	32838	31044	
3804	0	32756	32689	31033	
3805	0	32458	32954	31052	
3806	0	32468	33038	31056	
3807	0	32244	33053	31068	
3808	0	31990	33237	31074	
3809	0	31937	33031	31073	
3810	0	31544	32806	31076	
3811	0	30900	32848	31068	
3812	0	30377	32854	31064	
3813	0	31236	32849	31066	
3814	0	33080	32903	31036	
3815	0	33189	32908	31024	
3816	0	32993	33080	31024	
3817	0	33800	33039	31024	
3818	0	34028	33194	31012	
3819	0	34440	32904	31005	
3820	0	35020	32892	30983	
3821	0	35192	32665	30988	
3822	0	35472	32527	30984	
3823	0	34996	32141	30972	
3824	0	33970	31816	30972	
3825	0	32840	32452	31004	
3826	0	32048	33134	31004	
3827	0	31312	33320	31012	
3828	0	30968	33295	31022	
3829	0	31072	33020	31017	
3830	0	31176	33937	31012	
3831	0	31284	34360	31002	
3832	0	31492	33132	31012	
3833	0	31924	30840	31036	
3834	0	32368	30990	31052	
3835	0	32754	32620	31040	
3836	0	33313	32622	31028	
3837	0	33384	32105	31018	
3838	0	33160	32321	31018	
3839	0	33056	33500	31016	
3840	0	32536	33604	31012	
3841	0	32148	33645	31012	
3842	0	32232	32976	30984	
3843	0	31825	33277	30988	
3844	0	33208	33444	30984	
3845	0	34616	33375	30984	
3846	0	35272	33360	31001	
3847	0	34876	32813	31012	
3848	0	34196	32807	31016	
3849	0	32868	32684	31017	
3850	0	31736	32416	31010	
3851	0	31236	32633	30996	
3852	0	31328	33048	30983	
3853	0	31512	33100	30965	
3854	0	31944	32952	30973	
3855	0	32248	32108	30985	
3856	0	32629	32140	30976	
3857	0	32900	32764	30980	
3858	0	33068	33201	30966	
3859	0	33264	33229	30960	
3860	0	33216	32896	30961	
3861	0	33300	32917	30968	
3862	0	33288	32956	30996	
3863	0	33385	32868	30990	
3864	0	33248	33069	31001	
3865	0	33096	32869	31020	
3866	0	32696	32877	31006	
3867	0	32304	32876	31012	
3868	0	32148	32836	31012	
3869	0	32088	32806	31010	
3870	0	32216	32774	31001	
3871	0	32224	32684	30990	
3872	0	32504	32701	31000	
3873	0	32296	32820	31020	
3874	0	32384	32720	31000	
3875	0	32730	32782	30996	
3876	0	32856	32934	30984	
3877	0	33174	32748	30979	
3878	0	33360	32767	31008	
3879	0	33308	32885	30982	
3880	0	33348	32836	30973	
3881	0	33568	32892	31002	
3882	0	33528	32894	31015	
3883	0	33204	32868	31012	
3884	0	33216	32636	30985	
3885	0	33066	32809	30992	
3886	0	32792	32895	31004	
3887	0	32244	32916	31034	
3888	0	31728	32676	31024	
3889	0	30906	32919	31028	
3890	0	30674	32852	31016	
3891	0	31246	32847	31025	
3892	0	32232	32430	31008	
3893	0	33058	32610	31010	
3894	0	33900	32706	31002	
3895	0	34376	32773	30960	
3896	0	34644	32780	30940	
3897	0	34724	32876	30936	
3898	0	34788	33056	30939	
3899	0	33426	33144	30912	
3900	0	33092	32966	30916	
3901	0	32620	32865	30920	
3902	0	32201	33172	30929	
3903	0	31692	33129	30935	
3904	0	31326	32962	30949	
3905	0	31252	32794	30965	
3906	0	31892	32970	30968	
3907	0	32836	32888	30976	
3908	0	33149	32740	30988	
3909	0	33074	32746	30972	
3910	0	33516	32516	30980	
3911	0	33921	32591	30948	
3912	0	33100	32512	30940	
3913	0	32532	32614	30913	
3914	0	32536	32916	30908	
3915	0	32184	32990	30908	
3916	0	31818	32816	30916	
3917	0	31620	33028	30924	
3918	0	31964	34606	30948	
3919	0	32400	34740	30958	
3920	0	32950	33378	30944	
3921	0	33409	30526	30938	
3922	0	33676	30420	30951	
3923	0	34162	32256	30956	
3924	0	34488	32196	30984	
3925	0	34542	32068	30956	
3926	0	34172	32744	30957	
3927	0	32820	33562	30970	
3928	0	32432	34092	30968	
3929	0	32086	33748	30976	
3930	0	30768	33344	30970	
3931	0	30756	32988	30984	
3932	0	31413	32642	30992	
3933	0	32376	32680	31002	
3934	0	32996	32858	31005	
3935	0	33153	32976	31009	
3936	0	33352	32868	31016	
3937	0	33096	32784	30996	
3938	0	33173	33192	30980	
3939	0	33028	32285	31000	
3940	0	32842	31780	31012	
3941	0	32948	32526	31020	
3942	0	32836	33500	31014	
3943	0	32496	33900	31045	
3944	0	32660	33399	31040	
3945	0	32972	33054	31048	
3946	0	32912	32916	31060	
3947	0	32712	32860	31056	
3948	0	32804	32669	31046	
3949	0	32724	32692	31045	
3950	0	32778	32766	31045	
3951	0	32992	32565	31040	
3952	0	32624	32584	31026	
3953	0	31908	32548	31022	
3954	0	32052	32545	31028	
3955	0	32380	32653	31021	
3956	0	32856	32608	31041	
3957	0	33213	32727	31047	
3958	0	33236	33281	31050	
3959	0	33232	32826	31052	
3960	0	32932	32885	31048	
3961	0	32101	32991	31056	
3962	0	32245	32976	31040	
3963	0	32660	33188	31037	
3964	0	33040	33028	31012	
3965	0	33513	33024	31000	
3966	0	33948	32996	31014	
3967	0	34028	32679	31005	
3968	0	33524	32794	31012	
3969	0	32952	33004	31005	
3970	0	32220	32945	30990	
3971	0	32032	32624	30972	
3972	0	31960	32588	30961	
3973	0	31969	32496	30966	
3974	0	32348	32624	30948	
3975	0	32617	32462	30972	
3976	0	32752	32892	30968	
3977	0	33072	33054	30964	
3978	0	33244	33184	30988	
3979	0	33136	33716	30996	
3980	0	33054	34756	30972	
3981	0	33212	33630	30964	
3982	0	33244	31584	30964	
3983	0	32868	31200	31006	
3984	0	33124	32236	30986	
3985	0	32840	31966	30986	
3986	0	32252	31908	30997	
3987	0	32352	32640	31004	
3988	0	32616	33153	31000	
3989	0	32000	33020	31008	
3990	0	31312	32738	30996	
3991	0	31742	32862	31004	
3992	0	32364	33148	30996	
3993	0	32997	33021	30984	
3994	0	32860	32996	30976	
3995	0	32992	33152	30964	
3996	0	33288	33149	30973	
3997	0	33981	33020	30984	
3998	0	34004	32901	30980	
3999	0	33492	32916	30956	
4000	0	33476	32872	30964	
4001	0	33716	32968	30948	
4002	0	33696	32863	30938	
4003	0	33208	32860	30924	
4004	0	33080	32868	30908	
4005	0	32720	32834	30907	
4006	0	32316	32936	30916	
4007	0	31988	32630	30902	
4008	0	32034	32708	30910	
4009	0	32085	32529	30916	
4010	0	32242	32388	30913	
4011	0	31892	32704	30909	
4012	0	31890	33006	30917	
4013	0	31800	33172	30917	
4014	0	31966	32848	30936	
4015	0	32280	32556	30948	
4016	0	32668	32708	30950	
4017	0	33184	32763	30941	
4018	0	33436	32977	30941	
4019	0	33444	32865	30945	
4020	0	33496	32911	30932	
4021	0	33562	32844	30946	
4022	0	33264	32750	30920	
4023	0	32880	32856	30908	
4024	0	32868	33096	30937	
4025	0	32864	32495	30928	
4026	0	32916	32660	30910	
4027	0	32913	32775	30926	
4028	0	32822	33012	30934	
4029	0	33076	33142	30925	
4030	0	33232	32713	30928	
4031	0	32276	32704	30928	
4032	0	30732	32801	30925	
4033	0	31156	32600	30916	
4034	0	31804	32577	30905	
4035	0	31548	32919	30906	
4036	0	32452	32932	30897	
4037	0	33828	32890	30904	
4038	0	35177	32704	30908	
4039	0	35134	32790	30880	
4040	0	34586	32684	30896	
4041	0	33918	33168	30888	
4042	0	32994	33236	30875	
4043	0	32600	32908	30888	
4044	0	32593	32780	30896	
4045	0	32408	32892	30906	
4046	0	32184	32663	30918	
4047	0	31928	32496	30932	
4048	0	31884	32712	30952	
4049	0	31788	32676	30940	
4050	0	31876	32606	30956	
4051	0	31916	32728	30960	
4052	0	32008	32832	30964	
4053	0	32932	32519	30956	
4054	0	33168	32581	30969	
4055	0	32948	33332	30968	
4056	0	32977	33263	30962	
4057	0	32800	33384	30952	
4058	0	32821	33209	30949	
4059	0	32961	33072	30918	
4060	0	33237	33349	30914	
4061	0	34072	33358	30919	
4062	0	34264	32578	30921	
4063	0	33860	31476	30929	
4064	0	33856	32743	30934	
4065	0	33129	34440	30932	
4066	0	32564	33228	30942	
4067	0	32196	30853	30957	
4068	0	32152	30685	30980	
4069	0	31649	32668	30966	
4070	0	31648	33326	30948	
4071	0	31676	32880	30964	
4072	0	31896	33092	30975	
4073	0	32120	33230	30948	
4074	0	32626	32785	30948	
4075	0	32976	32596	30960	
4076	0	33188	32570	30969	
4077	0	33048	32636	30976	
4078	0	32624	33367	30973	
4079	0	33228	33404	30964	
4080	0	33440	33048	30996	
4081	0	33788	32987	31016	
4082	0	33908	33235	30984	
4083	0	33800	32740	30978	
4084	0	33988	32738	30960	
4085	0	33265	32700	30933	
4086	0	32828	32748	30924	
4087	0	32473	32604	30932	
4088	0	32160	32932	30954	
4089	0	31388	33106	30964	
4090	0	31305	32724	30957	
4091	0	31424	32852	30990	
4092	0	31708	32728	30972	
4093	0	32157	32665	30976	
4094	0	32536	32640	30976	
4095	0	32916	32604	30978	
4096	0	33172	32592	30988	
4097	0	33292	33017	30970	
4098	0	33744	33512	30977	
4099	0	33400	33336	30969	
4100	0	33172	33061	30972	
4101	0	33628	32964	30948	
4102	0	33340	32708	30964	
4103	0	33268	32647	30972	
4104	0	33252	32715	30992	
4105	0	33004	32836	30968	
4106	0	32629	32748	30977	
4107	0	32640	32648	30994	
4108	0	32560	32876	30988	
4109	0	32336	32852	30970	
4110	0	31928	32936	30974	
4111	0	31762	32791	30991	
4112	0	31964	32689	30988	
4113	0	32153	32721	30968	
4114	0	32549	32774	30982	
4115	0	32700	32946	30973	
4116	0	32912	32952	30960	
4117	0	32529	32801	30988	
4118	0	32786	33012	30960	
4119	0	33096	32918	30958	
4120	0	32484	32868	30973	
4121	0	32980	32948	30959	
4122	0	33541	32936	30972	
4123	0	34081	32842	30961	
4124	0	33684	32756	30948	
4125	0	33572	32464	30932	
4126	0	33526	32404	30935	
4127	0	33429	33068	30924	
4128	0	33256	33405	30918	
4129	0	33048	33782	30928	
4130	0	32436	33321	30932	
4131	0	31296	32686	30928	
4132	0	31252	32053	30936	
4133	0	31748	32564	30953	
4134	0	32441	32375	30948	
4135	0	32740	32420	30956	
4136	0	32921	32718	30962	
4137	0	33072	32798	30954	
4138	0	33136	32816	30952	
4139	0	33024	32948	30928	
4140	0	32909	32969	30929	
4141	0	33294	32881	30920	
4142	0	34062	33028	30916	
4143	0	33556	34148	30921	
4144	0	33188	34556	30928	
4145	0	32901	32790	30924	
4146	0	32673	30488	30928	
4147	0	32400	31204	30917	
4148	0	32068	32856	30938	
4149	0	31912	32328	30941	
4150	0	31844	32240	30940	
4151	0	32094	32710	30950	
4152	0	32212	33047	30950	
4153	0	32693	33186	30932	
4154	0	32440	33260	30940	
4155	0	32449	33250	30932	
4156	0	32663	33069	30953	
4157	0	32936	32831	30956	
4158	0	33420	33076	30972	
4159	0	33642	32960	30960	
4160	0	33500	32933	30960	
4161	0	33396	32775	30950	
4162	0	32893	32804	30954	
4163	0	32984	32920	30974	
4164	0	33050	33126	30983	
4165	0	32901	32996	30976	
4166	0	32529	32837	30972	
4167	0	32000	32654	30968	
4168	0	32204	32537	30970	
4169	0	32884	32606	30982	
4170	0	32542	32576	30991	
4171	0	32480	32864	30980	
4172	0	32548	32524	30965	
4173	0	31452	32644	30976	
4174	0	31728	32666	30972	
4175	0	33136	32841	30970	
4176	0	33556	33102	30965	
4177	0	33652	33342	30989	
4178	0	33740	33256	30965	
4179	0	33768	32740	30970	
4180	0	34056	32532	30962	
4181	0	33596	32700	30976	
4182	0	33148	32797	30960	
4183	0	32800	32536	30965	
4184	0	32605	32772	30964	
4185	0	32732	33205	30972	
4186	0	32660	33513	30977	
4187	0	32440	33035	30968	
4188	0	32180	33000	30956	
4189	0	31716	32980	30947	
4190	0	31644	32736	30925	
4191	0	31297	32695	30916	
4192	0	31213	32460	30930	
4193	0	31877	32713	30945	
4194	0	32460	32984	30960	
4195	0	33016	32513	30958	
4196	0	33596	32924	30952	
4197	0	34200	33072	30948	
4198	0	34512	32557	30966	
4199	0	34293	31724	30944	
4200	0	34216	31760	30940	
4201	0	33718	33080	30946	
4202	0	33344	35240	30944	
4203	0	33536	35129	30938	
4204	0	33044	33508	30936	
4205	0	32460	30684	30948	
4206	0	32236	31110	30944	
4207	0	31740	32548	30960	
4208	0	30692	32736	30945	
4209	0	31049	32338	30938	
4210	0	31660	32901	30962	
4211	0	32098	32775	30961	
4212	0	32480	33009	30965	
4213	0	32908	33684	30941	
4214	0	33388	33542	30944	
4215	0	33320	33021	30948	
4216	0	33424	32444	30961	
4217	0	33232	32732	30949	
4218	0	32925	32936	30972	
4219	0	33424	32608	30991	
4220	0	33392	32784	30983	
4221	0	33208	33132	30976	
4222	0	33560	33336	30968	
4223	0	33848	33218	30981	
4224	0	33180	32936	30976	
4225	0	32797	32212	30952	
4226	0	32568	31898	30948	
4227	0	32292	32137	30962	
4228	0	32332	32866	30938	
4229	0	32288	33577	30940	
4230	0	31968	33548	30936	
4231	0	31900	32869	30924	
4232	0	32144	32839	30917	
4233	0	32476	32880	30909	
4234	0	32044	32860	30896	
4235	0	31664	32933	30901	
4236	0	32374	32772	30906	
4237	0	33124	32704	30926	
4238	0	33672	32888	30928	
4239	0	33850	32775	30948	
4240	0	33756	32920	30914	
4241	0	33644	32864	30916	
4242	0	33624	32764	30910	
4243	0	33189	32836	30912	
4244	0	33172	32816	30924	
4245	0	32950	32969	30916	
4246	0	32680	33088	30917	
4247	0	32360	32358	30916	
4248	0	32400	32662	30937	
4249	0	32200	32776	30968	
4250	0	32032	32856	30949	
4251	0	32268	32744	30924	
4252	0	32432	32717	30930	
4253	0	32433	32748	30928	
4254	0	32764	32687	30964	
4255	0	32738	32704	30976	
4256	0	32508	32976	30988	
4257	0	33020	32796	30976	
4258	0	33252	32979	30968	
4259	0	33152	33082	30968	
4260	0	33224	33088	30964	
4261	0	32144	32753	30954	
4262	0	32080	32642	30964	
4263	0	32040	32837	30973	
4264	0	32765	32796	30965	
4265	0	33712	32784	30972	
4266	0	34304	32868	30964	
4267	0	34320	32660	30976	
4268	0	33768	33166	30972	
4269	0	33081	33565	30940	
4270	0	32436	33268	30960	
4271	0	32153	32432	30983	
4272	0	32132	32222	30958	
4273	0	32228	32769	30958	
4274	0	31484	32444	30948	
4275	0	31772	32652	30968	
4276	0	32296	32684	30961	
4277	0	32517	32877	30973	
4278	0	32973	32970	30964	
4279	0	33228	33262	30977	
4280	0	33420	32800	30960	
4281	0	33746	32876	30972	
4282	0	33812	33037	30958	
4283	0	33700	33026	30964	
4284	0	33136	33056	30970	
4285	0	32765	32889	30985	
4286	0	32500	32916	30992	
4287	0	32149	32191	30989	
4288	0	32076	33674	30970	
4289	0	32012	34108	30972	
4290	0	31844	32609	30982	
4291	0	31700	30904	30973	
4292	0	31764	31653	30976	
4293	0	31816	33124	30992	
4294	0	31532	32750	30972	
4295	0	32412	32334	30977	
4296	0	33528	32676	30968	
4297	0	34560	32884	30972	
4298	0	35172	33208	30952	
4299	0	34892	33384	30973	
4300	0	33912	33193	30992	
4301	0	32976	32792	30996	
4302	0	32640	33132	30981	
4303	0	32600	33388	30981	
4304	0	32288	33246	30957	
4305	0	33164	33000	30951	
4306	0	33521	33268	30964	
4307	0	33280	32276	30970	
4308	0	32896	32775	30957	
4309	0	32024	32917	30948	
4310	0	31558	32732	30953	
4311	0	31476	32544	30938	
4312	0	31372	32668	30924	
4313	0	31652	32869	30900	
4314	0	32216	32865	30902	
4315	0	32380	32848	30897	
4316	0	32740	32888	30876	
4317	0	33529	32936	30867	
4318	0	33773	32954	30852	
4319	0	33556	32799	30872	
4320	0	33426	32716	30871	
4321	0	33520	32857	30861	
4322	0	33480	32728	30864	
4323	0	33520	32788	30853	
4324	0	33003	32869	30856	
4325	0	32990	32752	30882	
4326	0	32704	32724	30888	
4327	0	32368	32780	30901	
4328	0	32436	32840	30924	
4329	0	32340	32760	30921	
4330	0	32048	32871	30924	
4331	0	32072	32898	30924	
4332	0	32256	32942	30902	
4333	0	32304	33015	30917	
4334	0	32344	32904	30936	
4335	0	32328	32860	30930	
4336	0	31528	32720	30916	
4337	0	32053	32845	30926	
4338	0	32928	32988	30910	
4339	0	34000	33181	30918	
4340	0	33976	32893	30931	
4341	0	34228	32753	30936	
4342	0	34268	32908	30920	
4343	0	33816	32844	30912	
4344	0	33376	32961	30940	
4345	0	33004	33252	30949	
4346	0	32962	33316	30948	
4347	0	32156	32568	30953	
4348	0	31880	31694	30961	
4349	0	32076	32154	30983	
4350	0	31829	32316	30976	
4351	0	31461	31905	30972	
4352	0	31706	32701	30956	
4353	0	32388	33556	30950	
4354	0	32712	33504	30928	
4355	0	33424	33326	30924	
4356	0	33720	33082	30916	
4357	0	33544	32768	30892	
4358	0	33344	32678	30887	
4359	0	33132	32776	30912	
4360	0	33020	32864	30940	
4361	0	32868	34437	30948	
4362	0	32884	34172	30964	
4363	0	33116	32420	30948	
4364	0	32956	30621	30948	
4365	0	32776	31836	30961	
4366	0	32720	32964	30941	
4367	0	32440	32652	30928	
4368	0	32488	32868	30932	
4369	0	32590	33205	30943	
4370	0	32646	33060	30948	
4371	0	32620	33040	30983	
4372	0	31404	32456	31000	
4373	0	31220	32256	30992	
4374	0	31844	32789	30983	
4375	0	32649	33293	30982	
4376	0	33317	33420	30993	
4377	0	33818	33348	30980	
4378	0	33856	33292	30962	
4379	0	33661	33194	30960	
4380	0	33516	32819	30964	
4381	0	33581	32545	30952	
4382	0	33696	32428	30964	
4383	0	34108	32530	30975	
4384	0	33624	32647	30972	
4385	0	32692	32800	30992	
4386	0	32372	32903	30998	
4387	0	32029	32688	31022	
4388	0	32112	32836	31013	
4389	0	31920	32934	31005	
4390	0	31680	32873	30987	
4391	0	31508	32652	30982	
4392	0	31644	32669	30961	
4393	0	31887	32694	30960	
4394	0	32113	32744	30949	
4395	0	31822	32224	30934	
4396	0	32670	32590	30941	
4397	0	33428	32825	30948	
4398	0	33969	33850	30936	
4399	0	34204	34508	30940	
4400	0	34224	33858	30934	
4401	0	33808	32400	30948	
4402	0	33972	32421	30946	
4403	0	33868	32528	30928	
4404	0	33732	32096	30916	
4405	0	32913	32244	30926	
4406	0	31862	32525	30921	
4407	0	31720	32833	30912	
4408	0	32092	33112	30917	
4409	0	32232	32982	30901	
4410	0	32020	32853	30916	
4411	0	31968	32754	30922	
4412	0	32080	32814	30911	
4413	0	32112	32600	30909	
4414	0	32040	32752	30885	
4415	0	31420	32848	30900	
4416	0	32004	32976	30888	
4417	0	32872	33032	30887	
4418	0	34320	33209	30888	
4419	0	34656	33421	30868	
4420	0	34790	32949	30873	
4421	0	34488	32512	30900	
4422	0	33972	32678	30910	
4423	0	33412	32818	30896	
4424	0	32663	32857	30894	
4425	0	32060	32670	30904	
4426	0	31796	32836	30902	
4427	0	31804	32543	30924	
4428	0	32212	33604	30936	
4429	0	31948	34821	30932	
4430	0	32000	33630	30940	
4431	0	32612	31225	30940	
4432	0	33108	30636	30934	
4433	0	33417	32191	30956	
4434	0	32565	32676	30942	
4435	0	31952	32292	30928	
4436	0	32156	33000	30926	
4437	0	32812	33193	30916	
4438	0	33188	33296	30903	
4439	0	33608	33444	30921	
4440	0	34092	33364	30926	
4441	0	33944	32696	30932	
4442	0	33616	31606	30920	
4443	0	32937	30946	30924	
4444	0	32504	32452	30928	
4445	0	32661	33437	30938	
4446	0	32684	33956	30948	
4447	0	31850	34005	30960	
4448	0	31848	33973	30964	
4449	0	32220	33544	30964	
4450	0	32244	33072	30964	
4451	0	32072	33012	30962	
4452	0	32248	32864	30964	
4453	0	32500	32543	30948	
4454	0	32572	32649	30948	
4455	0	32470	33012	30934	
4456	0	31969	32788	30948	
4457	0	32656	32952	30948	
4458	0	33172	32822	30945	
4459	0	33686	32818	30960	
4460	0	34272	32740	30952	
4461	0	34432	32688	30953	
4462	0	34336	32656	30945	
4463	0	34168	32654	30956	
4464	0	33868	32902	30952	
4465	0	33212	33460	30956	
4466	0	31912	33188	30972	
4467	0	31896	32204	30980	
4468	0	31860	31824	30969	
4469	0	31612	32512	30953	
4470	0	31768	32877	30956	
4471	0	31832	32905	30956	
4472	0	31888	32712	30968	
4473	0	31928	32709	30944	
4474	0	32124	32795	30933	
4475	0	32332	32687	30969	
4476	0	32860	32688	30956	
4477	0	33452	32745	30976	
4478	0	33984	33076	30954	
4479	0	33890	32983	30961	
4480	0	33432	32904	30957	
4481	0	33172	33119	30940	
4482	0	33308	33312	30958	
4483	0	32564	32958	30942	
4484	0	31444	32766	30948	
4485	0	31877	32747	30946	
4486	0	32957	32388	30924	
4487	0	33802	32640	30929	
4488	0	33698	33204	30920	
4489	0	33680	32404	30928	
4490	0	33513	32388	30924	
4491	0	32908	32630	30918	
4492	0	33064	32900	30916	
4493	0	32552	32942	30916	
4494	0	31557	32936	30914	
4495	0	31612	33102	30900	
4496	0	32100	33112	30912	
4497	0	32418	33096	30913	
4498	0	32740	33016	30924	
4499	0	32908	32829	30896	
4500	0	33038	32596	30882	
4501	0	33284	32780	30878	
4502	0	33260	32922	30885	
4503	0	33176	34008	30900	
4504	0	33144	35124	30896	
4505	0	33156	33696	30898	
4506	0	33108	30253	30896	
4507	0	32321	30116	30885	
4508	0	32052	32513	30868	
4509	0	32112	33095	30888	
4510	0	32264	32654	30892	
4511	0	32272	33172	30884	
4512	0	32488	33488	30868	
4513	0	32677	32734	30883	
4514	0	32888	32848	30888	
4515	0	32756	32929	30886	
4516	0	32920	32792	30892	
4517	0	32992	32958	30905	
4518	0	33108	33022	30892	
4519	0	33432	33014	30909	
4520	0	33364	32462	30893	
4521	0	33312	32745	30882	
4522	0	33360	33014	30868	
4523	0	33260	33564	30900	
4524	0	33085	33132	30922	
4525	0	32872	32364	30916	
4526	0	32704	32556	30940	
4527	0	32384	32867	30964	
4528	0	32204	32831	30953	
4529	0	32156	32420	30958	
4530	0	32068	32261	30948	
4531	0	31693	32476	30944	
4532	0	31612	32788	30944	
4533	0	31096	32866	30960	
4534	0	31380	33257	30934	
4535	0	32312	33300	30928	
4536	0	32836	33276	30936	
4537	0	33465	33224	30919	
4538	0	33876	33180	30932	
4539	0	33716	33044	30952	
4540	0	34532	32886	30940	
4541	0	34752	32800	30924	
4542	0	35160	32689	30908	
4543	0	34396	32604	30913	
4544	0	33180	32782	30892	
4545	0	33020	32742	30906	
4546	0	32748	32749	30913	
4547	0	32496	32628	30925	
4548	0	31992	32666	30924	
4549	0	31872	32740	30945	
4550	0	32256	32700	30962	
4551	0	32208	33193	30941	
4552	0	32247	32353	30948	
4553	0	32016	32604	30926	
4554	0	31616	32700	30941	
4555	0	31912	32928	30944	
4556	0	32388	33002	30946	
4557	0	32860	32660	30940	
4558	0	33436	32762	30943	
4559	0	33624	32992	30936	
4560	0	33438	32836	30948	
4561	0	33500	32863	30936	
4562	0	32936	32944	30916	
4563	0	32909	32895	30916	
4564	0	32752	32834	30924	
4565	0	32804	32758	30930	
4566	0	33100	32968	30932	
4567	0	32837	32860	30900	
4568	0	32748	32908	30916	
4569	0	32748	32948	30925	
4570	0	32536	32645	30912	
4571	0	32344	32704	30916	
4572	0	32126	32793	30913	
4573	0	31964	32668	30904	
4574	0	31960	32617	30865	
4575	0	32260	32704	30894	
4576	0	32644	32377	30889	
4577	0	32932	32580	30892	
4578	0	33360	33214	30909	
4579	0	33536	33164	30914	
4580	0	33264	32892	30906	
4581	0	33408	32656	30895	
4582	0	33516	32840	30892	
4583	0	33310	33322	30888	
4584	0	33108	33304	30896	
4585	0	32876	33108	30886	
4586	0	32732	33102	30878	
4587	0	32520	32844	30876	
4588	0	32252	32604	30903	
4589	0	32168	32652	30916	
4590	0	32165	32650	30926	
4591	0	32100	32773	30900	
4592	0	32117	32736	30920	
4593	0	32184	32566	30910	
4594	0	32208	32757	30906	
4595	0	32476	32720	30893	
4596	0	33060	32836	30904	
4597	0	33326	33084	30924	
4598	0	33624	32727	30932	
4599	0	33844	33109	30888	
4600	0	33652	33191	30892	
4601	0	33470	32825	30884	
4602	0	33312	32940	30900	
4603	0	33296	32845	30918	
4604	0	33240	32796	30918	
4605	0	32988	32662	30904	
4606	0	32676	32708	30924	
4607	0	32319	32810	30934	
4608	0	32180	33552	30936	
4609	0	31864	33385	30936	
4610	0	31607	32572	30944	
4611	0	31660	32223	30917	
4612	0	31908	32553	30908	
4613	0	32356	32824	30916	
4614	0	31916	32887	30912	
4615	0	30856	32665	30892	
4616	0	31820	32540	30919	
4617	0	33256	32935	30917	
4618	0	33376	33110	30918	
4619	0	34600	33108	30916	
4620	0	35776	32992	30905	
4621	0	36256	32804	30916	
4622	0	35172	32748	30900	
4623	0	33984	32889	30894	
4624	0	33042	33041	30909	
4625	0	32004	33224	30904	
4626	0	31592	32949	30901	
4627	0	32001	32481	30910	
4628	0	32136	32382	30908	
4629	0	32132	32616	30894	
4630	0	31944	32836	30912	
4631	0	32064	32728	30912	
4632	0	31973	32792	30931	
