# OpenSignals Text File Format
# {"00:07:80:4D:2E:AD": {"sensor": ["EMG", "EMG", "XYZ"], "device name": "00:07:80:4D:2E:AD", "column": ["nSeq", "DI", "CH1", "CH2", "CH3"], "sync interval": 2, "time": "15:38:43.680", "comments": "scissor | ch1_flexor_digitorum_superficialis ch2_aductor_policis ch3_acc_z [trial 2]", "device connection": "BTH00:07:80:4D:2E:AD", "channels": [1, 2, 3], "keywords": "", "mode": 0, "digital IO": [0, 1], "firmware version": 773, "device": "biosignalsplux", "position": 0, "sampling rate": 1000, "label": ["CH1", "CH2", "CH3"], "resolution": [16, 16, 16], "date": "2019-1-23", "special": [{}, {}, {}]}}
# EndOfHeader
0	0	32565	32857	35268	
1	0	32708	32820	35263	
2	0	32764	32897	35252	
3	0	32864	32796	35263	
4	0	32916	32797	35256	
5	0	32908	32874	35268	
6	0	32986	32824	35256	
7	0	33045	32740	35222	
8	0	32972	32768	35228	
9	0	33025	32732	35239	
10	0	32932	32765	35228	
11	0	32945	32766	35240	
12	0	32857	32812	35252	
13	0	32704	32884	35256	
14	0	32618	32909	35261	
15	0	32629	32792	35260	
16	0	32552	32860	35260	
17	0	32576	32825	35264	
18	0	32524	32820	35268	
19	0	32556	32916	35234	
20	0	32584	32824	35228	
21	0	32724	32789	35204	
22	0	32720	32821	35214	
23	0	32844	32884	35228	
24	0	32884	32800	35234	
25	0	32964	32868	35236	
26	0	32992	32772	35214	
27	0	33044	32740	35200	
28	0	33016	32852	35220	
29	0	33072	32791	35244	
30	0	32957	32756	35208	
31	0	32860	32917	35221	
32	0	32860	32849	35232	
33	0	32728	32840	35245	
34	0	32676	32892	35258	
35	0	32606	32732	35268	
36	0	32576	32804	35272	
37	0	32568	32901	35284	
38	0	32580	32775	35284	
39	0	32608	32808	35292	
40	0	32588	32800	35272	
41	0	32700	32818	35276	
42	0	32736	32912	35261	
43	0	32800	32900	35257	
44	0	32892	32804	35269	
45	0	33052	32835	35264	
46	0	32956	32811	35264	
47	0	33044	32834	35244	
48	0	33057	32800	35252	
49	0	33049	32801	35245	
50	0	32904	32722	35252	
51	0	32928	32797	35216	
52	0	32824	32933	35207	
53	0	32720	32850	35224	
54	0	32664	32853	35242	
55	0	32620	32938	35253	
56	0	32580	32904	35246	
57	0	32570	32854	35228	
58	0	32584	32860	35223	
59	0	32614	32952	35244	
60	0	32612	32786	35260	
61	0	32600	32754	35253	
62	0	32704	32772	35247	
63	0	32840	32668	35245	
64	0	32902	32702	35238	
65	0	32952	32792	35220	
66	0	32974	32872	35228	
67	0	33046	32788	35204	
68	0	33052	32832	35239	
69	0	32968	32852	35228	
70	0	32992	32858	35220	
71	0	32896	32766	35225	
72	0	32904	32872	35225	
73	0	32804	32870	35213	
74	0	32720	32772	35212	
75	0	32584	32825	35205	
76	0	32548	32924	35217	
77	0	32568	32896	35218	
78	0	32540	32893	35229	
79	0	32476	32838	35242	
80	0	32616	32872	35248	
81	0	32476	32970	35244	
82	0	32804	32870	35225	
83	0	32989	32772	35223	
84	0	32997	32820	35224	
85	0	32953	32812	35223	
86	0	33004	32908	35236	
87	0	32968	32782	35212	
88	0	32996	32757	35200	
89	0	33028	32775	35204	
90	0	33031	32752	35185	
91	0	32968	32865	35196	
92	0	32816	32824	35218	
93	0	32770	32828	35220	
94	0	32664	32796	35236	
95	0	32608	32897	35240	
96	0	32528	32841	35252	
97	0	32540	32853	35244	
98	0	32508	32832	35262	
99	0	32600	32913	35272	
100	0	32600	32864	35268	
101	0	32684	32863	35256	
102	0	32768	32860	35233	
103	0	32820	32874	35233	
104	0	32882	32910	35236	
105	0	32925	32897	35237	
106	0	33000	32864	35239	
107	0	32951	32804	35243	
108	0	33008	32820	35244	
109	0	33008	32737	35225	
110	0	32991	32728	35228	
111	0	32868	32858	35244	
112	0	32828	32756	35257	
113	0	32732	32900	35264	
114	0	32708	32860	35240	
115	0	32684	32864	35225	
116	0	32553	32885	35236	
117	0	32544	32900	35245	
118	0	32646	32890	35225	
119	0	32601	32804	35228	
120	0	32644	32816	35220	
121	0	32692	32868	35237	
122	0	32760	32732	35196	
123	0	32768	32788	35204	
124	0	32876	32768	35216	
125	0	32888	32786	35206	
126	0	32921	32772	35228	
127	0	33018	32732	35236	
128	0	33093	32838	35233	
129	0	33000	32762	35240	
130	0	32996	32797	35249	
131	0	32888	32761	35257	
132	0	32780	32911	35252	
133	0	32752	32828	35252	
134	0	32660	32860	35252	
135	0	32614	32909	35248	
136	0	32532	32908	35256	
137	0	32621	32856	35270	
138	0	32684	32979	35276	
139	0	32664	32896	35280	
140	0	32684	32903	35270	
141	0	32660	32888	35253	
142	0	32692	32903	35275	
143	0	32832	32836	35270	
144	0	32872	32868	35257	
145	0	32844	32868	35257	
146	0	32917	32856	35237	
147	0	33024	32798	35264	
148	0	33072	32909	35252	
149	0	32989	32864	35245	
150	0	33004	32740	35244	
151	0	32932	32886	35261	
152	0	32825	32892	35231	
153	0	32800	32817	35232	
154	0	32684	32761	35216	
155	0	32620	32856	35232	
156	0	32552	32766	35224	
157	0	32512	32849	35224	
158	0	32514	32832	35236	
159	0	32600	32803	35252	
160	0	32672	32764	35244	
161	0	32776	32848	35260	
162	0	32781	32807	35231	
163	0	32780	32788	35240	
164	0	32828	32857	35236	
165	0	33000	32776	35216	
166	0	32968	32775	35225	
167	0	32985	32708	35240	
168	0	33000	32751	35220	
169	0	32984	32720	35236	
170	0	32960	32756	35232	
171	0	32881	32821	35220	
172	0	32820	32793	35212	
173	0	32748	32813	35222	
174	0	32692	32760	35220	
175	0	32644	32684	35232	
176	0	32580	32824	35229	
177	0	32561	32796	35255	
178	0	32548	32841	35256	
179	0	32608	32908	35248	
180	0	32554	32775	35268	
181	0	32720	32765	35233	
182	0	32676	32800	35212	
183	0	32854	32786	35204	
184	0	32892	32852	35196	
185	0	32932	32900	35206	
186	0	33004	32832	35208	
187	0	32988	32864	35206	
188	0	32970	32924	35196	
189	0	32972	32856	35176	
190	0	32970	32849	35204	
191	0	32936	32945	35212	
192	0	32832	32869	35212	
193	0	32772	32812	35234	
194	0	32733	32923	35220	
195	0	32636	32836	35206	
196	0	32596	32732	35204	
197	0	32524	32790	35232	
198	0	32604	32776	35236	
199	0	32556	32880	35216	
200	0	32645	32820	35228	
201	0	32712	32772	35220	
202	0	32752	32788	35228	
203	0	32759	32844	35225	
204	0	32868	32884	35220	
205	0	33012	32801	35223	
206	0	32956	32844	35228	
207	0	33036	32844	35212	
208	0	32992	32745	35212	
209	0	32988	32792	35188	
210	0	32976	32802	35200	
211	0	32912	32746	35199	
212	0	32836	32856	35225	
213	0	32772	32928	35232	
214	0	32704	32788	35229	
215	0	32626	32840	35210	
216	0	32548	32936	35216	
217	0	32540	32938	35216	
218	0	32550	32897	35212	
219	0	32548	32866	35220	
220	0	32669	32911	35212	
221	0	32720	32964	35225	
222	0	32804	32842	35221	
223	0	32793	32896	35206	
224	0	32820	32836	35194	
225	0	32884	32760	35198	
226	0	32876	32807	35210	
227	0	32948	32900	35220	
228	0	33072	32804	35204	
229	0	33048	32752	35204	
230	0	33016	32688	35207	
231	0	32956	32744	35216	
232	0	32900	32844	35240	
233	0	32720	32824	35229	
234	0	32716	32952	35236	
235	0	32624	32881	35256	
236	0	32540	32792	35254	
237	0	32572	32964	35264	
238	0	32512	32844	35266	
239	0	32580	32940	35278	
240	0	32580	32792	35284	
241	0	32677	32873	35300	
242	0	32716	32868	35268	
243	0	32864	32844	35244	
244	0	32918	32861	35240	
245	0	32904	32824	35232	
246	0	33064	32780	35252	
247	0	33048	32788	35244	
248	0	32981	32800	35237	
249	0	33032	32772	35241	
250	0	32928	32736	35251	
251	0	33017	32730	35248	
252	0	32752	32777	35229	
253	0	32564	32833	35243	
254	0	32689	32756	35251	
255	0	32736	32752	35257	
256	0	32636	32805	35252	
257	0	32540	32892	35224	
258	0	32600	32876	35208	
259	0	32608	32927	35232	
260	0	32642	32886	35218	
261	0	32668	32821	35224	
262	0	32796	32826	35200	
263	0	32876	32868	35196	
264	0	32898	32775	35212	
265	0	32929	32808	35238	
266	0	32956	32832	35225	
267	0	33000	32701	35220	
268	0	33024	32736	35212	
269	0	33069	32840	35198	
270	0	32949	32748	35212	
271	0	32864	32812	35213	
272	0	32868	32840	35216	
273	0	32784	32868	35217	
274	0	32692	32912	35230	
275	0	32620	32890	35229	
276	0	32600	32912	35236	
277	0	32580	32841	35240	
278	0	32564	32776	35249	
279	0	32568	32860	35250	
280	0	32608	32809	35218	
281	0	32645	32720	35230	
282	0	32621	32764	35216	
283	0	32876	32839	35214	
284	0	32852	32800	35216	
285	0	32916	32768	35218	
286	0	33002	32792	35223	
287	0	32988	32820	35212	
288	0	32976	32792	35201	
289	0	33012	32885	35201	
290	0	32956	32868	35228	
291	0	32920	32866	35224	
292	0	32845	32832	35233	
293	0	32732	32853	35236	
294	0	32660	32869	35248	
295	0	32578	32900	35269	
296	0	32588	32900	35279	
297	0	32538	32864	35276	
298	0	32588	32860	35266	
299	0	32628	32796	35234	
300	0	32588	32853	35230	
301	0	32688	32878	35222	
302	0	32765	32911	35220	
303	0	32832	32873	35221	
304	0	32916	32812	35208	
305	0	32897	32869	35205	
306	0	32900	32897	35204	
307	0	33054	32878	35204	
308	0	33000	32805	35212	
309	0	32969	32780	35216	
310	0	32940	32773	35203	
311	0	32896	32857	35228	
312	0	32925	32816	35240	
313	0	32817	32756	35241	
314	0	32684	32900	35242	
315	0	32636	32863	35260	
316	0	32540	32832	35240	
317	0	32516	32880	35232	
318	0	32592	32910	35221	
319	0	32586	32792	35228	
320	0	32632	32737	35238	
321	0	32636	32841	35236	
322	0	32706	32741	35236	
323	0	32832	32708	35236	
324	0	32914	32761	35224	
325	0	32921	32782	35214	
326	0	32984	32821	35216	
327	0	33076	32868	35217	
328	0	33040	32772	35232	
329	0	33020	32732	35228	
330	0	32942	32804	35220	
331	0	32889	32824	35224	
332	0	32817	32744	35232	
333	0	32756	32824	35245	
334	0	32652	32864	35230	
335	0	32624	32804	35254	
336	0	32568	32820	35249	
337	0	32520	32934	35268	
338	0	32488	32899	35285	
339	0	32570	32864	35275	
340	0	32612	32849	35268	
341	0	32634	32794	35256	
342	0	32758	32785	35268	
343	0	32944	32884	35256	
344	0	32944	32958	35215	
345	0	32940	32852	35220	
346	0	32936	32784	35232	
347	0	32909	32760	35216	
348	0	33016	32850	35204	
349	0	32961	32740	35200	
350	0	32956	32769	35196	
351	0	32912	32886	35213	
352	0	32828	32865	35228	
353	0	32761	32885	35204	
354	0	32716	32900	35224	
355	0	32676	32880	35212	
356	0	32668	32863	35206	
357	0	32580	32870	35211	
358	0	32504	32890	35212	
359	0	32580	32824	35188	
360	0	32584	32796	35204	
361	0	32657	32856	35176	
362	0	32740	32860	35208	
363	0	32752	32792	35196	
364	0	32858	32901	35188	
365	0	32964	32808	35198	
366	0	32956	32751	35196	
367	0	32970	32785	35188	
368	0	32992	32844	35181	
369	0	33008	32805	35173	
370	0	33008	32756	35204	
371	0	32872	32837	35204	
372	0	32836	32732	35216	
373	0	32812	32869	35220	
374	0	32668	32948	35200	
375	0	32604	32815	35217	
376	0	32580	32873	35230	
377	0	32520	32916	35228	
378	0	32585	32804	35236	
379	0	32544	32812	35237	
380	0	32578	32942	35250	
381	0	32760	32864	35264	
382	0	32748	32783	35228	
383	0	32819	32808	35224	
384	0	33085	32840	35204	
385	0	33048	32838	35205	
386	0	32932	32725	35226	
387	0	32962	32728	35221	
388	0	32948	32705	35238	
389	0	32964	32744	35230	
390	0	33028	32790	35240	
391	0	32912	32856	35240	
392	0	32808	32834	35252	
393	0	32769	32784	35288	
394	0	32688	32932	35284	
395	0	32624	33012	35278	
396	0	32569	32920	35248	
397	0	32552	32824	35241	
398	0	32568	32852	35254	
399	0	32612	32932	35264	
400	0	32688	32880	35261	
401	0	32640	32788	35252	
402	0	32698	32826	35252	
403	0	32796	32842	35257	
404	0	32868	32932	35252	
405	0	32894	32839	35247	
406	0	33008	32765	35236	
407	0	33044	32801	35226	
408	0	32969	32860	35231	
409	0	32988	32817	35236	
410	0	33056	32736	35213	
411	0	32905	32874	35220	
412	0	32860	32858	35229	
413	0	32738	32869	35236	
414	0	32720	32865	35248	
415	0	32676	32837	35236	
416	0	32596	32820	35253	
417	0	32573	32916	35246	
418	0	32582	32904	35258	
419	0	32569	32792	35240	
420	0	32512	33013	35228	
421	0	32576	32902	35232	
422	0	32648	32860	35231	
423	0	32672	32841	35228	
424	0	32856	32798	35210	
425	0	33096	32838	35224	
426	0	33108	32784	35225	
427	0	33060	32740	35216	
428	0	33004	32812	35216	
429	0	33016	32724	35228	
430	0	32967	32757	35228	
431	0	32910	32838	35228	
432	0	32744	32854	35220	
433	0	32600	32824	35228	
434	0	32716	32830	35232	
435	0	32716	32804	35220	
436	0	32721	32810	35244	
437	0	32568	32878	35240	
438	0	32568	32820	35225	
439	0	32620	32805	35232	
440	0	32600	32942	35240	
441	0	32685	32868	35225	
442	0	32726	32788	35236	
443	0	32822	32828	35232	
444	0	32894	32924	35239	
445	0	32900	32889	35249	
446	0	32993	32816	35244	
447	0	33028	32794	35238	
448	0	32988	32744	35212	
449	0	32992	32912	35208	
450	0	32903	32856	35212	
451	0	32824	32716	35226	
452	0	32816	32808	35228	
453	0	32816	32824	35228	
454	0	32724	32833	35252	
455	0	32620	32836	35272	
456	0	32568	32872	35278	
457	0	32573	32921	35264	
458	0	32564	32808	35260	
459	0	32612	32756	35252	
460	0	32760	32816	35236	
461	0	32724	32768	35228	
462	0	32708	32793	35231	
463	0	32781	32886	35220	
464	0	32896	32756	35221	
465	0	32890	32848	35222	
466	0	33013	32856	35228	
467	0	33024	32764	35217	
468	0	33017	32837	35208	
469	0	33016	32783	35209	
470	0	32992	32885	35208	
471	0	32884	32868	35200	
472	0	32800	32838	35200	
473	0	32736	32822	35208	
474	0	32704	32888	35237	
475	0	32612	32848	35253	
476	0	32532	32884	35240	
477	0	32566	32946	35220	
478	0	32560	32838	35217	
479	0	32624	32793	35236	
480	0	32637	32820	35236	
481	0	32672	32812	35236	
482	0	32708	32877	35229	
483	0	32792	32866	35251	
484	0	32876	32884	35208	
485	0	32984	32756	35228	
486	0	32956	32823	35212	
487	0	33056	32840	35228	
488	0	33052	32868	35244	
489	0	33025	32764	35253	
490	0	32940	32772	35229	
491	0	32932	32876	35216	
492	0	32832	32892	35222	
493	0	32780	32835	35246	
494	0	32694	32838	35251	
495	0	32628	32826	35249	
496	0	32528	32892	35245	
497	0	32564	32821	35244	
498	0	32560	32854	35236	
499	0	32640	32852	35248	
500	0	32644	32800	35256	
501	0	32580	32808	35237	
502	0	32760	32788	35228	
503	0	32783	32858	35218	
504	0	32836	32864	35220	
505	0	32888	32780	35215	
506	0	32902	32868	35208	
507	0	32992	32836	35208	
508	0	33048	32754	35206	
509	0	33008	32909	35220	
510	0	33028	32844	35201	
511	0	33000	32744	35212	
512	0	32840	32864	35236	
513	0	32748	32836	35232	
514	0	32658	32808	35262	
515	0	32650	32944	35252	
516	0	32536	32799	35252	
517	0	32546	32820	35241	
518	0	32570	32876	35260	
519	0	32617	32868	35256	
520	0	32625	32767	35253	
521	0	32616	32820	35268	
522	0	32720	32842	35272	
523	0	32840	32769	35248	
524	0	32908	32784	35228	
525	0	32888	32726	35228	
526	0	32996	32894	35233	
527	0	32976	32920	35244	
528	0	33033	32892	35228	
529	0	33048	32781	35232	
530	0	33020	32892	35212	
531	0	32927	32801	35224	
532	0	32816	32826	35228	
533	0	32804	32836	35248	
534	0	32608	32720	35234	
535	0	32572	32798	35218	
536	0	32464	32884	35212	
537	0	32416	32880	35200	
538	0	32520	32783	35207	
539	0	32641	32797	35212	
540	0	32772	32847	35229	
541	0	32737	32775	35220	
542	0	32808	32829	35209	
543	0	32804	32731	35208	
544	0	32844	32786	35212	
545	0	32900	32900	35188	
546	0	32901	32824	35173	
547	0	32961	32821	35197	
548	0	33049	32855	35196	
549	0	33034	32840	35181	
550	0	32960	32860	35200	
551	0	32904	32852	35212	
552	0	32901	32898	35213	
553	0	32740	32836	35216	
554	0	32688	32792	35204	
555	0	32645	32846	35184	
556	0	32596	32917	35194	
557	0	32512	32850	35228	
558	0	32504	32840	35231	
559	0	32606	32903	35196	
560	0	32604	32832	35206	
561	0	32648	32800	35202	
562	0	32684	32828	35212	
563	0	32832	32933	35216	
564	0	32844	32900	35220	
565	0	32936	32756	35208	
566	0	32992	32812	35218	
567	0	33004	32816	35226	
568	0	33020	32804	35246	
569	0	33052	32728	35264	
570	0	32964	32792	35277	
571	0	32916	32827	35267	
572	0	32908	32780	35277	
573	0	32708	32785	35277	
574	0	32684	32881	35284	
575	0	32640	32885	35308	
576	0	32589	32927	35302	
577	0	32548	32918	35305	
578	0	32529	32856	35288	
579	0	32584	32917	35274	
580	0	32632	32865	35289	
581	0	32676	32805	35246	
582	0	32784	32860	35269	
583	0	32784	32820	35271	
584	0	32944	32851	35242	
585	0	32988	32884	35228	
586	0	32960	32749	35208	
587	0	32972	32780	35215	
588	0	33008	32756	35205	
589	0	32992	32831	35176	
590	0	32964	32797	35156	
591	0	32901	32724	35158	
592	0	32816	32800	35164	
593	0	32752	32792	35144	
594	0	32677	32748	35180	
595	0	32574	32868	35185	
596	0	32584	32896	35222	
597	0	32652	32840	35208	
598	0	32704	32812	35210	
599	0	32516	32877	35199	
600	0	32532	32780	35188	
601	0	32677	32804	35192	
602	0	32724	32877	35201	
603	0	32764	32796	35215	
604	0	32824	32780	35216	
605	0	32881	32806	35225	
606	0	32956	32809	35197	
607	0	33012	32820	35184	
608	0	32976	32796	35200	
609	0	33060	32824	35178	
610	0	33024	32775	35194	
611	0	32928	32734	35196	
612	0	32916	32826	35193	
613	0	32816	32876	35210	
614	0	32744	32830	35238	
615	0	32548	32788	35224	
616	0	32501	32996	35214	
617	0	32617	32877	35208	
618	0	32496	32801	35216	
619	0	32472	32827	35228	
620	0	32576	32869	35229	
621	0	32580	32805	35244	
622	0	32688	32775	35261	
623	0	32792	32841	35230	
624	0	32952	32903	35232	
625	0	33012	32844	35207	
626	0	33132	32780	35221	
627	0	33308	32865	35212	
628	0	33200	32892	35229	
629	0	32896	32964	35212	
630	0	32833	32852	35204	
631	0	32836	32812	35236	
632	0	32716	32704	35248	
633	0	32652	32806	35249	
634	0	32684	32935	35268	
635	0	32785	32708	35289	
636	0	32728	32788	35294	
637	0	32593	32608	35284	
638	0	32712	32680	35276	
639	0	32680	33220	35272	
640	0	32696	33122	35288	
641	0	32764	32636	35304	
642	0	32837	32757	35309	
643	0	32808	32996	35281	
644	0	32718	33065	35302	
645	0	32786	33087	35280	
646	0	32736	32608	35276	
647	0	32792	32728	35285	
648	0	32892	32892	35301	
649	0	33025	32827	35325	
650	0	33112	32652	35334	
651	0	33032	32600	35239	
652	0	32984	32519	35148	
653	0	32960	32601	35132	
654	0	32876	33027	35128	
655	0	32600	33104	35133	
656	0	32460	33400	35164	
657	0	32388	33329	35236	
658	0	32452	32962	35270	
659	0	32473	32548	35328	
660	0	32592	32449	35364	
661	0	32673	32724	35380	
662	0	32632	32921	35356	
663	0	32620	32452	35357	
664	0	32796	32685	35344	
665	0	32886	33024	35292	
666	0	32880	33188	35252	
667	0	33061	33256	35197	
668	0	33312	32948	35149	
669	0	33124	32921	35114	
670	0	33064	32974	35040	
671	0	33088	32844	34935	
672	0	33064	32800	34823	
673	0	32888	32856	34786	
674	0	32582	32844	34844	
675	0	32373	32796	34917	
676	0	32370	32903	35008	
677	0	32397	32812	35128	
678	0	32572	32812	35264	
679	0	32484	33088	35361	
680	0	32521	33064	35464	
681	0	32656	33084	35538	
682	0	33084	32934	35534	
683	0	32884	32220	35508	
684	0	32644	31860	35444	
685	0	32800	31474	35417	
686	0	32716	31796	35377	
687	0	32928	32973	35326	
688	0	32952	33193	35257	
689	0	32988	34524	35229	
690	0	33046	34332	35202	
691	0	33084	33753	35169	
692	0	32980	32984	35177	
693	0	32884	31865	35148	
694	0	33012	32460	35116	
695	0	32832	33249	35036	
696	0	32749	34253	34854	
697	0	32712	35228	34756	
698	0	32512	34449	34697	
699	0	32560	32324	34660	
700	0	32528	30642	34624	
701	0	32540	29964	34621	
702	0	32420	31568	34613	
703	0	32348	32942	34648	
704	0	32496	33799	34676	
705	0	32608	32909	34716	
706	0	32777	32252	34769	
707	0	32956	32752	34826	
708	0	32940	34060	34864	
709	0	33104	35704	34896	
710	0	32904	35208	34980	
711	0	32669	35581	35064	
712	0	32684	35312	35148	
713	0	33084	34390	35196	
714	0	33440	33132	35269	
715	0	33375	31116	35254	
716	0	33204	30340	35216	
717	0	33176	29452	35149	
718	0	32920	29744	35032	
719	0	32688	29593	34848	
720	0	32408	30724	34708	
721	0	32085	32998	34592	
722	0	31836	34544	34500	
723	0	31606	34212	34406	
724	0	31470	34260	34292	
725	0	31360	32884	34225	
726	0	31700	31859	34204	
727	0	32224	32105	34200	
728	0	32960	33420	34144	
729	0	34036	33308	34080	
730	0	34636	32944	33945	
731	0	33802	32516	33872	
732	0	33192	33812	33860	
733	0	32788	32464	33854	
734	0	32608	30968	33895	
735	0	32168	31694	33952	
736	0	32460	34036	34070	
737	0	33476	36421	34108	
738	0	34492	36084	34076	
739	0	35840	34189	34148	
740	0	36000	33596	34164	
741	0	34610	33492	34084	
742	0	33568	33020	33930	
743	0	32141	32026	33848	
744	0	30448	31892	33781	
745	0	29212	32332	33696	
746	0	28760	32730	33581	
747	0	28792	33670	33488	
748	0	27280	32340	33360	
749	0	27796	33328	33332	
750	0	29782	34384	33281	
751	0	31776	34361	33254	
752	0	34600	34668	33276	
753	0	37053	33542	33224	
754	0	38696	32588	33252	
755	0	39816	30892	33238	
756	0	40652	30960	33308	
757	0	39769	30936	33356	
758	0	38116	30788	33446	
759	0	35684	31390	33580	
760	0	33304	31980	33686	
761	0	30416	32869	33787	
762	0	28276	32904	33920	
763	0	27784	31476	33944	
764	0	28360	30380	33894	
765	0	29276	30045	33766	
766	0	30317	32144	33668	
767	0	30546	31836	33549	
768	0	31980	31169	33477	
769	0	33464	31320	33444	
770	0	34168	30413	33397	
771	0	34256	30076	33407	
772	0	34192	32601	33420	
773	0	34308	33784	33460	
774	0	33212	34324	33524	
775	0	31748	33596	33526	
776	0	31328	33828	33528	
777	0	30864	33412	33475	
778	0	31316	32402	33472	
779	0	31604	31180	33524	
780	0	31848	32663	33532	
781	0	33168	33636	33604	
782	0	33776	32579	33714	
783	0	34256	33377	33828	
784	0	34313	33448	33980	
785	0	34616	33388	34085	
786	0	34116	33974	34188	
787	0	33856	33051	34316	
788	0	33024	34663	34440	
789	0	32248	38484	34596	
790	0	32048	37154	34704	
791	0	33004	33998	34788	
792	0	31986	30224	34842	
793	0	30948	25744	34852	
794	0	31220	24038	34864	
795	0	32096	29676	34888	
796	0	32976	35488	34920	
797	0	33677	40416	34948	
798	0	34516	38996	34980	
799	0	35020	35454	34999	
800	0	34936	31045	34960	
801	0	33964	26525	34916	
802	0	32844	28368	34832	
803	0	31474	29767	34724	
804	0	30657	32408	34633	
805	0	30224	33710	34540	
806	0	30548	33249	34428	
807	0	30870	36508	34314	
808	0	31288	36053	34220	
809	0	31920	34762	34116	
810	0	32928	32783	34017	
811	0	33124	30404	33956	
812	0	33473	29966	33920	
813	0	34076	27788	33914	
814	0	34173	27874	34068	
815	0	33966	30482	34081	
816	0	33416	31164	33992	
817	0	32485	30388	33820	
818	0	31940	31144	33632	
819	0	32152	32727	33428	
820	0	32596	34278	33220	
821	0	33076	34000	33040	
822	0	33432	34868	32932	
823	0	33984	32570	32894	
824	0	33752	32161	32908	
825	0	32937	32704	32962	
826	0	32328	35196	33046	
827	0	32428	32782	33133	
828	0	32524	33488	33248	
829	0	32456	37604	33374	
830	0	32240	38060	33513	
831	0	32256	36880	33649	
832	0	32392	32448	33776	
833	0	32492	29756	33903	
834	0	32568	31076	34034	
835	0	32548	28312	34148	
836	0	32744	31300	34240	
837	0	32976	33378	34325	
838	0	33224	35146	34386	
839	0	32684	33220	34448	
840	0	32472	33016	34504	
841	0	32550	32645	34512	
842	0	32956	31576	34520	
843	0	33080	31209	34514	
844	0	33233	33452	34522	
845	0	33200	34532	34510	
846	0	33132	33252	34488	
847	0	33072	33566	34481	
848	0	33036	32860	34464	
849	0	32888	32412	34420	
850	0	32796	29968	34380	
851	0	32632	29124	34337	
852	0	32457	31432	34272	
853	0	32813	38784	34193	
854	0	32590	40156	34076	
855	0	32860	37824	33928	
856	0	32600	35086	33756	
857	0	32224	29248	33557	
858	0	32328	25448	33300	
859	0	32432	25751	33012	
860	0	32580	30353	32664	
861	0	32893	34219	32340	
862	0	33529	35132	32010	
863	0	34108	32708	31664	
864	0	34128	36008	31332	
865	0	33504	34378	31024	
866	0	33057	32012	30745	
867	0	32760	32454	30486	
868	0	32168	30928	30252	
869	0	31928	33188	30048	
870	0	31808	34552	29872	
871	0	32000	32676	29766	
872	0	32160	31660	29699	
873	0	32344	30598	29632	
874	0	32588	30108	29612	
875	0	32962	29753	29664	
876	0	33128	28548	29716	
877	0	33168	28714	29816	
878	0	33433	30876	29912	
879	0	33508	34548	30046	
880	0	33176	36996	30214	
881	0	33008	39180	30400	
882	0	32648	36809	30632	
883	0	32488	33832	30896	
884	0	32456	32374	31172	
885	0	32668	31572	31432	
886	0	33045	29848	31725	
887	0	33096	31560	32008	
888	0	32932	32852	32312	
889	0	33029	30990	32604	
890	0	33029	32960	32864	
891	0	32941	36468	33136	
892	0	32688	35208	33393	
893	0	32568	35204	33608	
894	0	33068	33068	33837	
895	0	32780	31333	34098	
896	0	32341	31751	34342	
897	0	32112	33121	34559	
898	0	32182	33330	34748	
899	0	32345	32176	34908	
900	0	32414	33254	35044	
901	0	32586	33645	35156	
902	0	32864	33929	35228	
903	0	32932	34349	35269	
904	0	33064	34228	35320	
905	0	33368	33284	35348	
906	0	33444	32684	35364	
907	0	33334	31064	35398	
908	0	33076	30560	35440	
909	0	32896	32625	35488	
910	0	33008	33300	35534	
911	0	32924	32372	35591	
912	0	32828	31694	35655	
913	0	32465	33018	35693	
914	0	32644	32804	35716	
915	0	33042	32536	35719	
916	0	32980	30756	35670	
917	0	32368	30360	35600	
918	0	31881	31998	35508	
919	0	32048	35644	35381	
920	0	32280	36852	35212	
921	0	32292	32921	35026	
922	0	32328	32205	34793	
923	0	33240	31620	34576	
924	0	33632	32500	34294	
925	0	33988	39848	34048	
926	0	34041	39476	33760	
927	0	33733	32865	33532	
928	0	33432	29966	33302	
929	0	33172	28080	33087	
930	0	33012	30196	32917	
931	0	32826	35145	32744	
932	0	32621	36136	32618	
933	0	32516	32432	32503	
934	0	32188	33712	32417	
935	0	31892	33000	32332	
936	0	31673	35180	32252	
937	0	31534	29720	32172	
938	0	31652	26881	32112	
939	0	31884	31496	32056	
940	0	31876	32549	31984	
941	0	32296	34345	31930	
942	0	32628	32952	31872	
943	0	32788	34020	31812	
944	0	33180	34372	31722	
945	0	34196	28516	31612	
946	0	33976	31316	31500	
947	0	34484	32602	31376	
948	0	34769	33817	31265	
949	0	34472	33760	31140	
950	0	33082	32108	31001	
951	0	32336	31374	30897	
952	0	31972	33284	30809	
953	0	31896	36700	30757	
954	0	31230	35632	30684	
955	0	31688	33100	30636	
956	0	31853	30529	30640	
957	0	32104	30637	30648	
958	0	32636	32580	30680	
959	0	33040	32250	30732	
960	0	32880	32404	30790	
961	0	32372	32340	30874	
962	0	32632	32977	30991	
963	0	32972	34177	31092	
964	0	33440	33212	31226	
965	0	33680	32522	31385	
966	0	33860	31448	31528	
967	0	33972	31280	31706	
968	0	33833	31033	31852	
969	0	33604	30548	32038	
970	0	33472	32469	32226	
971	0	32960	34508	32408	
972	0	32324	35768	32576	
973	0	31885	36280	32736	
974	0	31360	35130	32880	
975	0	31176	32320	32992	
976	0	31190	31927	33068	
977	0	31316	33680	33136	
978	0	31728	34808	33168	
979	0	32121	32592	33160	
980	0	32205	30380	33119	
981	0	32548	29484	33074	
982	0	32804	32324	33020	
983	0	32944	32830	32946	
984	0	33772	33048	32866	
985	0	34252	34674	32760	
986	0	34408	34012	32662	
987	0	34580	33316	32572	
988	0	34392	34936	32492	
989	0	34064	33012	32436	
990	0	33648	32160	32344	
991	0	33144	31213	32288	
992	0	32556	29296	32252	
993	0	32156	30568	32206	
994	0	31616	32144	32168	
995	0	31316	36812	32116	
996	0	30820	36004	32120	
997	0	31072	32034	32108	
998	0	32004	32256	32089	
999	0	32808	32026	32062	
1000	0	32854	35428	32048	
1001	0	32936	34788	32033	
1002	0	33468	34168	32004	
1003	0	33402	31060	31976	
1004	0	33537	32856	31976	
1005	0	33596	32884	31992	
1006	0	33716	32924	31988	
1007	0	33625	32536	31988	
1008	0	33720	32064	32008	
1009	0	34000	29847	32040	
1010	0	33936	31436	32072	
1011	0	33336	31848	32136	
1012	0	32910	32858	32232	
1013	0	32700	31765	32324	
1014	0	31780	33588	32424	
1015	0	31080	34788	32540	
1016	0	31016	33924	32646	
1017	0	31256	32910	32808	
1018	0	31424	30968	32929	
1019	0	32208	31156	33036	
1020	0	32204	36052	33112	
1021	0	32392	32484	33204	
1022	0	32693	30740	33252	
1023	0	33584	30522	33249	
1024	0	34496	29740	33221	
1025	0	34505	32529	33168	
1026	0	34158	36968	33076	
1027	0	33624	35977	32981	
1028	0	33536	31388	32830	
1029	0	33765	31404	32660	
1030	0	33696	33460	32524	
1031	0	32912	35272	32384	
1032	0	32368	31548	32244	
1033	0	32228	33504	32096	
1034	0	32244	38289	31969	
1035	0	33384	36412	31840	
1036	0	32749	32154	31728	
1037	0	31044	31044	31601	
1038	0	31152	32352	31479	
1039	0	31496	29812	31424	
1040	0	31768	30622	31337	
1041	0	31928	30592	31300	
1042	0	32272	32152	31261	
1043	0	31892	32263	31240	
1044	0	32512	30948	31241	
1045	0	33120	34180	31286	
1046	0	33516	37952	31316	
1047	0	33860	37734	31361	
1048	0	33876	33692	31393	
1049	0	33616	33108	31480	
1050	0	33636	30572	31576	
1051	0	33490	29658	31644	
1052	0	32980	34532	31729	
1053	0	32528	35761	31810	
1054	0	32224	33384	31908	
1055	0	31232	32278	31996	
1056	0	30476	29872	32096	
1057	0	30770	29744	32168	
1058	0	31888	33888	32252	
1059	0	32780	34510	32300	
1060	0	33276	33470	32344	
1061	0	34356	32568	32396	
1062	0	34902	33262	32400	
1063	0	34039	33024	32386	
1064	0	33044	34266	32352	
1065	0	33164	34724	32333	
1066	0	33464	33606	32320	
1067	0	33401	32525	32281	
1068	0	33280	31812	32262	
1069	0	32968	30048	32200	
1070	0	33028	28025	32156	
1071	0	33380	31900	32076	
1072	0	33076	35665	31980	
1073	0	32332	36247	31912	
1074	0	32112	33703	31866	
1075	0	32300	34241	31789	
1076	0	31872	33072	31720	
1077	0	31728	30688	31672	
1078	0	31844	28897	31604	
1079	0	32000	33064	31544	
1080	0	32216	35224	31524	
1081	0	32524	35260	31512	
1082	0	32820	32852	31497	
1083	0	33148	30912	31509	
1084	0	33406	32362	31516	
1085	0	33632	36328	31504	
1086	0	33744	36580	31480	
1087	0	33688	36436	31497	
1088	0	33441	31288	31484	
1089	0	33264	33130	31476	
1090	0	33249	30444	31510	
1091	0	32978	31812	31516	
1092	0	32664	30831	31513	
1093	0	32152	32032	31504	
1094	0	31616	32093	31516	
1095	0	31549	30556	31520	
1096	0	31532	31438	31524	
1097	0	31540	32172	31500	
1098	0	33320	33516	31508	
1099	0	33948	33701	31528	
1100	0	33004	34796	31576	
1101	0	33062	35012	31621	
1102	0	33284	33677	31668	
1103	0	32992	32460	31756	
1104	0	32772	30528	31840	
1105	0	32961	34648	31908	
1106	0	33328	33856	31996	
1107	0	33174	32092	32079	
1108	0	33193	30804	32157	
1109	0	33428	31729	32240	
1110	0	33356	32761	32314	
1111	0	33108	35917	32374	
1112	0	32780	37652	32452	
1113	0	32583	34076	32508	
1114	0	32238	31921	32548	
1115	0	32012	34796	32580	
1116	0	31956	32612	32566	
1117	0	32004	30341	32544	
1118	0	32120	29904	32527	
1119	0	32092	34010	32480	
1120	0	32244	34580	32417	
1121	0	32408	31940	32354	
1122	0	32797	31440	32310	
1123	0	33096	32132	32256	
1124	0	33236	33752	32192	
1125	0	33308	35668	32140	
1126	0	33372	33100	32068	
1127	0	33440	35336	32030	
1128	0	33449	35214	31986	
1129	0	33330	33463	31964	
1130	0	33242	31628	31952	
1131	0	32845	29508	31948	
1132	0	32492	32289	31933	
1133	0	32505	33188	31920	
1134	0	32412	31592	31877	
1135	0	32420	30132	31840	
1136	0	33432	32041	31797	
1137	0	32572	33448	31761	
1138	0	32236	35922	31721	
1139	0	32276	34804	31684	
1140	0	31965	31769	31636	
1141	0	31808	32800	31592	
1142	0	32132	35976	31569	
1143	0	32536	36620	31576	
1144	0	33264	32892	31560	
1145	0	33316	29242	31556	
1146	0	33120	30301	31544	
1147	0	33572	31744	31556	
1148	0	33296	33028	31517	
1149	0	32336	33036	31458	
1150	0	32361	34296	31405	
1151	0	32992	33912	31324	
1152	0	33708	33008	31268	
1153	0	33900	33992	31236	
1154	0	33932	33585	31188	
1155	0	33828	32968	31136	
1156	0	32891	32591	31100	
1157	0	31604	31349	31072	
1158	0	31632	32172	31078	
1159	0	31852	34232	31066	
1160	0	32025	33711	31064	
1161	0	32213	35464	31089	
1162	0	32568	34118	31138	
1163	0	32748	33636	31172	
1164	0	32968	32604	31213	
1165	0	33196	31432	31268	
1166	0	33260	32012	31308	
1167	0	33240	32772	31324	
1168	0	33259	36580	31344	
1169	0	33204	38004	31361	
1170	0	33152	37604	31348	
1171	0	33168	36682	31356	
1172	0	32656	33460	31328	
1173	0	32344	31928	31304	
1174	0	32196	32173	31290	
1175	0	32124	32636	31302	
1176	0	32128	31424	31288	
1177	0	32652	31124	31300	
1178	0	33476	30332	31313	
1179	0	32844	27505	31318	
1180	0	32252	30697	31328	
1181	0	32376	35548	31348	
1182	0	32652	35944	31356	
1183	0	32856	38640	31377	
1184	0	33088	37552	31404	
1185	0	33128	32537	31428	
1186	0	33122	31256	31436	
1187	0	33172	31461	31464	
1188	0	33068	31396	31492	
1189	0	32946	30308	31496	
1190	0	32810	31334	31488	
1191	0	32869	32090	31492	
1192	0	32707	31769	31476	
1193	0	32512	31444	31460	
1194	0	33120	31854	31454	
1195	0	33228	31948	31470	
1196	0	33268	32073	31494	
1197	0	32612	32000	31506	
1198	0	32108	32106	31540	
1199	0	32057	31520	31566	
1200	0	32200	32464	31583	
1201	0	32300	32828	31616	
1202	0	32640	32181	31637	
1203	0	32728	32953	31672	
1204	0	32869	33496	31700	
1205	0	33068	33724	31712	
1206	0	33136	32104	31760	
1207	0	33252	31736	31769	
1208	0	33304	32470	31752	
1209	0	33260	32556	31744	
1210	0	33209	33936	31762	
1211	0	33068	32288	31732	
1212	0	32897	31980	31708	
1213	0	32820	34927	31725	
1214	0	32542	32820	31706	
1215	0	32330	33492	31680	
1216	0	32342	28608	31648	
1217	0	32144	30837	31661	
1218	0	32068	35868	31628	
1219	0	32264	35029	31614	
1220	0	32224	34245	31605	
1221	0	32300	31849	31614	
1222	0	32476	32454	31638	
1223	0	33184	30096	31640	
1224	0	33620	30496	31653	
1225	0	33260	34794	31672	
1226	0	33196	33120	31672	
1227	0	33228	32332	31673	
1228	0	33340	35504	31680	
1229	0	33585	32776	31644	
1230	0	33512	31454	31637	
1231	0	33161	32084	31626	
1232	0	32892	29785	31616	
1233	0	32452	36698	31632	
1234	0	32332	36826	31648	
1235	0	32172	31140	31652	
1236	0	32153	30173	31663	
1237	0	32084	30632	31714	
1238	0	32020	32660	31730	
1239	0	32184	35874	31761	
1240	0	32488	34240	31785	
1241	0	32704	34608	31780	
1242	0	32728	32876	31780	
1243	0	32941	31766	31784	
1244	0	33201	31908	31767	
1245	0	33300	31396	31728	
1246	0	33544	30428	31708	
1247	0	33892	29552	31705	
1248	0	33373	31476	31682	
1249	0	33128	35632	31685	
1250	0	32922	35488	31733	
1251	0	32720	33620	31728	
1252	0	32732	32202	31736	
1253	0	32737	32992	31721	
1254	0	32440	33810	31708	
1255	0	32301	34972	31712	
1256	0	32224	32026	31701	
1257	0	32137	31604	31680	
1258	0	32148	30488	31644	
1259	0	32336	34112	31612	
1260	0	32504	34146	31600	
1261	0	32596	33044	31577	
1262	0	32649	31196	31569	
1263	0	32684	32720	31552	
1264	0	32848	32941	31548	
1265	0	32988	32407	31529	
1266	0	32852	32341	31504	
1267	0	33220	32592	31488	
1268	0	33632	32696	31472	
1269	0	33622	32760	31468	
1270	0	34020	32864	31432	
1271	0	33074	32990	31437	
1272	0	33172	32640	31401	
1273	0	32948	32640	31374	
1274	0	33106	32044	31317	
1275	0	32668	33377	31296	
1276	0	31952	33570	31246	
1277	0	31808	33800	31208	
1278	0	32036	32024	31178	
1279	0	32161	31592	31134	
1280	0	32277	31844	31128	
1281	0	32457	32416	31104	
1282	0	32620	31921	31090	
1283	0	32784	34516	31056	
1284	0	33056	35068	31024	
1285	0	33149	33917	31020	
1286	0	33244	34276	31020	
1287	0	33252	34709	31016	
1288	0	33294	34792	31006	
1289	0	33252	30874	30980	
1290	0	33232	31828	30978	
1291	0	33096	31832	30984	
1292	0	32958	31876	31016	
1293	0	32808	32686	31030	
1294	0	32572	35918	31048	
1295	0	32376	32132	31056	
1296	0	32296	33220	31054	
1297	0	32184	32216	31076	
1298	0	32166	31906	31105	
1299	0	32376	31110	31110	
1300	0	32415	32593	31106	
1301	0	32572	33113	31106	
1302	0	32704	33900	31117	
1303	0	32856	32830	31116	
1304	0	32760	32024	31133	
1305	0	32840	31488	31121	
1306	0	33045	32564	31152	
1307	0	33146	33572	31172	
1308	0	33152	32300	31172	
1309	0	33724	32181	31191	
1310	0	34140	34389	31196	
1311	0	33312	34232	31216	
1312	0	32768	32260	31236	
1313	0	32841	31473	31265	
1314	0	32621	32485	31304	
1315	0	32356	33160	31292	
1316	0	32240	33634	31304	
1317	0	32220	32557	31305	
1318	0	32224	34544	31316	
1319	0	32264	32460	31336	
1320	0	32328	31791	31356	
1321	0	32433	31525	31350	
1322	0	32632	30840	31374	
1323	0	32900	34340	31388	
1324	0	33080	33985	31384	
1325	0	33160	32740	31405	
1326	0	33128	31880	31420	
1327	0	33150	32304	31409	
1328	0	33208	32040	31424	
1329	0	33220	31817	31434	
1330	0	33164	33700	31476	
1331	0	32984	34257	31470	
1332	0	32764	33484	31460	
1333	0	32596	32772	31480	
1334	0	32684	32224	31486	
1335	0	32564	31284	31489	
1336	0	33116	32044	31500	
1337	0	32380	33416	31516	
1338	0	32080	34616	31488	
1339	0	32192	34081	31489	
1340	0	32278	33022	31463	
1341	0	32360	31676	31456	
1342	0	32644	31400	31446	
1343	0	32778	33597	31445	
1344	0	32928	32830	31445	
1345	0	33076	31912	31431	
1346	0	33260	32916	31445	
1347	0	33380	32092	31438	
1348	0	33348	31580	31442	
1349	0	33319	30174	31456	
1350	0	33320	29300	31485	
1351	0	33192	35496	31488	
1352	0	32845	35156	31516	
1353	0	32660	34925	31549	
1354	0	32508	33852	31560	
1355	0	32389	32549	31548	
1356	0	32261	32608	31538	
1357	0	32344	34964	31532	
1358	0	32224	34535	31513	
1359	0	32160	33668	31488	
1360	0	32276	33012	31445	
1361	0	32260	33096	31404	
1362	0	32200	32334	31380	
1363	0	32478	31904	31332	
1364	0	33317	31296	31300	
1365	0	33276	33005	31258	
1366	0	33620	33045	31236	
1367	0	34114	31756	31201	
1368	0	33676	31884	31209	
1369	0	33152	32160	31204	
1370	0	33057	30140	31212	
1371	0	32864	33688	31190	
1372	0	32660	34633	31180	
1373	0	32994	31962	31168	
1374	0	33348	33436	31156	
1375	0	32592	33130	31184	
1376	0	32192	32903	31174	
1377	0	31966	33777	31192	
1378	0	31808	33448	31180	
1379	0	31892	32806	31193	
1380	0	32007	32670	31196	
1381	0	32140	32394	31196	
1382	0	32384	33461	31212	
1383	0	33174	32514	31209	
1384	0	33856	32688	31196	
1385	0	33472	32719	31184	
1386	0	33376	30388	31197	
1387	0	33300	27892	31168	
1388	0	33448	29928	31172	
1389	0	33364	34182	31180	
1390	0	33332	39452	31180	
1391	0	33114	38892	31169	
1392	0	32832	31632	31134	
1393	0	32644	32548	31120	
1394	0	32376	33092	31092	
1395	0	32276	31927	31033	
1396	0	32133	30886	31021	
1397	0	32084	33156	31008	
1398	0	32120	33612	30988	
1399	0	32252	32949	30978	
1400	0	32316	32349	30969	
1401	0	32488	32960	31004	
1402	0	32793	32284	31042	
1403	0	32882	32392	31070	
1404	0	33064	32436	31080	
1405	0	33144	32008	31114	
1406	0	33000	33036	31136	
1407	0	33152	31668	31144	
1408	0	33281	27698	31148	
1409	0	33253	32236	31140	
1410	0	33300	31900	31146	
1411	0	33904	35280	31133	
1412	0	33244	37500	31153	
1413	0	32760	33113	31164	
1414	0	32480	31284	31162	
1415	0	32297	36613	31172	
1416	0	32168	35953	31156	
1417	0	32108	32580	31132	
1418	0	32056	30848	31132	
1419	0	32212	31081	31144	
1420	0	32268	33412	31144	
1421	0	32464	32186	31150	
1422	0	32700	31600	31145	
1423	0	32820	33798	31152	
1424	0	32885	33616	31153	
1425	0	33092	33025	31160	
1426	0	33268	32224	31160	
1427	0	33276	32360	31160	
1428	0	33408	32266	31140	
1429	0	33280	32452	31156	
1430	0	33321	33188	31148	
1431	0	33230	33263	31164	
1432	0	33208	33260	31188	
1433	0	32832	32864	31212	
1434	0	32844	32769	31244	
1435	0	32428	32670	31248	
1436	0	32324	32832	31284	
1437	0	32056	32708	31296	
1438	0	32020	32500	31292	
1439	0	32168	33248	31300	
1440	0	32208	32775	31333	
1441	0	32424	32301	31362	
1442	0	32533	30952	31388	
1443	0	32865	31724	31380	
1444	0	32794	31423	31366	
1445	0	32694	33632	31340	
1446	0	32902	32732	31338	
1447	0	33464	35544	31354	
1448	0	33876	36049	31356	
1449	0	33894	34110	31352	
1450	0	33840	31532	31376	
1451	0	33452	30558	31360	
1452	0	33296	33677	31374	
1453	0	32788	33702	31369	
1454	0	32108	31112	31380	
1455	0	31981	33876	31376	
1456	0	32096	33869	31368	
1457	0	32216	33688	31364	
1458	0	32188	33030	31360	
1459	0	32405	30136	31352	
1460	0	32364	28020	31349	
1461	0	32316	28893	31322	
1462	0	32456	33389	31268	
1463	0	32616	34351	31248	
1464	0	32976	38509	31231	
1465	0	33104	35544	31236	
1466	0	33240	33549	31248	
1467	0	33356	34436	31236	
1468	0	33356	33213	31236	
1469	0	33252	32159	31244	
1470	0	33280	32576	31252	
1471	0	33176	32736	31274	
1472	0	33008	33845	31274	
1473	0	32740	28649	31268	
1474	0	32516	28248	31298	
1475	0	32336	29174	31300	
1476	0	32260	34192	31276	
1477	0	32133	36076	31273	
1478	0	32196	35389	31260	
1479	0	32284	33808	31236	
1480	0	32396	32452	31196	
1481	0	32469	34264	31174	
1482	0	32696	31764	31126	
1483	0	32840	32584	31058	
1484	0	33040	36144	30990	
1485	0	33196	33945	30916	
1486	0	33300	32544	30855	
1487	0	33320	33653	30748	
1488	0	33340	32528	30649	
1489	0	33400	31820	30552	
1490	0	33372	31948	30460	
1491	0	33288	31602	30373	
1492	0	33030	31998	30320	
1493	0	32696	32492	30300	
1494	0	32116	32388	30328	
1495	0	31958	32578	30360	
1496	0	31964	32448	30436	
1497	0	31888	33006	30517	
1498	0	32189	32901	30628	
1499	0	32644	32440	30719	
1500	0	32533	33496	30805	
1501	0	32540	32898	30913	
1502	0	32593	33036	31013	
1503	0	33296	32376	31084	
1504	0	33652	32536	31136	
1505	0	33608	32628	31180	
1506	0	33554	32730	31226	
1507	0	33316	32594	31253	
1508	0	33268	32371	31292	
1509	0	33164	31924	31323	
1510	0	33134	33153	31324	
1511	0	32952	33744	31330	
1512	0	32792	32084	31352	
1513	0	32608	33220	31360	
1514	0	32524	34432	31396	
1515	0	32264	34372	31400	
1516	0	32320	32384	31404	
1517	0	32248	32135	31425	
1518	0	32034	32850	31420	
1519	0	32124	32344	31432	
1520	0	32324	32455	31444	
1521	0	32408	33664	31460	
1522	0	32640	31800	31476	
1523	0	32772	32257	31476	
1524	0	33029	32533	31484	
1525	0	33112	32778	31480	
1526	0	33122	34159	31488	
1527	0	33292	33640	31480	
1528	0	33460	32889	31485	
1529	0	33604	32137	31472	
1530	0	33508	30908	31460	
1531	0	33172	31159	31448	
1532	0	32864	32998	31444	
1533	0	32660	38356	31416	
1534	0	32724	33568	31403	
1535	0	32552	30832	31397	
1536	0	32276	32256	31386	
1537	0	32128	33144	31367	
1538	0	32085	32260	31345	
1539	0	32160	36704	31330	
1540	0	32308	34442	31340	
1541	0	32404	29220	31328	
1542	0	32608	31884	31330	
1543	0	32832	34577	31340	
1544	0	33092	33032	31344	
1545	0	33196	29176	31361	
1546	0	33288	32644	31364	
1547	0	33388	34464	31369	
1548	0	33444	34161	31364	
1549	0	33456	34116	31383	
1550	0	33320	33293	31372	
1551	0	33076	30812	31356	
1552	0	32812	32476	31361	
1553	0	32712	33305	31344	
1554	0	32368	32400	31372	
1555	0	32312	32454	31377	
1556	0	32224	32716	31380	
1557	0	32314	32944	31388	
1558	0	32412	32921	31384	
1559	0	32380	32760	31384	
1560	0	32313	32249	31374	
1561	0	32364	31878	31350	
1562	0	32548	32094	31322	
1563	0	32777	33568	31300	
1564	0	32980	33368	31276	
1565	0	33184	32788	31252	
1566	0	33237	33556	31242	
1567	0	33262	32116	31200	
1568	0	33376	32461	31191	
1569	0	33417	33274	31194	
1570	0	33376	32752	31193	
1571	0	33196	32760	31188	
1572	0	33000	32520	31180	
1573	0	32869	34012	31184	
1574	0	32599	31700	31205	
1575	0	32324	32445	31221	
1576	0	32276	34300	31222	
1577	0	32092	33388	31192	
1578	0	32036	32972	31188	
1579	0	32192	33236	31188	
1580	0	32304	32775	31188	
1581	0	32444	32365	31176	
1582	0	32631	32472	31184	
1583	0	32800	32713	31199	
1584	0	32813	32460	31189	
1585	0	32920	32908	31210	
1586	0	33172	33333	31216	
1587	0	33252	32336	31236	
1588	0	33408	31387	31248	
1589	0	34072	31234	31256	
1590	0	33632	34704	31276	
1591	0	33312	34124	31300	
1592	0	33116	33596	31304	
1593	0	32737	32838	31308	
1594	0	32416	32804	31312	
1595	0	32256	33276	31306	
1596	0	32076	32508	31308	
1597	0	31840	31064	31344	
1598	0	31920	32624	31365	
1599	0	32168	34703	31376	
1600	0	32204	33974	31370	
1601	0	32668	32972	31366	
1602	0	33249	31266	31364	
1603	0	32997	30900	31357	
1604	0	33098	33716	31321	
1605	0	33340	32692	31296	
1606	0	33237	31761	31288	
1607	0	33156	34438	31268	
1608	0	33196	32712	31248	
1609	0	33224	34084	31214	
1610	0	33324	31098	31180	
1611	0	33140	28245	31180	
1612	0	32984	31552	31180	
1613	0	32684	37004	31180	
1614	0	32184	38173	31180	
1615	0	31896	35311	31176	
1616	0	31753	32754	31160	
1617	0	31624	32764	31176	
1618	0	32076	32378	31161	
1619	0	33392	32846	31136	
1620	0	32900	32596	31157	
1621	0	32804	32229	31149	
1622	0	32974	31100	31136	
1623	0	33132	32249	31109	
1624	0	33249	31396	31097	
1625	0	33144	31418	31104	
1626	0	33008	33842	31109	
1627	0	33088	33489	31100	
1628	0	33254	31677	31108	
1629	0	33292	29908	31120	
1630	0	33172	33992	31132	
1631	0	33177	34223	31125	
1632	0	32932	33477	31116	
1633	0	32776	34896	31112	
1634	0	32562	34476	31130	
1635	0	32328	32756	31128	
1636	0	32184	32417	31124	
1637	0	32180	32461	31148	
1638	0	32158	33412	31172	
1639	0	32164	31670	31196	
1640	0	32244	33980	31200	
1641	0	32366	33880	31201	
1642	0	32576	32384	31196	
1643	0	32804	32034	31168	
1644	0	33057	32567	31168	
1645	0	33240	33124	31149	
1646	0	33268	32904	31132	
1647	0	33396	32914	31124	
1648	0	33422	32552	31112	
1649	0	33352	32541	31092	
1650	0	33237	32540	31076	
1651	0	33236	33085	31070	
1652	0	33032	33116	31062	
1653	0	32784	33941	31072	
1654	0	32604	34087	31085	
1655	0	32256	33585	31113	
1656	0	32168	32296	31120	
1657	0	31968	30008	31164	
1658	0	31889	33304	31176	
1659	0	32008	35292	31192	
1660	0	32204	33350	31216	
1661	0	32629	34618	31220	
1662	0	33482	33568	31220	
1663	0	33288	32445	31201	
1664	0	32939	30636	31209	
1665	0	33002	31900	31217	
1666	0	33152	32710	31224	
1667	0	33273	31792	31218	
1668	0	33292	32528	31217	
1669	0	33300	32913	31228	
1670	0	33264	33624	31224	
1671	0	33132	34300	31232	
1672	0	33016	31216	31237	
1673	0	32833	32740	31262	
1674	0	32608	32652	31286	
1675	0	32380	31540	31294	
1676	0	32168	32053	31280	
1677	0	32008	30404	31276	
1678	0	32149	33226	31264	
1679	0	32260	34162	31290	
1680	0	32265	33804	31272	
1681	0	32481	34201	31278	
1682	0	32453	32928	31284	
1683	0	32548	31598	31276	
1684	0	32816	33054	31260	
1685	0	33028	30979	31280	
1686	0	33169	30500	31292	
1687	0	33400	30417	31276	
1688	0	33988	32016	31264	
1689	0	33700	35116	31246	
1690	0	33326	35002	31252	
1691	0	33176	35582	31260	
1692	0	33036	34854	31262	
1693	0	32825	32836	31236	
1694	0	32469	28336	31212	
1695	0	32356	31092	31194	
1696	0	32252	34289	31190	
1697	0	32050	34802	31188	
1698	0	32056	34580	31196	
1699	0	32318	34070	31211	
1700	0	32568	32741	31210	
1701	0	32598	31832	31208	
1702	0	32533	31644	31228	
1703	0	32612	32324	31233	
1704	0	33076	32263	31269	
1705	0	33524	32292	31282	
1706	0	33420	31252	31260	
1707	0	33180	30624	31260	
1708	0	33128	33580	31252	
1709	0	33084	34316	31256	
1710	0	33188	33652	31233	
1711	0	33269	32886	31239	
1712	0	33072	32924	31233	
1713	0	32884	31958	31204	
1714	0	32704	33000	31196	
1715	0	32372	33344	31204	
1716	0	32252	32305	31209	
1717	0	32045	32598	31220	
1718	0	32022	33012	31223	
1719	0	32282	33417	31212	
1720	0	32416	33436	31204	
1721	0	32512	32688	31223	
1722	0	32669	33441	31200	
1723	0	32752	32777	31164	
1724	0	32950	32724	31168	
1725	0	33156	32161	31165	
1726	0	33269	31708	31156	
1727	0	33300	32432	31136	
1728	0	33372	31021	31164	
1729	0	33280	30880	31180	
1730	0	33264	32506	31176	
1731	0	33212	33737	31188	
1732	0	32988	34588	31182	
1733	0	32760	35500	31205	
1734	0	32528	33988	31224	
1735	0	32260	34200	31229	
1736	0	32208	31800	31244	
1737	0	32168	31012	31224	
1738	0	32136	32460	31220	
1739	0	32224	33002	31212	
1740	0	32368	32220	31201	
1741	0	32536	32684	31202	
1742	0	32660	34268	31197	
1743	0	32836	34193	31184	
1744	0	32909	32940	31179	
1745	0	32865	32884	31168	
1746	0	32424	32388	31149	
1747	0	32640	32692	31161	
1748	0	33384	32748	31188	
1749	0	33924	32672	31196	
1750	0	34108	33208	31183	
1751	0	34948	32068	31176	
1752	0	33404	31480	31182	
1753	0	32740	32857	31197	
1754	0	32378	33606	31209	
1755	0	32090	33412	31213	
1756	0	31876	31872	31220	
1757	0	31916	31396	31228	
1758	0	31868	32580	31228	
1759	0	32308	33759	31212	
1760	0	32376	32024	31196	
1761	0	32332	33153	31176	
1762	0	32565	36616	31167	
1763	0	32860	34968	31136	
1764	0	32900	32476	31135	
1765	0	33080	30640	31098	
1766	0	33216	31221	31104	
1767	0	33288	31532	31092	
1768	0	33364	31176	31082	
1769	0	33334	33129	31079	
1770	0	33232	35740	31101	
1771	0	33172	31457	31116	
1772	0	32996	34031	31105	
1773	0	32770	34224	31116	
1774	0	32544	32430	31112	
1775	0	32340	32448	31141	
1776	0	32180	32881	31178	
1777	0	32008	34028	31180	
1778	0	31984	33624	31184	
1779	0	32164	32329	31185	
1780	0	32364	32677	31196	
1781	0	32632	34820	31180	
1782	0	32964	32436	31173	
1783	0	32952	31268	31160	
1784	0	32876	30262	31176	
1785	0	33136	30852	31160	
1786	0	33550	33600	31150	
1787	0	33496	32632	31144	
1788	0	33376	32004	31164	
1789	0	33317	33780	31165	
1790	0	33272	33369	31168	
1791	0	33112	33752	31148	
1792	0	32976	33844	31141	
1793	0	32760	34311	31146	
1794	0	32560	31704	31137	
1795	0	32244	32162	31148	
1796	0	32196	31856	31172	
1797	0	32116	32062	31153	
1798	0	32120	33108	31129	
1799	0	32296	33952	31117	
1800	0	32344	31900	31116	
1801	0	32478	35548	31116	
1802	0	32620	35248	31096	
1803	0	32852	31333	31084	
1804	0	33004	35288	31057	
1805	0	33208	30132	31054	
1806	0	33296	30116	31070	
1807	0	33392	32012	31076	
1808	0	33496	32556	31065	
1809	0	33622	32760	31039	
1810	0	33476	32808	31056	
1811	0	33152	33160	31068	
1812	0	32904	31976	31074	
1813	0	32664	29993	31064	
1814	0	32528	32976	31044	
1815	0	32264	34476	31077	
1816	0	32176	33697	31076	
1817	0	32097	33469	31104	
1818	0	32004	34836	31100	
1819	0	32156	32376	31092	
1820	0	32280	32564	31088	
1821	0	32460	32708	31094	
1822	0	32632	32252	31108	
1823	0	32872	32580	31104	
1824	0	33132	32604	31089	
1825	0	33338	32637	31081	
1826	0	33304	32741	31090	
1827	0	33294	32805	31076	
1828	0	33404	32788	31082	
1829	0	33348	32548	31100	
1830	0	33380	32652	31116	
1831	0	33204	31929	31140	
1832	0	32912	32046	31140	
1833	0	32737	33012	31161	
1834	0	32484	33368	31160	
1835	0	32332	33172	31172	
1836	0	32177	34496	31184	
1837	0	32092	34386	31184	
1838	0	32109	32128	31214	
1839	0	31944	32661	31199	
1840	0	32024	32272	31197	
1841	0	32524	32788	31189	
1842	0	32940	32782	31180	
1843	0	32650	31620	31161	
1844	0	33216	31868	31148	
1845	0	33984	33916	31160	
1846	0	33548	33989	31132	
1847	0	33400	33724	31136	
1848	0	33460	33111	31148	
1849	0	33269	32772	31149	
1850	0	33092	33062	31148	
1851	0	32996	31156	31164	
1852	0	32853	31230	31164	
1853	0	32788	33220	31148	
1854	0	32520	34677	31141	
1855	0	32276	34216	31156	
1856	0	32114	33407	31156	
1857	0	32140	33396	31196	
1858	0	32068	33396	31176	
1859	0	32063	33672	31190	
1860	0	32180	32113	31201	
1861	0	32424	32861	31205	
1862	0	32504	28200	31166	
1863	0	32580	30136	31152	
1864	0	32928	35936	31148	
1865	0	33316	35404	31144	
1866	0	33408	33489	31142	
1867	0	33545	34232	31143	
1868	0	33652	31340	31124	
1869	0	33596	29670	31140	
1870	0	33610	32212	31120	
1871	0	33328	31127	31116	
1872	0	33028	33852	31096	
1873	0	32716	34520	31080	
1874	0	32460	32884	31068	
1875	0	32248	32045	31073	
1876	0	32089	31106	31074	
1877	0	32056	33872	31108	
1878	0	31976	34740	31110	
1879	0	32064	33708	31116	
1880	0	32316	31572	31152	
1881	0	32276	31880	31157	
1882	0	32568	34769	31160	
1883	0	32912	33904	31157	
1884	0	33148	33238	31182	
1885	0	33285	33281	31180	
1886	0	33516	33573	31204	
1887	0	33552	33028	31212	
1888	0	33268	32712	31204	
1889	0	33244	31392	31204	
1890	0	33276	31668	31176	
1891	0	33113	32398	31177	
1892	0	32960	32976	31172	
1893	0	32836	32572	31160	
1894	0	32644	33230	31164	
1895	0	32408	31176	31157	
1896	0	32240	30262	31196	
1897	0	32037	33168	31204	
1898	0	32008	34754	31201	
1899	0	32137	33774	31200	
1900	0	32337	33528	31201	
1901	0	32458	33724	31204	
1902	0	32617	33994	31200	
1903	0	32880	33232	31192	
1904	0	33108	32860	31188	
1905	0	33214	32732	31192	
1906	0	33236	32013	31194	
1907	0	33240	32410	31172	
1908	0	33148	31796	31173	
1909	0	33132	32602	31149	
1910	0	33104	31802	31144	
1911	0	33301	33304	31134	
1912	0	33504	34140	31129	
1913	0	33656	33937	31101	
1914	0	32604	32783	31102	
1915	0	32025	32284	31102	
1916	0	31960	31630	31111	
1917	0	31936	33911	31104	
1918	0	31880	32748	31100	
1919	0	32288	32754	31100	
1920	0	33336	32784	31088	
1921	0	32700	32746	31096	
1922	0	32540	31280	31104	
1923	0	32680	31799	31108	
1924	0	32786	32532	31104	
1925	0	33064	33324	31132	
1926	0	33121	32140	31125	
1927	0	33236	30493	31148	
1928	0	33316	33376	31134	
1929	0	33352	35256	31127	
1930	0	33300	35576	31156	
1931	0	33344	31848	31160	
1932	0	33156	30769	31154	
1933	0	32756	33216	31158	
1934	0	32484	31999	31144	
1935	0	32332	30531	31140	
1936	0	32140	30372	31132	
1937	0	32138	34660	31132	
1938	0	32116	37592	31144	
1939	0	32080	35961	31149	
1940	0	32196	35464	31136	
1941	0	32336	31724	31151	
1942	0	32488	33896	31193	
1943	0	32650	32256	31205	
1944	0	32896	31877	31217	
1945	0	33208	31356	31204	
1946	0	33460	31852	31204	
1947	0	34096	32109	31204	
1948	0	33576	32340	31213	
1949	0	33436	32093	31192	
1950	0	33357	31401	31200	
1951	0	33234	32810	31177	
1952	0	32900	32866	31182	
1953	0	32648	32312	31210	
1954	0	32492	34180	31204	
1955	0	32318	32068	31200	
1956	0	32116	32408	31213	
1957	0	32076	35234	31239	
1958	0	32116	34184	31260	
1959	0	32088	34176	31263	
1960	0	32308	31876	31244	
1961	0	32512	32311	31232	
1962	0	32605	32527	31234	
1963	0	32696	32904	31236	
1964	0	32881	31744	31212	
1965	0	32976	33768	31210	
1966	0	33157	35016	31188	
1967	0	33428	34280	31177	
1968	0	33558	31694	31196	
1969	0	33592	31280	31185	
1970	0	33572	32000	31160	
1971	0	33484	31848	31134	
1972	0	33176	31793	31124	
1973	0	32805	32872	31137	
1974	0	32520	32756	31146	
1975	0	32288	32852	31159	
1976	0	32132	32990	31172	
1977	0	32052	32068	31188	
1978	0	31992	32935	31182	
1979	0	32120	32800	31172	
1980	0	32336	32048	31188	
1981	0	32361	33799	31196	
1982	0	32632	33781	31196	
1983	0	32836	33980	31207	
1984	0	33112	33447	31211	
1985	0	33200	32756	31204	
1986	0	33328	32970	31196	
1987	0	33305	32104	31185	
1988	0	33360	31182	31190	
1989	0	33320	33412	31178	
1990	0	33396	33856	31208	
1991	0	33276	32676	31196	
1992	0	33064	32080	31204	
1993	0	32918	32845	31198	
1994	0	32706	32518	31208	
1995	0	32452	32376	31215	
1996	0	32132	33857	31218	
1997	0	32040	33002	31214	
1998	0	31960	32226	31200	
1999	0	32142	33980	31196	
2000	0	32268	33417	31204	
2001	0	32360	36294	31192	
2002	0	32573	31716	31212	
2003	0	32764	32197	31201	
2004	0	32813	33457	31196	
2005	0	33017	34392	31172	
2006	0	33220	30756	31154	
2007	0	33324	31960	31156	
2008	0	33607	31809	31145	
2009	0	34104	31404	31137	
2010	0	33516	31032	31128	
2011	0	33188	31164	31112	
2012	0	32932	32180	31120	
2013	0	32744	35042	31104	
2014	0	32584	35928	31121	
2015	0	32300	34484	31128	
2016	0	32164	33807	31141	
2017	0	32088	32584	31137	
2018	0	31952	32382	31153	
2019	0	32026	31003	31146	
2020	0	32200	32046	31152	
2021	0	32392	33564	31172	
2022	0	32588	33657	31172	
2023	0	32692	32646	31186	
2024	0	33024	33268	31178	
2025	0	33388	32420	31204	
2026	0	33336	32500	31217	
2027	0	33252	33053	31216	
2028	0	33440	32540	31228	
2029	0	33636	32837	31217	
2030	0	33524	32060	31219	
2031	0	33180	32369	31192	
2032	0	32864	32990	31196	
2033	0	32905	33608	31188	
2034	0	32876	32228	31184	
2035	0	32424	31976	31190	
2036	0	32128	32751	31199	
2037	0	31976	33561	31196	
2038	0	31960	33616	31216	
2039	0	32116	33312	31222	
2040	0	32449	33125	31201	
2041	0	32529	33212	31204	
2042	0	32536	31810	31228	
2043	0	32700	31144	31236	
2044	0	32880	31574	31220	
2045	0	33132	30484	31212	
2046	0	33224	32624	31212	
2047	0	33412	31280	31208	
2048	0	33480	35716	31199	
2049	0	33498	34632	31194	
2050	0	33364	34472	31196	
2051	0	33236	35062	31189	
2052	0	32960	35109	31188	
2053	0	32783	34869	31173	
2054	0	32552	32932	31156	
2055	0	32368	31422	31148	
2056	0	32264	30297	31164	
2057	0	32232	32780	31168	
2058	0	32184	33611	31150	
2059	0	32141	32589	31164	
2060	0	32176	31192	31164	
2061	0	32344	31090	31176	
2062	0	32540	30837	31188	
2063	0	32752	30409	31208	
2064	0	32936	34101	31236	
2065	0	33121	35664	31212	
2066	0	33288	36044	31224	
2067	0	33376	32936	31209	
2068	0	33400	34774	31216	
2069	0	33378	30784	31205	
2070	0	33368	30538	31212	
2071	0	33300	32020	31194	
2072	0	33253	34352	31196	
2073	0	33102	33535	31186	
2074	0	32772	32970	31168	
2075	0	32337	32480	31195	
2076	0	32220	31324	31190	
2077	0	32100	32879	31185	
2078	0	32036	33028	31180	
2079	0	31976	32909	31180	
2080	0	32112	30997	31149	
2081	0	32420	32840	31142	
2082	0	32657	33233	31133	
2083	0	32720	32610	31128	
2084	0	32916	32870	31140	
2085	0	33160	33358	31144	
2086	0	33244	34356	31120	
2087	0	33329	33529	31144	
2088	0	33536	31601	31142	
2089	0	33416	32508	31133	
2090	0	33292	33665	31136	
2091	0	33264	33420	31140	
2092	0	33108	31727	31152	
2093	0	32834	31676	31156	
2094	0	32532	32765	31175	
2095	0	32108	32108	31168	
2096	0	31932	32478	31152	
2097	0	31924	34944	31129	
2098	0	31926	31568	31157	
2099	0	32156	32712	31148	
2100	0	32813	32902	31164	
2101	0	32940	33396	31164	
2102	0	32916	34460	31165	
2103	0	32617	33472	31172	
2104	0	32834	32596	31168	
2105	0	33132	32254	31197	
2106	0	33304	32692	31205	
2107	0	33184	33060	31236	
2108	0	33516	32840	31236	
2109	0	33416	32433	31254	
2110	0	33412	32644	31250	
2111	0	33392	32280	31244	
2112	0	33180	31289	31220	
2113	0	33001	32428	31237	
2114	0	32829	33396	31220	
2115	0	32502	33118	31236	
2116	0	32096	30956	31232	
2117	0	31884	34357	31234	
2118	0	31877	35644	31252	
2119	0	32036	33093	31236	
2120	0	31980	32358	31212	
2121	0	32148	33180	31189	
2122	0	32450	32961	31156	
2123	0	32924	32209	31153	
2124	0	33012	31897	31166	
2125	0	33236	32616	31184	
2126	0	33330	32940	31172	
2127	0	33360	33822	31149	
2128	0	33488	34567	31148	
2129	0	33512	31700	31164	
2130	0	33344	32704	31164	
2131	0	33264	32069	31181	
2132	0	32993	31734	31192	
2133	0	32837	33112	31204	
2134	0	32717	32304	31220	
2135	0	32396	32298	31228	
2136	0	32160	33362	31228	
2137	0	32045	33128	31239	
2138	0	32006	33189	31249	
2139	0	32058	33337	31244	
2140	0	32252	33284	31255	
2141	0	32364	33300	31252	
2142	0	32568	33700	31263	
2143	0	32920	32281	31254	
2144	0	33082	32092	31260	
2145	0	33191	32055	31260	
2146	0	33296	32402	31234	
2147	0	33386	32788	31236	
2148	0	33500	32420	31190	
2149	0	33384	32712	31169	
2150	0	33360	34365	31176	
2151	0	33292	32449	31192	
2152	0	33076	32702	31184	
2153	0	32824	32680	31175	
2154	0	32644	32783	31168	
2155	0	32408	33492	31156	
2156	0	32192	33228	31176	
2157	0	32113	32749	31180	
2158	0	31984	32360	31191	
2159	0	32092	32257	31176	
2160	0	32152	33108	31156	
2161	0	32344	32188	31124	
2162	0	32444	33268	31116	
2163	0	32829	33644	31100	
2164	0	33140	33125	31092	
2165	0	33248	32220	31094	
2166	0	33204	33192	31101	
2167	0	33260	31960	31095	
2168	0	33380	33080	31077	
2169	0	33444	34000	31072	
2170	0	33554	32432	31080	
2171	0	33948	31008	31088	
2172	0	33388	32932	31105	
2173	0	32772	33005	31111	
2174	0	32424	33258	31106	
2175	0	32124	33101	31100	
2176	0	31913	31650	31076	
2177	0	31870	33748	31056	
2178	0	31788	34916	31072	
2179	0	31976	34356	31084	
2180	0	32396	33076	31100	
2181	0	33146	32508	31081	
2182	0	32974	31544	31076	
2183	0	32644	30878	31072	
2184	0	32860	31245	31073	
2185	0	33024	32488	31072	
2186	0	33192	34420	31070	
2187	0	33254	34596	31065	
2188	0	33388	33541	31084	
2189	0	33400	32353	31088	
2190	0	33320	31636	31092	
2191	0	33316	32884	31090	
2192	0	33120	33792	31096	
2193	0	32780	32420	31097	
2194	0	32645	32752	31111	
2195	0	32276	33287	31117	
2196	0	32052	32333	31132	
2197	0	32028	33596	31134	
2198	0	32016	32361	31126	
2199	0	32108	35049	31129	
2200	0	32308	31742	31124	
2201	0	32725	30620	31140	
2202	0	32764	32288	31135	
2203	0	32750	30000	31126	
2204	0	32890	33373	31104	
2205	0	33096	35463	31100	
2206	0	33256	34264	31108	
2207	0	33460	30884	31108	
2208	0	33504	31829	31116	
2209	0	33408	35636	31096	
2210	0	33264	33508	31088	
2211	0	33256	31630	31076	
2212	0	33044	32569	31072	
2213	0	32664	33052	31076	
2214	0	32532	31944	31076	
2215	0	32228	33304	31072	
2216	0	32122	34892	31064	
2217	0	32012	32386	31080	
2218	0	32544	31257	31061	
2219	0	32404	32136	31092	
2220	0	32512	33836	31112	
2221	0	32476	33676	31126	
2222	0	32504	32835	31124	
2223	0	32679	33237	31132	
2224	0	32784	33325	31148	
2225	0	33068	31548	31150	
2226	0	33262	31492	31137	
2227	0	33328	34016	31146	
2228	0	33448	32866	31168	
2229	0	33396	33005	31164	
2230	0	33428	32568	31156	
2231	0	33292	33238	31144	
2232	0	33175	32736	31142	
2233	0	32936	31988	31144	
2234	0	32712	32632	31160	
2235	0	32416	33249	31140	
2236	0	32200	32908	31144	
2237	0	32052	32119	31156	
2238	0	31949	33316	31156	
2239	0	31972	33828	31182	
2240	0	32090	33848	31160	
2241	0	32212	34004	31150	
2242	0	32396	31040	31142	
2243	0	32645	31836	31140	
2244	0	33020	33194	31160	
2245	0	33440	33133	31142	
2246	0	33530	32468	31140	
2247	0	33528	32628	31137	
2248	0	33660	33092	31150	
2249	0	33671	32643	31160	
2250	0	33420	32156	31160	
2251	0	33352	32429	31166	
2252	0	33020	32876	31181	
2253	0	32792	33844	31173	
2254	0	32532	32598	31172	
2255	0	32326	32416	31179	
2256	0	32156	29640	31176	
2257	0	32088	32624	31160	
2258	0	31912	34241	31192	
2259	0	31781	33708	31180	
2260	0	31884	34116	31173	
2261	0	32020	34812	31180	
2262	0	32450	33908	31169	
2263	0	33408	32974	31160	
2264	0	33317	31764	31158	
2265	0	33472	30972	31170	
2266	0	33509	32896	31152	
2267	0	33296	33288	31180	
2268	0	33460	33668	31159	
2269	0	33500	32592	31161	
2270	0	33381	31904	31149	
2271	0	33164	31954	31164	
2272	0	33064	32357	31160	
2273	0	32782	32792	31161	
2274	0	32820	34357	31165	
2275	0	32588	32720	31169	
2276	0	32240	32328	31173	
2277	0	32020	33474	31156	
2278	0	31828	33516	31148	
2279	0	32012	34016	31144	
2280	0	32188	30388	31128	
2281	0	32380	32552	31124	
2282	0	32480	32858	31110	
2283	0	32670	33092	31108	
2284	0	32876	33648	31081	
2285	0	33132	33428	31066	
2286	0	33252	33172	31088	
2287	0	33344	32750	31089	
2288	0	33488	33212	31113	
2289	0	33564	31582	31117	
2290	0	33574	31593	31113	
2291	0	33572	32468	31129	
2292	0	33268	32568	31122	
2293	0	32892	33644	31104	
2294	0	32640	33640	31116	
2295	0	32340	32878	31136	
2296	0	32138	31013	31136	
2297	0	32008	33433	31134	
2298	0	31916	32924	31129	
2299	0	32028	32497	31120	
2300	0	32244	34481	31110	
2301	0	32228	35308	31090	
2302	0	32482	33740	31074	
2303	0	32756	32114	31062	
2304	0	32976	33953	31060	
2305	0	33140	30972	31060	
2306	0	33288	32064	31056	
2307	0	33440	32320	31045	
2308	0	33528	32488	31032	
2309	0	33470	31890	31026	
2310	0	33367	33372	31020	
2311	0	33185	33076	31028	
2312	0	32852	32920	31047	
2313	0	32652	31693	31032	
2314	0	32508	32412	31046	
2315	0	32288	32788	31064	
2316	0	32036	32884	31049	
2317	0	32372	33330	31060	
2318	0	33240	33408	31064	
2319	0	32641	32472	31056	
2320	0	32212	33373	31053	
2321	0	32208	33993	31053	
2322	0	32300	33220	31058	
2323	0	32576	31433	31078	
2324	0	32832	32631	31060	
2325	0	32996	32397	31064	
2326	0	33228	32704	31065	
2327	0	33304	32964	31056	
2328	0	33440	33548	31042	
2329	0	33491	32076	31069	
2330	0	33388	32504	31068	
2331	0	33318	31278	31079	
2332	0	33120	30372	31100	
2333	0	32844	34404	31109	
2334	0	32696	34593	31115	
2335	0	32432	34463	31108	
2336	0	32192	34020	31124	
2337	0	32076	33236	31156	
2338	0	31944	33028	31159	
2339	0	31972	33064	31137	
2340	0	32156	33956	31141	
2341	0	32188	31732	31124	
2342	0	32318	30885	31124	
2343	0	32608	32720	31140	
2344	0	32884	33054	31120	
2345	0	33288	33709	31108	
2346	0	33892	28820	31124	
2347	0	33880	31360	31100	
2348	0	33504	35376	31108	
2349	0	33406	34189	31072	
2350	0	33280	33360	31076	
2351	0	33204	33108	31096	
2352	0	33057	34270	31110	
2353	0	32828	31652	31128	
2354	0	32652	32056	31132	
2355	0	32356	33206	31156	
2356	0	32204	35316	31164	
2357	0	31960	32628	31176	
2358	0	31853	32073	31191	
2359	0	32024	30900	31212	
2360	0	32192	31093	31204	
2361	0	32376	34152	31218	
2362	0	32708	32364	31204	
2363	0	32944	32870	31190	
2364	0	33021	35020	31212	
2365	0	33140	34310	31192	
2366	0	33185	32740	31176	
2367	0	33356	32360	31184	
2368	0	33520	32036	31180	
2369	0	33576	31040	31180	
2370	0	33496	33031	31184	
2371	0	33329	33224	31183	
2372	0	33089	32452	31162	
2373	0	32692	32905	31180	
2374	0	32624	32966	31186	
2375	0	32340	32972	31192	
2376	0	32180	32927	31176	
2377	0	32176	32908	31172	
2378	0	32157	33000	31157	
2379	0	32184	33020	31176	
2380	0	32124	33704	31188	
2381	0	32260	32734	31173	
2382	0	32416	31664	31168	
2383	0	32598	30385	31176	
2384	0	32933	30956	31184	
2385	0	33132	30060	31156	
2386	0	33248	33218	31164	
2387	0	33360	37127	31172	
2388	0	33597	37892	31176	
2389	0	33577	35222	31176	
2390	0	33404	32720	31174	
2391	0	33348	32519	31150	
2392	0	33168	32084	31110	
2393	0	32908	32310	31126	
2394	0	32704	32748	31142	
2395	0	32428	32526	31137	
2396	0	32228	32664	31140	
2397	0	32112	33128	31146	
2398	0	31975	33708	31144	
2399	0	31952	31332	31136	
2400	0	32192	29233	31137	
2401	0	32288	32217	31141	
2402	0	32492	35372	31162	
2403	0	32745	33625	31145	
2404	0	32892	33681	31134	
2405	0	33218	32316	31129	
2406	0	33392	32852	31112	
2407	0	33514	34020	31118	
2408	0	33488	31354	31109	
2409	0	33316	32400	31100	
2410	0	33308	32586	31097	
2411	0	33232	32503	31090	
2412	0	33021	32576	31072	
2413	0	32808	32888	31100	
2414	0	33004	32980	31119	
2415	0	32908	33056	31148	
2416	0	32458	32865	31146	
2417	0	32148	32957	31148	
2418	0	31896	33328	31134	
2419	0	32008	33311	31140	
2420	0	32032	32145	31160	
2421	0	32176	34001	31164	
2422	0	32408	33217	31168	
2423	0	32700	32704	31146	
2424	0	32896	32176	31140	
2425	0	33172	32617	31140	
2426	0	33244	32774	31135	
2427	0	33432	32677	31140	
2428	0	33492	32229	31148	
2429	0	33458	33168	31161	
2430	0	33401	32692	31164	
2431	0	33344	32556	31141	
2432	0	33140	31624	31168	
2433	0	32828	33101	31156	
2434	0	32656	33260	31128	
2435	0	32284	33205	31152	
2436	0	32132	33760	31152	
2437	0	31956	32713	31152	
2438	0	31888	32964	31165	
2439	0	32076	31944	31158	
2440	0	32776	32032	31160	
2441	0	32580	33404	31137	
2442	0	32448	34320	31160	
2443	0	32584	33736	31156	
2444	0	32848	32892	31178	
2445	0	33116	33212	31168	
2446	0	33360	32402	31172	
2447	0	33404	32375	31150	
2448	0	33372	32628	31160	
2449	0	33444	33944	31165	
2450	0	33444	33249	31150	
2451	0	33388	31764	31149	
2452	0	33040	31941	31145	
2453	0	32806	29940	31145	
2454	0	32740	32444	31160	
2455	0	32576	34872	31180	
2456	0	32196	35292	31188	
2457	0	32000	31092	31196	
2458	0	32536	33213	31197	
2459	0	32321	33280	31188	
2460	0	32064	32649	31196	
2461	0	32012	32728	31196	
2462	0	32200	33252	31196	
2463	0	32520	33312	31198	
2464	0	32960	33133	31204	
2465	0	33168	32049	31184	
2466	0	33460	30824	31189	
2467	0	33572	33452	31197	
2468	0	33696	34093	31180	
2469	0	33661	32428	31168	
2470	0	33436	32308	31184	
2471	0	33280	33452	31176	
2472	0	33068	32786	31182	
2473	0	32817	32878	31156	
2474	0	32584	31282	31153	
2475	0	32306	31509	31137	
2476	0	32174	34989	31128	
2477	0	32024	33190	31127	
2478	0	31997	35028	31116	
2479	0	32048	32468	31121	
2480	0	32137	31048	31108	
2481	0	32300	33676	31100	
2482	0	32456	34436	31064	
2483	0	32728	33016	31076	
2484	0	32873	32300	31068	
2485	0	33148	32135	31064	
2486	0	33336	33060	31069	
2487	0	33404	32519	31084	
2488	0	33548	32697	31072	
2489	0	33484	31824	31048	
2490	0	33444	31924	31049	
2491	0	33277	33718	31089	
2492	0	33248	33068	31087	
2493	0	32910	33160	31100	
2494	0	32640	33685	31124	
2495	0	32354	33344	31129	
2496	0	32212	33548	31149	
2497	0	32064	33726	31152	
2498	0	31960	31326	31140	
2499	0	32034	32048	31144	
2500	0	32148	32760	31152	
2501	0	32342	32573	31144	
2502	0	32464	32500	31127	
2503	0	32752	32820	31121	
2504	0	33000	32477	31133	
2505	0	33248	33484	31145	
2506	0	33503	32296	31156	
2507	0	33496	32932	31169	
2508	0	33492	32564	31173	
2509	0	33472	32591	31172	
2510	0	33404	32086	31153	
2511	0	33376	31656	31166	
2512	0	33144	30776	31172	
2513	0	32957	32982	31176	
2514	0	32737	36780	31226	
2515	0	32398	32724	31205	
2516	0	32152	33365	31198	
2517	0	31954	33736	31204	
2518	0	31796	33172	31192	
2519	0	31972	34120	31201	
2520	0	32164	32045	31205	
2521	0	32313	32066	31196	
2522	0	32548	32960	31192	
2523	0	32764	33540	31178	
2524	0	32896	32722	31176	
2525	0	33129	30277	31164	
2526	0	33352	32156	31168	
2527	0	33445	33697	31148	
2528	0	33504	33348	31140	
2529	0	33488	33324	31144	
2530	0	33521	33272	31136	
2531	0	33440	32865	31135	
2532	0	33136	31034	31137	
2533	0	32896	32868	31168	
2534	0	32636	32992	31187	
2535	0	32336	33468	31192	
2536	0	32068	33888	31207	
2537	0	31882	32796	31208	
2538	0	31792	32374	31224	
2539	0	31905	33744	31212	
2540	0	32142	31280	31214	
2541	0	32748	34236	31176	
2542	0	33006	31912	31172	
2543	0	32740	32484	31160	
2544	0	32812	33637	31144	
2545	0	33041	32724	31152	
2546	0	33196	33457	31164	
2547	0	33372	32385	31158	
2548	0	33496	32396	31158	
2549	0	33484	33126	31157	
2550	0	33429	34381	31192	
2551	0	33402	34636	31190	
2552	0	33344	32572	31156	
2553	0	33016	31628	31141	
2554	0	32688	32690	31142	
2555	0	32348	31648	31140	
2556	0	32128	31733	31142	
2557	0	32056	32508	31136	
2558	0	31984	33088	31116	
2559	0	31972	33104	31116	
2560	0	31995	33092	31138	
2561	0	32206	33304	31148	
2562	0	32362	31936	31151	
2563	0	32608	32864	31156	
2564	0	32917	32756	31166	
2565	0	33276	32537	31172	
2566	0	33492	32248	31176	
2567	0	33536	32069	31189	
2568	0	33600	29404	31192	
2569	0	33648	33180	31197	
2570	0	33492	37049	31185	
2571	0	33372	36172	31188	
2572	0	33185	32788	31192	
2573	0	32749	32252	31184	
2574	0	32280	32132	31202	
2575	0	31949	32062	31204	
2576	0	31796	31751	31196	
2577	0	31841	32487	31212	
2578	0	31860	33984	31208	
2579	0	32960	34156	31229	
2580	0	33192	33616	31222	
2581	0	32796	32748	31220	
2582	0	32620	32414	31205	
2583	0	32736	32357	31223	
2584	0	32812	31896	31221	
2585	0	32940	32315	31216	
2586	0	33156	32246	31212	
2587	0	33260	32464	31214	
2588	0	33377	33688	31220	
2589	0	33452	31765	31232	
2590	0	33416	30087	31246	
2591	0	33285	31493	31228	
2592	0	33136	33572	31232	
2593	0	32924	34868	31220	
2594	0	32640	36359	31216	
2595	0	32372	34473	31229	
2596	0	32111	33468	31214	
2597	0	32020	32736	31196	
2598	0	31981	32058	31197	
2599	0	31954	32552	31188	
2600	0	32172	32700	31186	
2601	0	32276	33508	31159	
2602	0	32448	33046	31160	
2603	0	32704	33260	31149	
2604	0	32953	34400	31164	
2605	0	33214	30956	31172	
2606	0	33412	32672	31176	
2607	0	33420	32406	31159	
2608	0	33581	29741	31141	
2609	0	33468	31048	31140	
2610	0	33464	30640	31144	
2611	0	33362	29980	31140	
2612	0	33192	33956	31129	
2613	0	32916	35009	31136	
2614	0	32644	37616	31156	
2615	0	32402	34048	31152	
2616	0	32100	33281	31136	
2617	0	32032	32709	31140	
2618	0	32068	32334	31128	
2619	0	32156	31876	31116	
2620	0	32145	32964	31090	
2621	0	32308	33724	31084	
2622	0	32461	33313	31080	
2623	0	32673	32781	31096	
2624	0	32944	32751	31128	
2625	0	33212	31492	31137	
2626	0	33412	31958	31128	
2627	0	33476	32134	31114	
2628	0	33492	32888	31136	
2629	0	33508	32984	31143	
2630	0	33448	32089	31156	
2631	0	33336	34055	31149	
2632	0	33132	33284	31173	
2633	0	32900	32247	31180	
2634	0	32608	33431	31180	
2635	0	32245	32908	31197	
2636	0	32048	33156	31197	
2637	0	31832	32128	31196	
2638	0	31876	32140	31188	
2639	0	32390	33636	31184	
2640	0	32680	34136	31193	
2641	0	32368	33798	31166	
2642	0	32437	32183	31169	
2643	0	32660	31613	31169	
2644	0	32876	30693	31172	
2645	0	33114	31504	31129	
2646	0	33261	33988	31140	
2647	0	33388	34161	31164	
2648	0	33561	34552	31176	
2649	0	33580	33852	31177	
2650	0	33453	33237	31172	
2651	0	33370	32364	31168	
2652	0	33392	31700	31196	
2653	0	32964	32344	31177	
2654	0	32617	33440	31180	
2655	0	32281	33512	31181	
2656	0	32148	33234	31182	
2657	0	32036	32484	31172	
2658	0	31924	32862	31184	
2659	0	31880	32928	31172	
2660	0	32060	33272	31165	
2661	0	32178	32900	31166	
2662	0	32432	31938	31156	
2663	0	32717	32704	31132	
2664	0	33140	32804	31136	
2665	0	33440	31376	31116	
2666	0	33472	31192	31120	
2667	0	33340	32330	31096	
2668	0	33496	34093	31086	
2669	0	33348	31420	31068	
2670	0	33400	35052	31084	
2671	0	33484	33628	31096	
2672	0	33408	32495	31076	
2673	0	33024	32646	31079	
2674	0	32622	33136	31064	
2675	0	32168	32185	31064	
2676	0	32004	31604	31065	
2677	0	31872	33432	31046	
2678	0	31984	34180	31048	
2679	0	32109	32936	31045	
2680	0	32208	32928	31043	
2681	0	32500	33448	31052	
2682	0	32632	32908	31060	
2683	0	32796	32356	31086	
2684	0	32876	32488	31095	
2685	0	33052	32400	31088	
2686	0	33205	31312	31093	
2687	0	33376	30177	31088	
2688	0	33568	33240	31105	
2689	0	33480	33929	31116	
2690	0	33492	31581	31129	
2691	0	33244	33444	31156	
2692	0	33032	35068	31204	
2693	0	32677	33476	31217	
2694	0	32388	33724	31204	
2695	0	32220	33220	31185	
2696	0	32144	32348	31200	
2697	0	32372	34622	31204	
2698	0	32388	33640	31196	
2699	0	32424	33436	31176	
2700	0	32220	32672	31184	
2701	0	32200	32806	31176	
2702	0	32342	32576	31140	
2703	0	32644	31380	31106	
2704	0	32957	32113	31095	
2705	0	33148	31692	31094	
2706	0	33300	31868	31091	
2707	0	33433	32814	31116	
2708	0	33544	33228	31114	
2709	0	33488	31924	31140	
2710	0	33436	31560	31152	
2711	0	33389	33372	31184	
2712	0	33130	32948	31172	
2713	0	32946	34977	31190	
2714	0	32644	31160	31205	
2715	0	32352	33796	31220	
2716	0	32103	34064	31236	
2717	0	31776	33036	31229	
2718	0	31692	33384	31228	
2719	0	31880	31151	31225	
2720	0	32096	32196	31222	
2721	0	32428	32932	31220	
2722	0	33016	33693	31197	
2723	0	32736	35964	31200	
2724	0	32857	32981	31156	
2725	0	33092	29924	31149	
2726	0	33388	27997	31148	
2727	0	33748	29276	31136	
2728	0	33848	35904	31112	
2729	0	33628	37260	31112	
2730	0	33512	35570	31100	
2731	0	33256	33725	31080	
2732	0	33056	32312	31068	
2733	0	32794	29429	31072	
2734	0	32584	31900	31068	
2735	0	32360	32645	31080	
2736	0	32216	33201	31094	
2737	0	31972	34280	31111	
2738	0	31900	30924	31108	
2739	0	31936	28500	31112	
2740	0	32128	31866	31118	
2741	0	32240	36900	31132	
2742	0	32440	37484	31152	
2743	0	32726	35088	31156	
2744	0	32880	32399	31160	
2745	0	33180	32320	31169	
2746	0	33348	31904	31164	
2747	0	33484	32216	31156	
2748	0	33537	32337	31157	
2749	0	33476	32853	31168	
2750	0	33528	32742	31164	
2751	0	33480	32528	31174	
2752	0	33208	32420	31177	
2753	0	32868	32308	31173	
2754	0	32557	32805	31172	
2755	0	32324	32570	31168	
2756	0	32100	31772	31172	
2757	0	32024	29676	31180	
2758	0	31908	30484	31178	
2759	0	32004	38669	31192	
2760	0	32306	35924	31204	
2761	0	32564	32844	31204	
2762	0	32738	33194	31170	
2763	0	32888	31596	31190	
2764	0	32848	31396	31216	
2765	0	33116	32390	31209	
2766	0	33252	34020	31194	
2767	0	33368	32748	31180	
2768	0	33358	32412	31184	
2769	0	33364	32536	31166	
2770	0	33244	32184	31155	
2771	0	33254	32060	31146	
2772	0	33188	33108	31143	
2773	0	32981	33000	31162	
2774	0	32756	32031	31190	
2775	0	32556	34497	31196	
2776	0	32436	34684	31197	
2777	0	32232	33684	31188	
2778	0	31968	30832	31180	
2779	0	32008	30213	31188	
2780	0	32088	34860	31210	
2781	0	32200	35236	31205	
2782	0	32368	33189	31200	
2783	0	32628	33508	31200	
2784	0	32876	33260	31200	
2785	0	33120	32380	31174	
2786	0	33312	31732	31172	
2787	0	33367	32164	31167	
2788	0	33484	31976	31166	
2789	0	33502	32176	31185	
2790	0	33464	32425	31184	
2791	0	33370	32256	31184	
2792	0	33229	31788	31214	
2793	0	32960	32632	31208	
2794	0	32752	34276	31204	
2795	0	32412	34508	31206	
2796	0	32240	31173	31192	
2797	0	32070	32109	31181	
2798	0	31960	32508	31173	
2799	0	31858	33596	31146	
2800	0	32069	34556	31148	
2801	0	32268	33400	31144	
2802	0	32492	33224	31137	
2803	0	32892	30630	31146	
2804	0	33200	32372	31149	
2805	0	33216	32916	31148	
2806	0	33280	33361	31132	
2807	0	33412	33228	31128	
2808	0	33496	30583	31125	
2809	0	33500	32676	31089	
2810	0	33464	33657	31109	
2811	0	33280	32428	31101	
2812	0	32852	32584	31112	
2813	0	32564	31972	31092	
2814	0	32292	32797	31060	
2815	0	32188	37952	31044	
2816	0	32138	34836	31072	
2817	0	32944	31637	31068	
2818	0	32816	32882	31076	
2819	0	32132	32117	31081	
2820	0	32268	30519	31064	
2821	0	32287	32127	31056	
2822	0	32297	33028	31050	
2823	0	32428	34777	31065	
2824	0	32666	34565	31076	
2825	0	32940	28888	31065	
2826	0	33232	31890	31076	
2827	0	33464	33362	31052	
2828	0	33637	33596	31052	
2829	0	33601	31331	31052	
2830	0	33568	32768	31064	
2831	0	33540	33548	31080	
2832	0	33260	33759	31084	
2833	0	32948	33504	31105	
2834	0	32680	33460	31109	
2835	0	32352	32320	31137	
2836	0	32096	30289	31140	
2837	0	32032	33368	31156	
2838	0	31922	35296	31176	
2839	0	31908	33828	31186	
2840	0	32092	32984	31196	
2841	0	32240	33060	31220	
2842	0	32441	32336	31228	
2843	0	32690	33912	31232	
2844	0	32944	31284	31232	
2845	0	33088	30959	31212	
2846	0	33305	32421	31202	
2847	0	33405	33053	31189	
2848	0	33500	32756	31193	
2849	0	33536	33296	31182	
2850	0	33384	32708	31169	
2851	0	33352	32608	31176	
2852	0	33228	32700	31182	
2853	0	32956	32917	31197	
2854	0	32676	32821	31220	
2855	0	32436	32956	31228	
2856	0	32316	33210	31231	
2857	0	32112	32732	31236	
2858	0	32040	32884	31247	
2859	0	31940	32924	31233	
2860	0	32028	32952	31223	
2861	0	32244	33044	31218	
2862	0	32552	32741	31221	
2863	0	32720	32344	31182	
2864	0	32852	31424	31176	
2865	0	33096	29673	31164	
2866	0	33324	32736	31161	
2867	0	33468	31839	31151	
2868	0	33552	34096	31118	
2869	0	33504	34245	31120	
2870	0	33436	34630	31092	
2871	0	33337	36188	31080	
2872	0	33080	36012	31085	
2873	0	32704	34137	31093	
2874	0	32416	32224	31077	
2875	0	32266	29040	31076	
2876	0	32164	31788	31068	
2877	0	32180	32873	31085	
2878	0	32272	32290	31076	
2879	0	32393	32188	31073	
2880	0	32366	31301	31064	
2881	0	32416	32241	31064	
2882	0	32400	35072	31076	
2883	0	32476	31612	31076	
2884	0	32644	32376	31076	
2885	0	32972	33128	31096	
2886	0	33240	30108	31085	
2887	0	33860	33668	31060	
2888	0	34129	35328	31048	
2889	0	33572	33982	31029	
2890	0	33308	32828	30992	
2891	0	33194	32277	30966	
2892	0	33065	32484	30964	
2893	0	32809	32452	30938	
2894	0	32582	32448	30946	
2895	0	32364	32964	30968	
2896	0	32192	32341	31008	
2897	0	32047	33041	31048	
2898	0	31972	33129	31068	
2899	0	31983	31165	31073	
2900	0	32172	32628	31079	
2901	0	32232	34941	31098	
2902	0	32448	34542	31116	
2903	0	32672	32508	31120	
2904	0	32912	33457	31140	
2905	0	33116	33328	31132	
2906	0	33288	32865	31136	
2907	0	33389	32284	31133	
2908	0	33496	31048	31145	
2909	0	33616	31491	31161	
2910	0	33470	31900	31144	
2911	0	33284	32301	31136	
2912	0	33261	31976	31116	
2913	0	32912	33405	31128	
2914	0	32748	34589	31116	
2915	0	32532	34184	31110	
2916	0	32348	33504	31104	
2917	0	32112	31432	31102	
2918	0	31905	31746	31096	
2919	0	31972	33724	31125	
2920	0	32160	32813	31108	
2921	0	32280	33585	31136	
2922	0	32456	36213	31126	
2923	0	32649	33020	31132	
2924	0	32900	32129	31121	
2925	0	33090	32289	31104	
2926	0	33344	32610	31092	
2927	0	33437	31604	31036	
2928	0	33476	30940	30969	
2929	0	33508	32420	30928	
2930	0	33452	33566	30944	
2931	0	33348	31544	31020	
2932	0	33176	32268	31152	
2933	0	32936	33364	31248	
2934	0	32780	34387	31333	
2935	0	32444	29480	31364	
2936	0	32220	32556	31349	
2937	0	32108	34162	31334	
2938	0	32032	34964	31306	
2939	0	31976	34502	31236	
2940	0	32036	33504	31168	
2941	0	32120	31372	31140	
2942	0	32380	32981	31096	
2943	0	32598	32132	31076	
2944	0	32868	31780	31084	
2945	0	33308	34128	31108	
2946	0	33464	34183	31145	
2947	0	33486	32308	31164	
2948	0	33452	30770	31180	
2949	0	33428	31092	31176	
2950	0	33212	32976	31200	
2951	0	32870	33645	31206	
2952	0	32760	32420	31173	
2953	0	32920	31807	31169	
2954	0	33704	33004	31148	
2955	0	33692	35144	31132	
2956	0	32897	34034	31124	
2957	0	32080	33664	31119	
2958	0	31554	33595	31128	
2959	0	31709	33604	31105	
2960	0	31944	32478	31105	
2961	0	32060	33468	31104	
2962	0	32253	33016	31098	
2963	0	32520	31604	31094	
2964	0	32844	31428	31104	
2965	0	33068	31596	31109	
2966	0	33264	31498	31119	
2967	0	33328	32134	31116	
2968	0	33423	32888	31102	
2969	0	33432	33333	31101	
2970	0	33323	33617	31112	
2971	0	33228	32060	31125	
2972	0	33204	31454	31116	
2973	0	33032	30340	31140	
2974	0	32856	35092	31145	
2975	0	32648	35796	31142	
2976	0	32480	34465	31141	
2977	0	32328	33404	31164	
2978	0	32012	33260	31144	
2979	0	31952	33480	31144	
2980	0	31964	31276	31136	
2981	0	32185	31602	31135	
2982	0	32432	30772	31132	
2983	0	32576	32626	31136	
2984	0	32810	35848	31140	
2985	0	33022	35605	31141	
2986	0	33256	33381	31152	
2987	0	33412	27092	31161	
2988	0	33500	30252	31148	
2989	0	33636	33382	31165	
2990	0	33500	34440	31168	
2991	0	33360	34697	31164	
2992	0	33180	30540	31144	
2993	0	32972	32344	31148	
2994	0	32756	36326	31132	
2995	0	32500	33472	31128	
2996	0	32232	30544	31121	
2997	0	32104	29890	31108	
2998	0	32044	32640	31102	
2999	0	32008	34700	31109	
3000	0	32068	34568	31121	
3001	0	32260	34304	31109	
3002	0	32421	35628	31108	
3003	0	32698	34148	31108	
3004	0	32912	32528	31100	
3005	0	33024	31790	31104	
3006	0	33276	33239	31120	
3007	0	33324	31656	31124	
3008	0	33416	31760	31142	
3009	0	33373	31500	31132	
3010	0	33330	32164	31112	
3011	0	33124	32140	31096	
3012	0	32980	30753	31094	
3013	0	32645	34180	31066	
3014	0	32546	34916	31060	
3015	0	32396	34008	31064	
3016	0	32154	29749	31064	
3017	0	32564	33236	31060	
3018	0	33120	31832	31057	
3019	0	32620	33141	31076	
3020	0	32424	34576	31076	
3021	0	32688	33102	31076	
3022	0	32760	31988	31069	
3023	0	32624	33141	31057	
3024	0	32749	32925	31068	
3025	0	32884	30985	31074	
3026	0	33000	32100	31076	
3027	0	33088	28693	31064	
3028	0	33252	30356	31072	
3029	0	33320	37732	31076	
3030	0	33300	37056	31089	
3031	0	33252	35638	31084	
3032	0	33228	32624	31108	
3033	0	32920	30520	31104	
3034	0	32664	30460	31110	
3035	0	32488	33308	31104	
3036	0	32272	33400	31102	
3037	0	32116	33560	31108	
3038	0	31978	32385	31116	
3039	0	31928	32847	31108	
3040	0	32132	33805	31088	
3041	0	32260	34041	31072	
3042	0	32420	31464	31072	
3043	0	32700	31617	31058	
3044	0	32924	29937	31056	
3045	0	33128	30604	31059	
3046	0	33248	33292	31040	
3047	0	33320	33788	31032	
3048	0	33432	34454	31042	
3049	0	33469	34852	31050	
3050	0	33558	34744	31036	
3051	0	33480	33736	31033	
3052	0	33313	33028	31056	
3053	0	33052	32868	31026	
3054	0	32800	33750	31030	
3055	0	32516	30992	31028	
3056	0	32236	32040	31032	
3057	0	32140	32618	31040	
3058	0	31946	32896	31047	
3059	0	31961	32721	31042	
3060	0	32103	31216	31058	
3061	0	32200	30341	31057	
3062	0	32388	31628	31040	
3063	0	32612	34024	31052	
3064	0	32832	36100	31041	
3065	0	33044	31860	31029	
3066	0	33236	32912	31020	
3067	0	33384	36359	31008	
3068	0	33568	32548	31009	
3069	0	33588	32442	31000	
3070	0	33506	33464	31000	
3071	0	33429	32218	31008	
3072	0	33328	27148	30992	
3073	0	33068	27193	30986	
3074	0	32756	36268	30992	
3075	0	32524	32245	30974	
3076	0	32200	31552	30978	
3077	0	32104	35628	30992	
3078	0	31940	33500	31016	
3079	0	32028	30180	31048	
3080	0	32092	35809	31060	
3081	0	32176	36748	31065	
3082	0	32472	37472	31060	
3083	0	32664	35836	31084	
3084	0	32904	34020	31072	
3085	0	33037	30908	31056	
3086	0	33240	28592	31045	
3087	0	33368	29489	31052	
3088	0	33436	30860	31062	
3089	0	33488	35784	31070	
3090	0	33376	35677	31084	
3091	0	33440	32276	31060	
3092	0	33273	32760	31069	
3093	0	33060	33148	31094	
3094	0	32848	33821	31112	
3095	0	32616	32589	31108	
3096	0	32332	31077	31108	
3097	0	32069	31228	31102	
3098	0	32028	32188	31110	
3099	0	31936	33348	31072	
3100	0	32032	33172	31082	
3101	0	32180	32972	31066	
3102	0	32348	30713	31048	
3103	0	32604	31112	31044	
3104	0	32858	32907	31032	
3105	0	32972	35537	31028	
3106	0	33260	35048	31032	
3107	0	33474	34120	31028	
3108	0	33536	31676	31020	
3109	0	33504	28672	31022	
3110	0	33269	30364	31024	
3111	0	33012	33087	31032	
3112	0	33078	33192	31040	
3113	0	33128	32208	31032	
3114	0	32929	33004	31021	
3115	0	32833	36056	31016	
3116	0	33288	35246	31016	
3117	0	32572	33764	31012	
3118	0	31888	32416	31005	
3119	0	31692	32338	30998	
3120	0	31792	32380	30984	
3121	0	32088	33200	30976	
3122	0	32352	33196	30996	
3123	0	32512	33009	31008	
3124	0	32700	31376	31000	
3125	0	33048	31076	30997	
3126	0	33252	33152	31009	
3127	0	33308	34460	31012	
3128	0	33425	31298	31002	
3129	0	33428	30846	30973	
3130	0	33448	35176	30996	
3131	0	33480	34688	30983	
3132	0	33280	32098	30989	
3133	0	33012	32900	30967	
3134	0	32764	31340	30969	
3135	0	32496	33526	30983	
3136	0	32249	31340	31004	
3137	0	32157	30476	31020	
3138	0	32020	35040	31028	
3139	0	32016	32564	31026	
3140	0	32133	32964	31022	
3141	0	32168	29416	31004	
3142	0	32372	35436	31008	
3143	0	32572	35636	31008	
3144	0	32882	35677	31028	
3145	0	32960	34116	31012	
3146	0	33112	33548	31000	
3147	0	33376	30068	30988	
3148	0	33456	29322	30976	
3149	0	33504	32732	30972	
3150	0	33504	33069	30978	
3151	0	33540	34472	30948	
3152	0	33474	32696	30929	
3153	0	33045	31652	30940	
3154	0	32704	32460	30984	
3155	0	32408	35127	30992	
3156	0	32272	32244	31018	
3157	0	32128	30688	31052	
3158	0	31974	31160	31064	
3159	0	31956	27708	31062	
3160	0	32104	31556	31036	
3161	0	32264	38384	31032	
3162	0	32384	36586	31036	
3163	0	32596	34768	31037	
3164	0	32748	35496	31056	
3165	0	33092	34960	31053	
3166	0	33244	31760	31058	
3167	0	33340	33416	31060	
3168	0	33348	31748	31073	
3169	0	33476	29840	31095	
3170	0	33438	31525	31108	
3171	0	33456	31096	31110	
3172	0	33465	32460	31110	
3173	0	33252	32295	31115	
3174	0	32856	34532	31101	
3175	0	32520	33252	31117	
3176	0	32216	34184	31156	
3177	0	32056	30850	31160	
3178	0	31996	27328	31160	
3179	0	31952	30713	31129	
3180	0	32088	34116	31124	
3181	0	32212	38288	31142	
3182	0	32368	36644	31144	
3183	0	32680	34534	31137	
3184	0	32800	33500	31156	
3185	0	33016	31828	31148	
3186	0	33278	31959	31140	
3187	0	33360	31758	31104	
3188	0	33448	32041	31116	
3189	0	33484	32184	31128	
3190	0	33436	32658	31140	
3191	0	33380	31432	31152	
3192	0	33300	29926	31152	
3193	0	33016	31368	31160	
3194	0	32772	33972	31156	
3195	0	32576	34238	31168	
3196	0	32244	34172	31170	
3197	0	32045	33586	31156	
3198	0	31980	31564	31149	
3199	0	31972	31996	31144	
3200	0	32104	33508	31128	
3201	0	32276	34858	31112	
3202	0	32492	35741	31104	
3203	0	32680	32252	31080	
3204	0	32896	32364	31048	
3205	0	33040	32680	31036	
3206	0	33232	32148	30999	
3207	0	33344	32284	31000	
3208	0	33428	30992	31009	
3209	0	33488	31996	31010	
3210	0	33496	32760	31008	
3211	0	33320	32564	31012	
3212	0	33180	32682	31032	
3213	0	33040	35280	31032	
3214	0	32714	32928	31032	
3215	0	32480	33265	31020	
3216	0	32292	33064	31022	
3217	0	32132	30384	31046	
3218	0	31804	31934	31060	
3219	0	31808	31016	31040	
3220	0	32132	34008	31024	
3221	0	32368	36720	31000	
3222	0	32240	35300	30972	
3223	0	32992	32934	30945	
3224	0	33684	29653	30900	
3225	0	33144	27984	30884	
3226	0	33062	29380	30884	
3227	0	33228	36500	30868	
3228	0	33327	39392	30872	
3229	0	33317	36836	30884	
3230	0	33249	31104	30904	
3231	0	33196	30744	30904	
3232	0	33041	32844	30911	
3233	0	32964	33101	30922	
3234	0	32825	32724	30933	
3235	0	32736	32769	30949	
3236	0	33040	33036	30980	
3237	0	32528	32604	30990	
3238	0	32128	32562	30980	
3239	0	31844	32274	30978	
3240	0	31884	33176	30978	
3241	0	31972	33893	31008	
3242	0	32188	32042	31024	
3243	0	32568	31628	31012	
3244	0	32804	31712	31020	
3245	0	32928	32521	31034	
3246	0	33204	32832	31040	
3247	0	33361	33252	31041	
3248	0	33520	33212	31044	
3249	0	33568	33704	31055	
3250	0	33489	31332	31048	
3251	0	33448	30461	31026	
3252	0	33356	33064	31050	
3253	0	33112	34132	31064	
3254	0	32780	31924	31060	
3255	0	32480	34057	31072	
3256	0	32248	33172	31076	
3257	0	32000	32025	31058	
3258	0	31884	33605	31068	
3259	0	31944	33940	31074	
3260	0	32060	34164	31080	
3261	0	32257	31825	31076	
3262	0	32604	30892	31064	
3263	0	32848	33632	31042	
3264	0	32920	34349	31060	
3265	0	33004	31590	31065	
3266	0	33112	32957	31066	
3267	0	33325	38009	31085	
3268	0	33389	33348	31084	
3269	0	33500	31664	31076	
3270	0	33545	32129	31057	
3271	0	33401	28868	31084	
3272	0	33300	29960	31108	
3273	0	33076	34688	31096	
3274	0	32748	32828	31092	
3275	0	32596	32637	31100	
3276	0	32280	33322	31114	
3277	0	32068	33146	31132	
3278	0	31988	34456	31116	
3279	0	31980	33936	31136	
3280	0	32165	32505	31124	
3281	0	32306	32074	31120	
3282	0	32412	32444	31132	
3283	0	32552	30797	31120	
3284	0	32612	30848	31095	
3285	0	32904	32640	31078	
3286	0	33205	34473	31068	
3287	0	33152	33388	31060	
3288	0	33044	31339	31060	
3289	0	33036	27420	31056	
3290	0	33316	32656	31077	
3291	0	33287	36125	31094	
3292	0	33388	34204	31088	
3293	0	34644	37500	31104	
3294	0	34232	37285	31106	
3295	0	32774	34308	31108	
3296	0	32040	33116	31089	
3297	0	31844	30880	31076	
3298	0	31764	33182	31052	
3299	0	31632	32852	31034	
3300	0	32036	32173	31041	
3301	0	32200	31581	31036	
3302	0	32265	32695	31030	
3303	0	32401	31672	31044	
3304	0	32732	32412	31060	
3305	0	33044	32640	31046	
3306	0	33296	32345	31028	
3307	0	33450	31940	31038	
3308	0	33396	31578	31060	
3309	0	33448	32221	31032	
3310	0	33452	33233	31056	
3311	0	33352	33278	31053	
3312	0	33280	32362	31076	
3313	0	33128	32096	31071	
3314	0	32818	33580	31069	
3315	0	32532	33252	31080	
3316	0	32320	32989	31060	
3317	0	32200	33309	31078	
3318	0	32096	33696	31088	
3319	0	32004	37006	31072	
3320	0	32088	29545	31060	
3321	0	32216	31724	31056	
3322	0	32309	34609	31024	
3323	0	32446	31292	30984	
3324	0	32784	29696	30972	
3325	0	32950	33924	30973	
3326	0	33246	34948	30998	
3327	0	33364	33792	30996	
3328	0	33429	31846	31002	
3329	0	33528	31412	31012	
3330	0	33440	31776	31012	
3331	0	33396	32508	31008	
3332	0	33348	32072	31008	
3333	0	33072	32276	31016	
3334	0	32797	35664	31029	
3335	0	32572	34589	31032	
3336	0	32312	30983	31032	
3337	0	32188	31716	31037	
3338	0	32048	33808	31048	
3339	0	32140	35226	31068	
3340	0	32142	36452	31064	
3341	0	32246	34980	31048	
3342	0	32354	32588	31052	
3343	0	32532	30380	31037	
3344	0	32780	30596	31014	
3345	0	33024	32396	31010	
3346	0	33148	32276	31004	
3347	0	33293	31548	30997	
3348	0	33436	32372	31017	
3349	0	33436	32880	31032	
3350	0	33464	33016	31066	
3351	0	33484	30168	31092	
3352	0	33272	31636	31089	
3353	0	32996	34980	31100	
3354	0	32760	37048	31090	
3355	0	32612	32832	31064	
3356	0	32248	32002	31076	
3357	0	31964	33988	31068	
3358	0	31920	33950	31068	
3359	0	31904	33606	31068	
3360	0	32016	32540	31080	
3361	0	32334	32345	31076	
3362	0	32481	32436	31088	
3363	0	32793	32488	31065	
3364	0	33321	34341	31090	
3365	0	33268	32173	31084	
3366	0	33356	30559	31088	
3367	0	33364	30594	31102	
3368	0	33344	33924	31101	
3369	0	33324	32764	31074	
3370	0	33328	33886	31072	
3371	0	33344	34728	31053	
3372	0	33244	31769	31064	
3373	0	32984	32142	31069	
3374	0	32840	31344	31068	
3375	0	32672	32036	31080	
3376	0	32364	32996	31086	
3377	0	32144	34412	31096	
3378	0	32045	32408	31106	
3379	0	31817	30634	31104	
3380	0	32008	31840	31088	
3381	0	32288	35293	31100	
3382	0	32600	33060	31076	
3383	0	32569	33222	31052	
3384	0	32606	34256	31036	
3385	0	32928	33428	31024	
3386	0	32972	32517	31028	
3387	0	33100	31848	31012	
3388	0	33316	30061	31022	
3389	0	34024	31294	31000	
3390	0	33708	31128	31010	
3391	0	33332	33039	31036	
3392	0	33268	37384	31032	
3393	0	33020	35908	31044	
3394	0	32890	34316	31044	
3395	0	32706	33112	31064	
3396	0	32368	32059	31066	
3397	0	32108	32740	31072	
3398	0	31948	33728	31088	
3399	0	31932	32532	31088	
3400	0	32307	32072	31088	
3401	0	32376	31702	31077	
3402	0	32152	32184	31085	
3403	0	32468	31864	31077	
3404	0	32728	33552	31085	
3405	0	32948	33076	31068	
3406	0	33204	31124	31068	
3407	0	33308	30375	31092	
3408	0	33145	32712	31081	
3409	0	33204	36496	31072	
3410	0	33252	35928	31068	
3411	0	33348	29492	31054	
3412	0	33300	33340	31045	
3413	0	33884	29925	31040	
3414	0	33348	28749	31016	
3415	0	33064	38720	31014	
3416	0	32664	38216	31020	
3417	0	32252	32470	31026	
3418	0	31912	33069	31016	
3419	0	31796	30222	31000	
3420	0	31900	31700	30993	
3421	0	32016	33596	31004	
3422	0	32264	33620	30996	
3423	0	32472	34196	31006	
3424	0	32773	31412	31000	
3425	0	32985	26534	30997	
3426	0	33208	27108	31000	
3427	0	33296	33632	31008	
3428	0	33336	36948	31040	
3429	0	33556	36656	31056	
3430	0	33532	34123	31036	
3431	0	33356	36385	31036	
3432	0	33216	32472	31024	
3433	0	33080	32784	31038	
3434	0	32844	32488	31032	
3435	0	32641	34656	31036	
3436	0	32372	33772	31040	
3437	0	32220	32788	31040	
3438	0	32124	32024	31046	
3439	0	31980	32257	31036	
3440	0	32060	32540	31036	
3441	0	32164	32900	31036	
3442	0	32253	33380	31049	
3443	0	32436	32712	31048	
3444	0	32692	32326	31064	
3445	0	32913	30956	31056	
3446	0	33260	30012	31052	
3447	0	33684	34052	31044	
3448	0	33564	33404	31044	
3449	0	33500	32180	31022	
3450	0	33500	32920	31008	
3451	0	33409	32960	31004	
3452	0	33260	32676	30970	
3453	0	33044	32841	30976	
3454	0	32832	33429	30984	
3455	0	32576	33321	31005	
3456	0	32364	30436	31020	
3457	0	32208	29988	31070	
3458	0	32010	33556	31080	
3459	0	31976	35792	31088	
3460	0	32004	34024	31085	
3461	0	32188	32534	31105	
3462	0	32324	33822	31080	
3463	0	32513	33284	31088	
3464	0	32768	33056	31100	
3465	0	32984	33124	31085	
3466	0	33209	33920	31109	
3467	0	33316	33477	31100	
3468	0	33376	31764	31096	
3469	0	33476	31204	31104	
3470	0	33476	27728	31076	
3471	0	33424	34232	31081	
3472	0	33243	36728	31084	
3473	0	33036	32689	31100	
3474	0	32816	32292	31116	
3475	0	32684	34436	31124	
3476	0	32252	33825	31109	
3477	0	32100	33416	31096	
3478	0	32244	32533	31096	
3479	0	32040	32676	31100	
3480	0	31992	32792	31092	
3481	0	32756	32788	31077	
3482	0	32800	32224	31067	
3483	0	32488	30215	31076	
3484	0	32636	31471	31068	
3485	0	32900	35494	31084	
3486	0	32920	36370	31092	
3487	0	33009	32436	31080	
3488	0	33240	32135	31064	
3489	0	33476	31484	31064	
3490	0	33352	32418	31049	
3491	0	33232	33716	31048	
3492	0	33400	32896	31030	
3493	0	33692	32936	31008	
3494	0	33056	32986	31004	
3495	0	32722	32692	31012	
3496	0	32436	32028	30998	
3497	0	32076	31540	30985	
3498	0	31962	32812	31008	
3499	0	31980	33484	30994	
3500	0	31963	33780	30993	
3501	0	32088	29708	30988	
3502	0	32312	33324	30992	
3503	0	32516	32756	31026	
3504	0	32704	30511	31032	
3505	0	32932	34156	31032	
3506	0	33241	36600	31026	
3507	0	33420	34892	30996	
3508	0	33428	32160	30980	
3509	0	33564	29804	30974	
3510	0	33600	32076	30992	
3511	0	33410	34432	31017	
3512	0	33248	31473	31004	
3513	0	33108	33568	31016	
3514	0	32808	33684	31044	
3515	0	32720	33840	31060	
3516	0	32449	34272	31068	
3517	0	32208	35780	31072	
3518	0	32032	32384	31088	
3519	0	31868	30184	31108	
3520	0	32013	33208	31108	
3521	0	32072	35128	31116	
3522	0	32208	33328	31112	
3523	0	32505	28356	31092	
3524	0	32732	30188	31096	
3525	0	32997	30944	31087	
3526	0	33152	33652	31073	
3527	0	33332	33716	31080	
3528	0	33380	34764	31100	
3529	0	33408	32918	31104	
3530	0	33320	29774	31064	
3531	0	33368	27468	31034	
3532	0	33420	34396	31010	
3533	0	33172	38268	31013	
3534	0	32952	35733	30996	
3535	0	32848	33772	30973	
3536	0	33384	33180	30952	
3537	0	32780	32456	30970	
3538	0	32156	32538	30982	
3539	0	31940	32488	30996	
3540	0	31816	32588	31001	
3541	0	31988	32801	30989	
3542	0	32088	32782	31006	
3543	0	32436	32852	31008	
3544	0	32700	31906	31004	
3545	0	32852	29726	31008	
3546	0	33160	31706	31014	
3547	0	33350	35493	31021	
3548	0	33408	34785	31029	
3549	0	33428	33844	31030	
3550	0	33437	31800	31020	
3551	0	33420	32914	30984	
3552	0	33224	32840	31007	
3553	0	33100	31772	30990	
3554	0	32804	31034	30992	
3555	0	32664	33060	31005	
3556	0	32356	33429	31022	
3557	0	32189	34884	31046	
3558	0	32180	31432	31056	
3559	0	32096	30925	31056	
3560	0	32104	32229	31064	
3561	0	32186	33730	31088	
3562	0	32244	35376	31077	
3563	0	32480	30052	31065	
3564	0	32704	30120	31077	
3565	0	32892	36180	31060	
3566	0	33080	37496	31066	
3567	0	33240	33392	31076	
3568	0	33404	30208	31080	
3569	0	33467	27716	31065	
3570	0	33452	30828	31061	
3571	0	33392	35852	31046	
3572	0	33384	37044	31054	
3573	0	33208	35968	31044	
3574	0	32900	32306	31058	
3575	0	32800	31336	31048	
3576	0	32516	33872	31045	
3577	0	32316	32385	31036	
3578	0	32000	31605	31032	
3579	0	31884	33140	31044	
3580	0	31976	32810	31041	
3581	0	32144	31393	31025	
3582	0	32332	32156	31012	
3583	0	32400	32279	31020	
3584	0	32508	29080	31032	
3585	0	32737	30356	31048	
3586	0	33040	33764	31044	
3587	0	33270	36485	31048	
3588	0	33844	36676	31037	
3589	0	34184	34688	31012	
3590	0	33612	33733	31024	
3591	0	33396	32833	31028	
3592	0	33224	31720	31040	
3593	0	33074	31582	31044	
3594	0	32864	31782	31016	
3595	0	32648	32339	31028	
3596	0	32340	33053	31028	
3597	0	32136	34878	31047	
3598	0	31992	30689	31044	
3599	0	32000	32701	31040	
3600	0	32034	33956	31022	
3601	0	32294	30185	31025	
3602	0	32376	31380	31030	
3603	0	32556	33221	31049	
3604	0	32716	33368	31032	
3605	0	32900	35160	31027	
3606	0	33100	33580	31021	
3607	0	33264	32643	31001	
3608	0	33364	30728	31007	
3609	0	33428	31676	30976	
3610	0	33505	32772	30988	
3611	0	33444	32896	30982	
3612	0	33408	34212	30992	
3613	0	33144	34580	31004	
3614	0	32830	33284	31020	
3615	0	32604	31912	31024	
3616	0	32352	31727	31028	
3617	0	32321	34524	31010	
3618	0	32040	33392	31024	
3619	0	31936	32241	31033	
3620	0	32216	31792	31060	
3621	0	32281	31616	31052	
3622	0	32396	32380	31070	
3623	0	32796	32728	31057	
3624	0	32900	32334	31056	
3625	0	32880	32390	31065	
3626	0	33012	33319	31081	
3627	0	33200	32532	31085	
3628	0	33340	32117	31100	
3629	0	33464	33856	31088	
3630	0	33444	36640	31094	
3631	0	33432	34956	31084	
3632	0	33316	33013	31102	
3633	0	33104	32920	31112	
3634	0	32800	33632	31102	
3635	0	32704	30392	31092	
3636	0	32428	31964	31100	
3637	0	32208	30552	31110	
3638	0	32128	31144	31106	
3639	0	32000	34496	31106	
3640	0	32065	34684	31122	
3641	0	32172	35002	31096	
3642	0	32194	32000	31103	
3643	0	32484	31980	31095	
3644	0	32498	33484	31098	
3645	0	32660	31820	31064	
3646	0	33108	30144	31063	
3647	0	33472	33680	31043	
3648	0	33549	33280	31054	
3649	0	33616	31748	31049	
3650	0	33644	31500	31052	
3651	0	33596	33852	31036	
3652	0	33543	30980	31036	
3653	0	33268	32302	31022	
3654	0	32864	34409	31012	
3655	0	32608	35692	31000	
3656	0	32304	33572	30993	
3657	0	32150	32416	30990	
3658	0	32012	32784	31001	
3659	0	31892	33405	31006	
3660	0	32006	33381	31008	
3661	0	32112	33026	31027	
3662	0	32196	34124	31016	
3663	0	32492	30392	30996	
3664	0	32704	30343	31024	
3665	0	32942	33185	31032	
3666	0	33176	33824	31038	
3667	0	33361	32864	31024	
3668	0	33344	28310	31028	
3669	0	33384	30554	31032	
3670	0	33244	36560	31008	
3671	0	32933	38816	31015	
3672	0	32924	36021	30988	
3673	0	32960	31368	31025	
3674	0	32880	31341	31013	
3675	0	33184	30288	31012	
3676	0	34165	26732	31020	
3677	0	33296	35508	31012	
3678	0	32061	40696	31024	
3679	0	31714	35032	31024	
3680	0	31773	32224	31013	
3681	0	31954	32444	30999	
3682	0	32012	32348	30983	
3683	0	32290	32636	30993	
3684	0	32516	32354	31008	
3685	0	32774	31080	31006	
3686	0	33072	32333	31008	
3687	0	33216	31962	31012	
3688	0	33384	31522	31004	
3689	0	33488	32740	30996	
3690	0	33528	33413	30998	
3691	0	33525	34688	31004	
3692	0	33262	33444	30985	
3693	0	33128	32545	30983	
3694	0	32840	31072	31015	
3695	0	32624	32732	31020	
3696	0	32416	31688	31010	
3697	0	32230	32248	31012	
3698	0	32105	35561	31036	
3699	0	32141	32644	31002	
3700	0	32152	31375	30984	
3701	0	32256	32076	30996	
3702	0	32416	33396	30992	
3703	0	32441	33860	30994	
3704	0	32588	33468	31001	
3705	0	32700	32728	30986	
3706	0	32988	32716	30993	
3707	0	33284	32581	30988	
3708	0	33524	33124	31018	
3709	0	33596	31100	31037	
3710	0	33640	31904	31049	
3711	0	33656	33685	31048	
3712	0	33450	31944	31036	
3713	0	33116	33773	31028	
3714	0	32781	32745	31004	
3715	0	32684	32013	30993	
3716	0	32376	34081	31012	
3717	0	32216	32469	31002	
3718	0	32092	30965	31000	
3719	0	31984	32700	30992	
3720	0	32016	34360	31008	
3721	0	32164	33765	30993	
3722	0	32359	32308	31000	
3723	0	32588	33365	31009	
3724	0	32657	32384	31008	
3725	0	32940	33400	30978	
3726	0	33144	33983	30990	
3727	0	33244	31536	31008	
3728	0	33300	31665	31016	
3729	0	33484	31608	31012	
3730	0	33628	33240	31002	
3731	0	33456	35004	31017	
3732	0	33465	34388	31028	
3733	0	33157	32881	31014	
3734	0	32948	33637	31002	
3735	0	32648	32570	31012	
3736	0	32356	31912	31008	
3737	0	32160	31117	31028	
3738	0	31994	31572	31026	
3739	0	31928	34648	31053	
3740	0	31994	36154	31046	
3741	0	32168	33740	31040	
3742	0	32344	31109	31032	
3743	0	32504	31756	31018	
3744	0	32732	31434	31005	
3745	0	32900	31840	30994	
3746	0	33088	33580	30992	
3747	0	33368	35962	30981	
3748	0	33408	29177	30988	
3749	0	33536	32834	30964	
3750	0	33600	31224	30952	
3751	0	33553	32280	30924	
3752	0	33348	32204	30924	
3753	0	33166	34712	30920	
3754	0	32960	34700	30904	
3755	0	32673	34935	30916	
3756	0	32392	33168	30916	
3757	0	32216	32365	30912	
3758	0	32022	32628	30920	
3759	0	31920	32244	30925	
3760	0	31928	32604	30932	
3761	0	32104	32730	30943	
3762	0	32208	32588	30964	
3763	0	32418	32528	30972	
3764	0	32624	32624	30973	
3765	0	32909	32764	30983	
3766	0	33156	32726	30980	
3767	0	33476	31860	30963	
3768	0	33696	30988	30947	
3769	0	33608	32880	30956	
3770	0	33540	34369	30944	
3771	0	33352	32580	30948	
3772	0	33384	31944	30925	
3773	0	33317	33072	30920	
3774	0	32968	33828	30930	
3775	0	32728	33304	30928	
3776	0	32417	31416	30938	
3777	0	32180	32310	30949	
3778	0	31964	34384	30986	
3779	0	31920	36290	30998	
3780	0	31984	33856	30992	
3781	0	32080	32847	30994	
3782	0	32296	32313	30986	
3783	0	32420	32946	30982	
3784	0	32680	31448	30980	
3785	0	32852	30016	30972	
3786	0	33130	30048	30956	
3787	0	33285	33738	30936	
3788	0	33276	34948	30945	
3789	0	33328	34566	30976	
3790	0	33392	33811	30996	
3791	0	33364	33592	31005	
3792	0	33400	31508	31024	
3793	0	33829	30516	31032	
3794	0	33268	31696	31036	
3795	0	32729	32124	31024	
3796	0	32328	30496	31060	
3797	0	32076	33597	31045	
3798	0	31916	32972	31033	
3799	0	31893	32088	31021	
3800	0	31996	35422	31016	
3801	0	32244	36340	31024	
3802	0	32332	35236	31028	
3803	0	32364	32700	31016	
3804	0	32508	32343	31018	
3805	0	32854	33325	31026	
3806	0	33192	33224	31030	
3807	0	33498	31288	31028	
3808	0	33432	32143	31020	
3809	0	33309	31622	31012	
3810	0	33336	32102	31017	
3811	0	33344	34096	31008	
3812	0	33244	31462	31032	
3813	0	33648	32108	31056	
3814	0	33397	33373	31061	
3815	0	33145	33108	31057	
3816	0	32616	32069	31058	
3817	0	32092	32424	31046	
3818	0	31884	33932	31064	
3819	0	31764	34405	31060	
3820	0	31884	32919	31068	
3821	0	32081	29328	31040	
3822	0	32120	28278	31044	
3823	0	32308	34488	31052	
3824	0	32532	39286	31064	
3825	0	32752	36156	31066	
3826	0	32980	30972	31040	
3827	0	33200	33412	31036	
3828	0	33280	32608	31036	
3829	0	33660	32336	31022	
3830	0	33804	32462	31026	
3831	0	33742	31341	31048	
3832	0	33424	31523	31051	
3833	0	33156	32605	31032	
3834	0	32804	32157	31024	
3835	0	32521	33029	31024	
3836	0	32234	33260	31036	
3837	0	32264	30792	31032	
3838	0	32368	32448	31028	
3839	0	32884	34336	31032	
3840	0	32108	34965	31020	
3841	0	31956	34232	31036	
3842	0	32112	31500	31033	
3843	0	32197	31453	31044	
3844	0	32612	32013	31032	
3845	0	32806	34928	31020	
3846	0	33044	34266	31042	
3847	0	33380	31342	31032	
3848	0	33508	32280	31040	
3849	0	33524	32432	31020	
3850	0	33544	32068	31036	
3851	0	33484	30665	31026	
3852	0	33364	31164	31020	
3853	0	33200	31632	31012	
3854	0	32944	35820	31020	
3855	0	32690	33740	31016	
3856	0	32413	32136	30992	
3857	0	32232	35748	30988	
3858	0	32050	35952	30972	
3859	0	31924	33270	30976	
3860	0	31992	31441	30976	
3861	0	32168	32580	30984	
3862	0	32240	33888	30994	
3863	0	32476	32093	30996	
3864	0	32602	32380	31000	
3865	0	32820	33687	30996	
3866	0	33132	30565	30988	
3867	0	33344	32304	30984	
3868	0	33437	35692	30982	
3869	0	33484	32536	30985	
3870	0	33376	30588	30988	
3871	0	33322	31812	30978	
3872	0	33204	33696	30980	
3873	0	33117	34532	30980	
3874	0	33200	30764	30996	
3875	0	33488	33296	30992	
3876	0	32769	31432	30972	
3877	0	32172	32145	30952	
3878	0	31960	35924	30964	
3879	0	31801	32828	30952	
3880	0	31840	33096	30960	
3881	0	31940	34456	30964	
3882	0	32322	31884	30955	
3883	0	32493	32980	30978	
3884	0	32692	32612	30972	
3885	0	32740	32088	30965	
3886	0	33012	32140	30966	
3887	0	33272	32638	30973	
3888	0	33448	33096	30990	
3889	0	33504	32842	30980	
3890	0	33588	30536	30976	
3891	0	33498	31441	30984	
3892	0	33412	34840	30989	
3893	0	33252	33933	31004	
3894	0	33020	34116	30996	
3895	0	32724	33461	31016	
3896	0	32478	33248	31032	
3897	0	32242	32672	31028	
3898	0	32080	31948	31016	
3899	0	31996	31952	31006	
3900	0	31880	32890	30986	
3901	0	31949	32836	30996	
3902	0	32128	32802	30974	
3903	0	32328	32989	30988	
3904	0	32612	30344	30976	
3905	0	32932	28653	30973	
3906	0	33272	33828	30954	
3907	0	33481	37945	30960	
3908	0	33508	35272	30954	
3909	0	33552	32340	30945	
3910	0	33556	32793	30948	
3911	0	33460	32692	30932	
3912	0	33504	33807	30944	
3913	0	33328	33197	30969	
3914	0	33022	32352	30982	
3915	0	32688	33224	30988	
3916	0	32442	31469	30993	
3917	0	32216	31312	31020	
3918	0	32010	32272	31051	
3919	0	31924	30488	31041	
3920	0	31908	30180	31064	
3921	0	32057	34512	31072	
3922	0	32132	35284	31070	
3923	0	32336	35335	31056	
3924	0	32608	34266	31037	
3925	0	32897	32348	31044	
3926	0	33084	30220	31036	
3927	0	33260	32896	31044	
3928	0	33425	33996	31044	
3929	0	33518	32984	31044	
3930	0	33524	33472	31034	
3931	0	33516	32808	31000	
3932	0	33420	33152	31016	
3933	0	33228	33076	31012	
3934	0	32989	33280	31012	
3935	0	32728	32422	31023	
3936	0	32628	31652	31048	
3937	0	32557	31408	31048	
3938	0	32268	34252	31052	
3939	0	32016	35900	31040	
3940	0	31808	31964	31028	
3941	0	31874	31364	31051	
3942	0	32148	32220	31056	
3943	0	32456	34984	31028	
3944	0	32652	34868	31013	
3945	0	32824	30701	30992	
3946	0	33068	30705	31005	
3947	0	33308	29992	30996	
3948	0	33520	33708	30980	
3949	0	33504	33680	31000	
3950	0	33460	31520	30992	
3951	0	33288	35584	31001	
3952	0	33208	33776	30996	
3953	0	33144	29920	30996	
3954	0	32898	31844	30996	
3955	0	33124	32972	30972	
3956	0	33180	33953	30956	
3957	0	32553	31336	30988	
3958	0	31988	35056	30999	
3959	0	31712	34206	31016	
3960	0	31780	32732	31004	
3961	0	31957	32952	31014	
3962	0	32148	33036	31021	
3963	0	32325	34369	31008	
3964	0	32476	33268	30996	
3965	0	32760	30688	30999	
3966	0	32908	31900	31016	
3967	0	33120	31784	31013	
3968	0	33316	31257	31002	
3969	0	33644	33745	31000	
3970	0	33724	34084	31004	
3971	0	33581	33172	30993	
3972	0	33592	32128	31013	
3973	0	33592	34552	31008	
3974	0	33300	32856	30980	
3975	0	32831	31084	30978	
3976	0	32324	30152	30972	
3977	0	32132	30846	30984	
3978	0	31948	32810	30988	
3979	0	31924	35304	30985	
3980	0	32008	34452	31004	
3981	0	32052	37608	31017	
3982	0	32078	36136	31012	
3983	0	32412	31552	30992	
3984	0	32739	31268	30992	
3985	0	32784	35716	30957	
3986	0	32916	33362	30936	
3987	0	33212	31026	30936	
3988	0	33432	30852	30953	
3989	0	33508	31576	30936	
3990	0	33592	31028	30938	
3991	0	33508	33456	30936	
3992	0	33417	32777	30932	
3993	0	33341	32425	30934	
3994	0	33012	30452	30948	
3995	0	32780	30252	30940	
3996	0	32484	33236	30968	
3997	0	32264	32640	30964	
3998	0	32144	34284	30949	
3999	0	31932	34860	30954	
4000	0	32000	33253	30944	
4001	0	32066	32028	30940	
4002	0	32244	33026	30960	
4003	0	32340	33912	30976	
4004	0	32556	33542	31003	
4005	0	32808	32824	31012	
4006	0	33052	31764	31012	
4007	0	33316	32952	31024	
4008	0	33416	33090	31021	
4009	0	33492	32260	31029	
4010	0	33598	31032	31036	
4011	0	33444	31448	31038	
4012	0	33360	31892	31040	
4013	0	33304	35048	31064	
4014	0	33080	34008	31024	
4015	0	32782	33796	31040	
4016	0	32508	31012	31044	
4017	0	32284	34144	31024	
4018	0	32056	34761	31034	
4019	0	31948	33551	31044	
4020	0	31982	33096	31040	
4021	0	32014	32829	31030	
4022	0	32188	32870	31017	
4023	0	32304	33174	31018	
4024	0	32528	31343	31020	
4025	0	32912	31249	31029	
4026	0	33356	32104	31056	
4027	0	33408	31876	31097	
4028	0	33440	32961	31092	
4029	0	33498	34350	31081	
4030	0	33540	32631	31089	
4031	0	33512	33097	31061	
4032	0	33464	31429	31060	
4033	0	33206	32494	31044	
4034	0	33012	29345	31054	
4035	0	32776	31997	31080	
4036	0	32524	33125	31091	
4037	0	32200	35384	31088	
4038	0	32052	37797	31088	
4039	0	31900	36137	31096	
4040	0	31921	34220	31096	
4041	0	32048	32472	31076	
4042	0	32226	32152	31088	
4043	0	32396	32300	31092	
4044	0	32538	33245	31068	
4045	0	32740	34668	31056	
4046	0	33076	29376	31065	
4047	0	33324	32500	31064	
4048	0	33445	32616	31062	
4049	0	33420	33692	31064	
4050	0	33516	31808	31044	
4051	0	33496	31296	31037	
4052	0	33412	31426	31020	
4053	0	33376	29856	31044	
4054	0	33256	32312	31060	
4055	0	32957	34506	31049	
4056	0	32524	33644	31040	
4057	0	32248	33196	31044	
4058	0	32073	32662	31057	
4059	0	31936	31549	31054	
4060	0	31908	33432	31042	
4061	0	31896	33804	31044	
4062	0	31912	33917	31034	
4063	0	32108	33502	31030	
4064	0	32440	32376	31029	
4065	0	32756	33241	31016	
4066	0	33516	33582	31024	
4067	0	33832	33086	31006	
4068	0	33700	32808	31015	
4069	0	33600	32640	31012	
4070	0	33504	32516	31020	
4071	0	33396	32404	31024	
4072	0	33333	32692	31018	
4073	0	33196	32904	31022	
4074	0	33128	33608	31034	
4075	0	32896	32545	31036	
4076	0	32516	31702	31057	
4077	0	32160	32729	31080	
4078	0	32096	34549	31076	
4079	0	31870	32396	31076	
4080	0	31740	30332	31066	
4081	0	31904	30960	31062	
4082	0	32138	33028	31033	
4083	0	32332	35305	31036	
4084	0	32525	34478	31024	
4085	0	32944	31976	31008	
4086	0	33180	32820	30980	
4087	0	33376	33980	30976	
4088	0	33352	31212	30981	
4089	0	33360	31604	30992	
4090	0	33380	34856	31000	
4091	0	33576	34860	30984	
4092	0	33664	31800	31000	
4093	0	33424	32301	31008	
4094	0	33044	34096	31010	
4095	0	32732	35164	31016	
4096	0	32460	33608	31024	
4097	0	32304	34066	31032	
4098	0	32140	29630	31028	
4099	0	32052	31350	31048	
4100	0	31888	30280	31037	
4101	0	32036	32210	31048	
4102	0	32196	34830	31027	
4103	0	32290	33888	31033	
4104	0	32480	35884	31047	
4105	0	32784	32356	31049	
4106	0	33004	32068	31064	
4107	0	33181	31863	31064	
4108	0	33328	30886	31058	
4109	0	33432	33605	31045	
4110	0	33584	32732	31032	
4111	0	33513	32026	31008	
4112	0	33444	31710	31022	
4113	0	33400	32605	31036	
4114	0	33440	32156	31044	
4115	0	32945	32956	31050	
4116	0	32492	33556	31072	
4117	0	32288	33146	31068	
4118	0	32064	32417	31088	
4119	0	31924	32516	31110	
4120	0	31901	32448	31104	
4121	0	32012	33541	31094	
4122	0	32172	33764	31101	
4123	0	32262	34069	31088	
4124	0	32549	33409	31092	
4125	0	32800	32957	31093	
4126	0	32932	31977	31082	
4127	0	33184	32174	31072	
4128	0	33373	32924	31057	
4129	0	33492	32926	31066	
4130	0	33576	33510	31048	
4131	0	33752	33616	31042	
4132	0	33688	31252	31046	
4133	0	33392	30956	31025	
4134	0	33084	33382	31044	
4135	0	32824	33565	31040	
4136	0	32496	33216	31020	
4137	0	32248	33360	31028	
4138	0	32056	33320	31044	
4139	0	31968	32844	31033	
4140	0	31880	32913	31029	
4141	0	31981	31708	31028	
4142	0	32193	32776	31008	
4143	0	32180	33557	31017	
4144	0	32396	33868	31006	
4145	0	32732	33015	31005	
4146	0	32961	32597	31020	
4147	0	33104	32740	31028	
4148	0	33530	32500	31024	
4149	0	33812	31948	31025	
4150	0	33752	29860	31012	
4151	0	33614	30270	31008	
4152	0	33512	32873	31009	
4153	0	33296	35032	31016	
4154	0	33160	38652	31012	
4155	0	32753	32134	31029	
4156	0	32356	29196	31032	
4157	0	32080	30436	31036	
4158	0	31872	36130	31036	
4159	0	31830	34609	31036	
4160	0	31994	33668	31000	
4161	0	32704	33732	30992	
4162	0	32388	33433	30988	
4163	0	32276	33029	30977	
4164	0	32568	32237	30961	
4165	0	32800	32676	30983	
4166	0	32844	32090	31004	
4167	0	33232	31244	31004	
4168	0	33450	30220	30990	
4169	0	33494	31025	30978	
4170	0	33568	34437	30992	
4171	0	33516	37057	30973	
4172	0	33425	33532	30973	
4173	0	33320	31782	30962	
4174	0	33068	32262	30972	
4175	0	32688	33188	30988	
4176	0	32504	32797	31008	
4177	0	32320	31276	30982	
4178	0	32140	31996	30996	
4179	0	31976	34086	31013	
4180	0	31925	34148	31040	
4181	0	31952	34292	31037	
4182	0	31904	32992	31014	
4183	0	32106	31564	31018	
4184	0	32394	32418	31020	
4185	0	32705	33432	30988	
4186	0	33120	34836	30988	
4187	0	33512	32996	31000	
4188	0	33828	30625	31000	
4189	0	33782	31662	30988	
4190	0	33726	31500	30976	
4191	0	33584	32796	31016	
4192	0	33440	32512	31010	
4193	0	33314	32506	31008	
4194	0	32968	34850	31024	
4195	0	32728	34740	31009	
4196	0	32480	32080	30998	
4197	0	32229	32188	30986	
4198	0	32012	32438	30981	
4199	0	31910	35341	31012	
4200	0	31888	35308	31013	
4201	0	31960	32933	31004	
4202	0	31984	29200	30993	
4203	0	32212	31700	30992	
4204	0	32572	33204	30976	
4205	0	32704	32845	30980	
4206	0	33092	31660	30965	
4207	0	33536	30844	30966	
4208	0	33716	34088	30956	
4209	0	33588	37060	30968	
4210	0	33616	33538	30972	
4211	0	33564	32464	30970	
4212	0	33408	32444	31000	
4213	0	33272	29983	30996	
4214	0	33114	30465	30985	
4215	0	32888	32120	30960	
4216	0	32569	33428	30982	
4217	0	32220	32588	30968	
4218	0	32004	33220	30949	
4219	0	31872	36024	30953	
4220	0	31836	34356	30978	
4221	0	31951	31612	30986	
4222	0	31992	33601	30976	
4223	0	32124	34402	30960	
4224	0	32528	33610	30936	
4225	0	32864	30824	30925	
4226	0	33068	31356	30916	
4227	0	33324	33404	30926	
4228	0	33452	34348	30932	
4229	0	33456	31572	30944	
4230	0	33594	32068	30935	
4231	0	33596	32354	30940	
4232	0	33493	32656	30965	
4233	0	33380	30922	30977	
4234	0	33308	30549	30980	
4235	0	33092	34440	30992	
4236	0	32685	35710	31036	
4237	0	32332	34173	31052	
4238	0	32100	33364	31045	
4239	0	31916	32193	31050	
4240	0	31852	30677	31044	
4241	0	31940	32232	31020	
4242	0	32132	33036	31028	
4243	0	32244	33152	31038	
4244	0	32580	33153	31056	
4245	0	32644	36628	31048	
4246	0	32892	34016	31040	
4247	0	33072	34396	31048	
4248	0	33324	29320	31048	
4249	0	33432	29968	31029	
4250	0	33936	32061	31016	
4251	0	33960	30477	31032	
4252	0	33449	30989	31021	
4253	0	33252	33584	31020	
4254	0	33320	36743	31020	
4255	0	32916	34528	31024	
4256	0	32548	33795	31048	
4257	0	32268	32189	31068	
4258	0	32008	30612	31076	
4259	0	31892	32180	31098	
4260	0	31836	34816	31097	
4261	0	31932	33256	31072	
4262	0	32169	31118	31087	
4263	0	32220	32964	31086	
4264	0	32472	34857	31100	
4265	0	32789	34176	31101	
4266	0	32980	33200	31084	
4267	0	33132	31852	31056	
4268	0	33268	31989	31061	
4269	0	33304	32241	31056	
4270	0	33436	32502	31062	
4271	0	33640	30084	31028	
4272	0	33788	28541	31052	
4273	0	33656	29553	31064	
4274	0	33380	34709	31064	
4275	0	33124	31719	31044	
4276	0	32788	31069	31026	
4277	0	32314	38980	31032	
4278	0	31954	41223	31031	
4279	0	31776	36137	31032	
4280	0	31696	32100	31024	
4281	0	31910	29372	31016	
4282	0	32032	31792	31009	
4283	0	32276	35316	30992	
4284	0	32648	36346	31001	
4285	0	32944	34401	30992	
4286	0	33108	32300	30988	
4287	0	33292	29352	30988	
4288	0	33312	29192	30977	
4289	0	33464	31185	30984	
4290	0	33596	34488	30984	
4291	0	33532	32908	30961	
4292	0	33473	30748	30941	
4293	0	33289	33543	30957	
4294	0	33120	31189	30948	
4295	0	32836	29608	30932	
4296	0	32630	29468	30949	
4297	0	32312	34120	30912	
4298	0	32048	37476	30932	
4299	0	31870	34656	30936	
4300	0	31904	31585	30920	
4301	0	32004	32829	30908	
4302	0	32116	34760	30908	
4303	0	32260	35112	30925	
4304	0	32496	30828	30928	
4305	0	32828	32416	30940	
4306	0	32992	34448	30936	
4307	0	33218	33556	30914	
4308	0	33308	32036	30901	
4309	0	33476	31369	30876	
4310	0	33532	31041	30888	
4311	0	33612	31112	30876	
4312	0	33609	32228	30892	
4313	0	33512	32788	30893	
4314	0	33208	32186	30920	
4315	0	32900	31189	30940	
4316	0	32576	31332	30944	
4317	0	32196	40632	30960	
4318	0	31950	37028	30964	
4319	0	31864	31669	30970	
4320	0	31873	33829	30974	
4321	0	31988	34900	30958	
4322	0	32164	33873	30960	
4323	0	32425	32882	30940	
4324	0	32648	31888	30922	
4325	0	32650	30845	30920	
4326	0	32940	31976	30932	
4327	0	33148	31810	30954	
4328	0	33444	31776	30972	
4329	0	34040	31617	30976	
4330	0	34028	30748	30969	
4331	0	33642	32896	30972	
4332	0	33380	32788	31002	
4333	0	33260	32565	30996	
4334	0	32897	32838	30998	
4335	0	32552	34063	30996	
4336	0	32432	33730	31001	
4337	0	32140	34444	31028	
4338	0	32044	32928	31028	
4339	0	32240	32752	31064	
4340	0	32780	31634	31069	
4341	0	32240	28971	31032	
4342	0	31973	31319	30996	
4343	0	32124	36300	30974	
4344	0	32286	33646	30964	
4345	0	32677	31533	30948	
4346	0	32836	33742	30944	
4347	0	33137	34477	30930	
4348	0	33336	35692	30952	
4349	0	33518	31320	30945	
4350	0	33573	30277	30949	
4351	0	33576	32101	30948	
4352	0	33440	33090	30964	
4353	0	33352	33031	30940	
4354	0	33199	32356	30938	
4355	0	32976	32582	30938	
4356	0	32656	32508	30956	
4357	0	32500	31800	30982	
4358	0	32192	33368	30985	
4359	0	31848	34672	30980	
4360	0	31802	35140	30988	
4361	0	31944	33352	31002	
4362	0	32104	31516	31018	
4363	0	32228	32706	31012	
4364	0	32474	32938	30992	
4365	0	32728	32405	30984	
4366	0	32975	32112	30965	
4367	0	33324	33590	30940	
4368	0	33393	33836	30952	
4369	0	33480	33540	30948	
4370	0	33628	33365	30933	
4371	0	33436	32700	30944	
4372	0	33452	32458	30952	
4373	0	33420	32352	30968	
4374	0	33096	31649	30969	
4375	0	32890	29057	30965	
4376	0	32624	31872	30952	
4377	0	32381	34840	30927	
4378	0	32112	34826	30956	
4379	0	31992	34448	30957	
4380	0	31854	33181	30964	
4381	0	31816	33399	30964	
4382	0	32012	33182	30976	
4383	0	32421	32960	30965	
4384	0	33136	33307	30958	
4385	0	32824	32666	30977	
4386	0	32840	32436	30990	
4387	0	33070	30321	30982	
4388	0	33352	30953	30988	
4389	0	33524	32400	30980	
4390	0	33800	33456	30948	
4391	0	33776	36016	30948	
4392	0	33534	32436	30932	
4393	0	33244	29804	30920	
4394	0	33144	35433	30928	
4395	0	32836	35784	30933	
4396	0	32528	30644	30944	
4397	0	32280	32612	30948	
4398	0	32085	32644	30961	
4399	0	31936	32748	30957	
4400	0	31900	33388	30954	
4401	0	31964	33816	30969	
4402	0	32160	31492	30958	
4403	0	32304	31449	30980	
4404	0	32392	32172	30976	
4405	0	32696	31316	30948	
4406	0	32840	31432	30958	
4407	0	33121	32548	30960	
4408	0	33296	34252	30940	
4409	0	33472	34649	30930	
4410	0	33536	32709	30944	
4411	0	33620	31964	30925	
4412	0	33492	31665	30944	
4413	0	33496	32318	30968	
4414	0	33434	32153	30953	
4415	0	33056	35198	30952	
4416	0	32701	35170	30984	
4417	0	32289	32884	31000	
4418	0	31940	32966	31012	
4419	0	31965	33796	31020	
4420	0	31773	32026	31004	
4421	0	31944	32577	31004	
4422	0	32080	30700	31017	
4423	0	32293	31380	31013	
4424	0	32501	32372	31037	
4425	0	32728	32591	31004	
4426	0	32898	33920	30989	
4427	0	33270	36564	30976	
4428	0	33412	35572	30970	
4429	0	33532	33200	30969	
4430	0	33569	32276	30984	
4431	0	33488	32256	30990	
4432	0	33364	33472	31000	
4433	0	33382	31880	30996	
4434	0	33208	31529	30984	
4435	0	33288	31960	30977	
4436	0	33152	32885	31002	
4437	0	32292	32664	31034	
4438	0	31968	31509	31028	
4439	0	31833	31093	31024	
4440	0	31801	33684	31036	
4441	0	31920	35012	31032	
4442	0	32084	30325	31046	
4443	0	32215	33072	31064	
4444	0	32400	35398	31068	
4445	0	32701	36120	31060	
4446	0	32920	34308	31052	
4447	0	33212	29260	31036	
4448	0	33344	31088	31022	
4449	0	33596	33098	30997	
4450	0	33612	30830	30988	
4451	0	33613	29772	30977	
4452	0	33565	32837	30964	
4453	0	33416	35388	30948	
4454	0	33252	35496	30969	
4455	0	32973	33564	30943	
4456	0	32685	32293	30950	
4457	0	32288	32585	30976	
4458	0	32128	32849	30977	
4459	0	31908	33124	30956	
4460	0	31796	32960	30952	
4461	0	31876	32644	30946	
4462	0	32068	33016	30932	
4463	0	32244	32776	30936	
4464	0	32477	31253	30920	
4465	0	32720	31626	30940	
4466	0	32864	33664	30949	
4467	0	33020	33640	30952	
4468	0	33260	34000	30956	
4469	0	33496	30056	30956	
4470	0	33532	33356	30972	
4471	0	33720	34415	30983	
4472	0	33588	34124	30973	
4473	0	33684	32797	30961	
4474	0	33548	31700	30948	
4475	0	33188	32526	30964	
4476	0	32752	32098	30950	
4477	0	32256	32244	30949	
4478	0	31920	34593	30944	
4479	0	31692	33410	30940	
4480	0	31762	32154	30970	
4481	0	32124	32440	30968	
4482	0	32296	33968	30984	
4483	0	32280	33622	30988	
4484	0	32516	32136	30968	
4485	0	32768	31892	30956	
4486	0	32805	31488	30972	
4487	0	33088	32244	30972	
4488	0	33265	33862	30984	
4489	0	33464	32444	30992	
4490	0	33510	34240	31012	
4491	0	33652	33350	31000	
4492	0	33420	32809	30985	
4493	0	33384	32836	30999	
4494	0	33312	32798	31010	
4495	0	33002	30870	31000	
4496	0	32980	31508	31002	
4497	0	32696	33434	31020	
4498	0	32357	34172	31021	
4499	0	31954	36640	31012	
4500	0	31696	34908	30988	
4501	0	31836	32224	31001	
4502	0	31856	31796	30988	
4503	0	31984	33506	30996	
4504	0	32256	32151	30988	
4505	0	32480	31940	30973	
4506	0	32790	31353	30972	
4507	0	33189	31399	30969	
4508	0	33385	32200	30952	
4509	0	33612	32160	30964	
4510	0	33756	32904	30968	
4511	0	33672	33385	30969	
4512	0	33512	31780	30996	
4513	0	33468	32705	30998	
4514	0	33244	32866	31004	
4515	0	33072	35349	31012	
4516	0	32704	31360	30998	
4517	0	32280	30693	31000	
4518	0	32104	29343	31012	
4519	0	32012	34012	31012	
4520	0	31928	38040	31032	
4521	0	32072	35741	31032	
4522	0	32072	33408	31016	
4523	0	32266	33005	31012	
4524	0	32424	32505	31040	
4525	0	32664	32212	31017	
4526	0	32856	31580	31016	
4527	0	33100	31239	31020	
4528	0	33224	31312	31032	
4529	0	33324	30718	31016	
4530	0	33482	33262	30985	
4531	0	33616	35985	31032	
4532	0	33497	34149	31028	
4533	0	33652	32809	31032	
4534	0	33884	32393	31026	
4535	0	33024	33178	31020	
4536	0	32629	32957	31030	
4537	0	32260	32288	31028	
4538	0	32000	32740	31048	
4539	0	31852	32997	31073	
4540	0	31772	32596	31088	
4541	0	31828	33885	31066	
4542	0	32028	33254	31078	
4543	0	32292	32966	31096	
4544	0	32541	33214	31088	
4545	0	32704	33550	31068	
4546	0	32932	31756	31048	
4547	0	33176	32153	31034	
4548	0	33304	33748	31013	
4549	0	33424	30949	31016	
4550	0	33592	27874	30988	
4551	0	33550	34176	30966	
4552	0	33556	33712	30976	
4553	0	33440	32962	30978	
4554	0	33292	33710	30984	
4555	0	32988	34862	30981	
4556	0	32628	34476	31004	
4557	0	32273	29840	31036	
4558	0	31932	29184	31028	
4559	0	31776	31667	31009	
4560	0	31756	36866	30992	
4561	0	31781	37348	31015	
4562	0	32096	34000	31028	
4563	0	32580	33764	31020	
4564	0	32980	32590	31016	
4565	0	32861	35462	31005	
4566	0	32940	31732	30999	
4567	0	33156	31709	31009	
4568	0	33564	29232	31008	
4569	0	33948	30692	30988	
4570	0	33511	32173	30976	
4571	0	33476	31701	30972	
4572	0	33381	31405	30976	
4573	0	33317	31556	30966	
4574	0	33144	35556	30996	
4575	0	32876	35836	30984	
4576	0	32616	30362	30980	
4577	0	32264	31220	30972	
4578	0	32124	33383	31004	
4579	0	31865	32548	30998	
4580	0	31788	34652	31004	
4581	0	31853	32332	31016	
4582	0	32112	33588	31020	
4583	0	32192	36800	31040	
4584	0	32420	34272	31024	
4585	0	32773	32829	31017	
4586	0	32976	32272	31016	
4587	0	33264	32072	31020	
4588	0	33382	32322	30996	
4589	0	33417	32399	30986	
4590	0	33688	31490	30988	
4591	0	33800	32239	30992	
4592	0	33540	32816	30988	
4593	0	33324	31584	30984	
4594	0	33068	30485	31000	
4595	0	32760	33737	30994	
4596	0	32502	34748	31004	
4597	0	32304	34881	31028	
4598	0	32138	34107	31016	
4599	0	32112	33180	31008	
4600	0	32112	31456	31012	
4601	0	32240	32364	31004	
4602	0	32304	33897	31020	
4603	0	32276	32116	31020	
4604	0	32408	32276	30990	
4605	0	32528	34108	30988	
4606	0	32841	32594	30990	
4607	0	33056	30476	30982	
4608	0	33320	30972	30992	
4609	0	33376	34916	30987	
4610	0	33352	32892	30977	
4611	0	33448	32968	30994	
4612	0	33420	32156	31005	
4613	0	33400	32268	30976	
4614	0	33396	34420	30974	
4615	0	33672	32902	30974	
4616	0	32933	33145	30972	
4617	0	32296	32120	30988	
4618	0	32000	31700	30970	
4619	0	31868	35004	30965	
4620	0	31884	35516	30940	
4621	0	31836	31960	30949	
4622	0	31996	30120	30960	
4623	0	32144	30439	30964	
4624	0	32508	32508	30966	
4625	0	32780	35669	30980	
4626	0	32929	36516	30996	
4627	0	33121	32420	30997	
4628	0	33169	33006	31004	
4629	0	33420	31164	30992	
4630	0	33504	30208	31008	
4631	0	33476	33168	31004	
4632	0	33636	32913	31012	
