# OpenSignals Text File Format
# {"00:07:80:4D:2E:AD": {"sensor": ["EMG", "EMG", "XYZ"], "device name": "00:07:80:4D:2E:AD", "column": ["nSeq", "DI", "CH1", "CH2", "CH3"], "sync interval": 2, "time": "15:39:10.522", "comments": "scissor | ch1_flexor_digitorum_superficialis ch2_aductor_policis ch3_acc_z [trial 3]", "device connection": "BTH00:07:80:4D:2E:AD", "channels": [1, 2, 3], "keywords": "", "mode": 0, "digital IO": [0, 1], "firmware version": 773, "device": "biosignalsplux", "position": 0, "sampling rate": 1000, "label": ["CH1", "CH2", "CH3"], "resolution": [16, 16, 16], "date": "2019-1-23", "special": [{}, {}, {}]}}
# EndOfHeader
0	0	32872	32848	35468	
1	0	32828	32850	35453	
2	0	32869	32780	35452	
3	0	32788	32796	35446	
4	0	32868	32716	35436	
5	0	32792	32712	35469	
6	0	32780	32725	35456	
7	0	32784	32712	35442	
8	0	32808	32741	35416	
9	0	32789	32732	35434	
10	0	32696	32772	35428	
11	0	32684	32775	35414	
12	0	32688	32948	35414	
13	0	32740	32962	35420	
14	0	32689	32948	35440	
15	0	32781	33068	35481	
16	0	32840	32992	35463	
17	0	32764	32972	35449	
18	0	32826	32976	35456	
19	0	32800	32861	35439	
20	0	32860	32825	35454	
21	0	32848	32800	35454	
22	0	32820	32766	35437	
23	0	32804	32732	35437	
24	0	32884	32672	35436	
25	0	32836	32706	35448	
26	0	32798	32647	35429	
27	0	32796	32634	35401	
28	0	32800	32695	35372	
29	0	32756	32740	35385	
30	0	32732	32736	35372	
31	0	32688	32886	35388	
32	0	32728	32868	35386	
33	0	32716	32878	35376	
34	0	32688	32990	35400	
35	0	32772	33000	35424	
36	0	32801	32965	35441	
37	0	32764	33028	35440	
38	0	32880	32904	35433	
39	0	32880	32786	35440	
40	0	32894	32888	35428	
41	0	32796	32805	35420	
42	0	32724	32780	35439	
43	0	32788	32817	35436	
44	0	32880	32750	35423	
45	0	32860	32704	35416	
46	0	32840	32846	35408	
47	0	32744	32809	35404	
48	0	32752	32733	35392	
49	0	32744	32769	35397	
50	0	32717	32889	35408	
51	0	32720	32914	35420	
52	0	32661	32852	35452	
53	0	32661	32957	35452	
54	0	32716	33060	35462	
55	0	32769	32980	35462	
56	0	32761	32941	35462	
57	0	32876	32968	35452	
58	0	32840	32892	35457	
59	0	32868	32932	35455	
60	0	32885	32820	35460	
61	0	32896	32724	35454	
62	0	32907	32753	35461	
63	0	32800	32793	35481	
64	0	32864	32676	35463	
65	0	32864	32697	35465	
66	0	32852	32772	35454	
67	0	32793	32754	35423	
68	0	32724	32650	35408	
69	0	32708	32647	35412	
70	0	32686	32797	35444	
71	0	32712	32833	35432	
72	0	32662	32836	35433	
73	0	32730	32833	35429	
74	0	32716	33014	35428	
75	0	32772	33006	35452	
76	0	32825	33004	35460	
77	0	32796	32928	35477	
78	0	32837	32990	35468	
79	0	32826	32964	35464	
80	0	32868	32944	35482	
81	0	32846	32856	35462	
82	0	32804	32824	35448	
83	0	32749	32782	35444	
84	0	32786	32712	35424	
85	0	32816	32736	35408	
86	0	32920	32666	35398	
87	0	32842	32647	35393	
88	0	32794	32728	35396	
89	0	32732	32789	35404	
90	0	32684	32716	35430	
91	0	32752	32856	35409	
92	0	32724	32964	35412	
93	0	32646	32938	35428	
94	0	32702	33080	35456	
95	0	32788	32940	35448	
96	0	32754	33006	35446	
97	0	32836	33031	35440	
98	0	32820	32876	35448	
99	0	32864	32828	35432	
100	0	32832	32814	35441	
101	0	32812	32775	35440	
102	0	32852	32733	35432	
103	0	32868	32768	35454	
104	0	32844	32775	35440	
105	0	32848	32744	35438	
106	0	32852	32700	35436	
107	0	32800	32760	35428	
108	0	32740	32733	35417	
109	0	32672	32814	35436	
110	0	32696	32876	35420	
111	0	32628	32847	35433	
112	0	32636	32900	35452	
113	0	32844	32926	35440	
114	0	32736	32936	35456	
115	0	32704	33052	35452	
116	0	32794	32982	35444	
117	0	32774	32964	35440	
118	0	32806	32868	35456	
119	0	32828	32769	35460	
120	0	32864	32748	35460	
121	0	32865	32652	35450	
122	0	32816	32700	35457	
123	0	32884	32676	35438	
124	0	32828	32772	35437	
125	0	32856	32741	35444	
126	0	32805	32862	35412	
127	0	32884	32880	35432	
128	0	32830	32748	35436	
129	0	32760	32789	35433	
130	0	32748	32735	35428	
131	0	32716	32764	35419	
132	0	32676	32872	35413	
133	0	32672	32846	35424	
134	0	32672	32948	35432	
135	0	32676	32969	35432	
136	0	32834	32953	35440	
137	0	32878	32992	35455	
138	0	32880	32924	35460	
139	0	32824	32836	35457	
140	0	32889	32836	35448	
141	0	32868	32748	35426	
142	0	32828	32796	35420	
143	0	32840	32721	35430	
144	0	32828	32752	35424	
145	0	32832	32740	35418	
146	0	32793	32708	35416	
147	0	32828	32722	35405	
148	0	32682	32716	35392	
149	0	32740	32700	35408	
150	0	32684	32727	35413	
151	0	32696	32802	35397	
152	0	32696	32809	35429	
153	0	32740	32992	35429	
154	0	32708	32956	35433	
155	0	32744	32965	35444	
156	0	32808	33006	35456	
157	0	32861	33004	35456	
158	0	32800	33001	35453	
159	0	32828	32828	35470	
160	0	32890	32797	35464	
161	0	32836	32781	35452	
162	0	32872	32727	35444	
163	0	32917	32720	35433	
164	0	32853	32712	35427	
165	0	32818	32780	35417	
166	0	32816	32724	35416	
167	0	32865	32765	35377	
168	0	32772	32768	35405	
169	0	32772	32708	35396	
170	0	32696	32763	35393	
171	0	32728	32846	35404	
172	0	32684	32932	35392	
173	0	32692	32852	35412	
174	0	32720	32894	35428	
175	0	32712	32957	35420	
176	0	32716	33006	35424	
177	0	32780	33004	35436	
178	0	32824	32937	35444	
179	0	32852	32889	35450	
180	0	32884	32897	35432	
181	0	32917	32820	35424	
182	0	32920	32737	35419	
183	0	32868	32645	35420	
184	0	32901	32633	35436	
185	0	32832	32711	35420	
186	0	32784	32716	35445	
187	0	32756	32764	35432	
188	0	32736	32751	35432	
189	0	32728	32798	35421	
190	0	32696	32864	35424	
191	0	32652	32841	35418	
192	0	32708	32884	35404	
193	0	32648	33020	35408	
194	0	32704	33032	35436	
195	0	32738	33016	35432	
196	0	32793	33044	35452	
197	0	32833	33022	35464	
198	0	32865	32941	35460	
199	0	32856	32837	35450	
200	0	32815	32732	35460	
201	0	32852	32798	35444	
202	0	32857	32796	35456	
203	0	32801	32788	35464	
204	0	32820	32688	35445	
205	0	32874	32680	35436	
206	0	32858	32737	35428	
207	0	32820	32724	35408	
208	0	32784	32740	35416	
209	0	32760	32808	35436	
210	0	32685	32844	35452	
211	0	32665	32895	35459	
212	0	32692	32921	35464	
213	0	32682	32940	35453	
214	0	32708	32989	35460	
215	0	32704	33120	35444	
216	0	32796	33142	35464	
217	0	32816	33044	35460	
218	0	32900	32884	35452	
219	0	32900	32807	35468	
220	0	32876	32828	35470	
221	0	32828	32756	35455	
222	0	32841	32732	35437	
223	0	32852	32706	35438	
224	0	32860	32692	35414	
225	0	32808	32684	35400	
226	0	32816	32712	35401	
227	0	32728	32724	35400	
228	0	32756	32764	35414	
229	0	32736	32724	35416	
230	0	32704	32704	35405	
231	0	32664	32800	35418	
232	0	32670	32872	35436	
233	0	32696	32902	35412	
234	0	32660	32895	35407	
235	0	32736	32944	35421	
236	0	32832	32864	35412	
237	0	32876	32884	35420	
238	0	32864	32841	35432	
239	0	32842	32740	35456	
240	0	32888	32752	35441	
241	0	32857	32781	35425	
242	0	32868	32828	35428	
243	0	32910	32727	35423	
244	0	32858	32804	35404	
245	0	32804	32745	35390	
246	0	32812	32732	35374	
247	0	32797	32694	35380	
248	0	32753	32738	35386	
249	0	32684	32732	35396	
250	0	32721	32805	35406	
251	0	32740	32852	35413	
252	0	32687	32830	35420	
253	0	32689	32898	35412	
254	0	32676	33020	35423	
255	0	32728	33012	35432	
256	0	32792	33041	35436	
257	0	32868	32965	35424	
258	0	32900	32904	35436	
259	0	32892	32846	35436	
260	0	32828	32820	35420	
261	0	32840	32828	35413	
262	0	32820	32828	35424	
263	0	32828	32768	35416	
264	0	32836	32741	35412	
265	0	32856	32752	35409	
266	0	32823	32836	35420	
267	0	32793	32806	35428	
268	0	32760	32774	35438	
269	0	32716	32774	35433	
270	0	32730	32832	35428	
271	0	32698	32804	35436	
272	0	32716	32829	35446	
273	0	32712	32908	35423	
274	0	32700	33010	35438	
275	0	32692	32988	35444	
276	0	32766	33044	35460	
277	0	32792	32988	35470	
278	0	32900	32909	35460	
279	0	32912	32880	35468	
280	0	32840	32842	35480	
281	0	32832	32817	35461	
282	0	32828	32852	35452	
283	0	32772	32800	35457	
284	0	32832	32876	35474	
285	0	32856	32884	35464	
286	0	32812	32835	35444	
287	0	32848	32775	35439	
288	0	32754	32790	35431	
289	0	32748	32815	35441	
290	0	32752	32748	35429	
291	0	32696	32780	35428	
292	0	32704	32804	35448	
293	0	32705	32832	35460	
294	0	32732	32917	35457	
295	0	32768	32950	35454	
296	0	32825	33089	35462	
297	0	32805	33137	35480	
298	0	32880	33012	35464	
299	0	32817	32959	35477	
300	0	32820	32864	35461	
301	0	32856	32862	35450	
302	0	32885	32832	35454	
303	0	32870	32748	35448	
304	0	32888	32768	35438	
305	0	32800	32788	35436	
306	0	32786	32708	35428	
307	0	32756	32725	35424	
308	0	32772	32630	35428	
309	0	32752	32679	35428	
310	0	32682	32758	35424	
311	0	32664	32788	35424	
312	0	32697	32854	35418	
313	0	32697	32886	35452	
314	0	32716	32879	35456	
315	0	32796	33034	35472	
316	0	32780	32934	35456	
317	0	32861	32945	35438	
318	0	32892	32862	35448	
319	0	32792	32760	35439	
320	0	32836	32760	35437	
321	0	32772	32764	35436	
322	0	32865	32714	35448	
323	0	32845	32776	35441	
324	0	32892	32758	35436	
325	0	32812	32688	35424	
326	0	32876	32688	35400	
327	0	32840	32845	35416	
328	0	32776	32706	35407	
329	0	32768	32744	35390	
330	0	32740	32673	35404	
331	0	32640	32784	35392	
332	0	32665	32836	35397	
333	0	32740	32870	35400	
334	0	32681	32994	35409	
335	0	32772	32986	35424	
336	0	32768	32988	35424	
337	0	32828	32980	35464	
338	0	32896	32910	35449	
339	0	32860	32876	35440	
340	0	32864	32797	35432	
341	0	32791	32800	35440	
342	0	32828	32748	35449	
343	0	32836	32736	35454	
344	0	32856	32736	35420	
345	0	32792	32676	35430	
346	0	32826	32780	35418	
347	0	32792	32748	35439	
348	0	32757	32701	35408	
349	0	32812	32788	35407	
350	0	32728	32746	35428	
351	0	32667	32852	35424	
352	0	32714	32913	35433	
353	0	32676	32965	35412	
354	0	32740	32944	35437	
355	0	32724	32943	35452	
356	0	32748	33037	35476	
357	0	32772	33004	35463	
358	0	32908	32954	35460	
359	0	32796	32814	35441	
360	0	32872	32750	35430	
361	0	32805	32804	35463	
362	0	32824	32748	35444	
363	0	32868	32736	35448	
364	0	32840	32796	35444	
365	0	32832	32798	35413	
366	0	32814	32676	35432	
367	0	32832	32740	35424	
368	0	32820	32708	35412	
369	0	32752	32736	35398	
370	0	32752	32812	35398	
371	0	32716	32832	35408	
372	0	32688	32849	35428	
373	0	32570	32926	35420	
374	0	32712	32933	35437	
375	0	32728	32916	35456	
376	0	32802	32934	35464	
377	0	32844	32977	35469	
378	0	32868	32844	35452	
379	0	32897	32821	35445	
380	0	32874	32749	35444	
381	0	32852	32718	35440	
382	0	32814	32876	35445	
383	0	32848	32778	35455	
384	0	32824	32792	35452	
385	0	32816	32824	35445	
386	0	32896	32720	35429	
387	0	32852	32861	35432	
388	0	32800	32775	35404	
389	0	32712	32766	35416	
390	0	32692	32840	35406	
391	0	32629	32830	35424	
392	0	32666	32892	35421	
393	0	32692	32932	35446	
394	0	32708	33030	35447	
395	0	32756	32921	35462	
396	0	32784	33086	35460	
397	0	32872	32960	35468	
398	0	32872	32833	35492	
399	0	32828	32781	35444	
400	0	32840	32681	35428	
401	0	32816	32736	35442	
402	0	32920	32668	35425	
403	0	32884	32700	35424	
404	0	32898	32772	35434	
405	0	32805	32708	35440	
406	0	32872	32760	35428	
407	0	32792	32874	35444	
408	0	32724	32748	35417	
409	0	32764	32793	35417	
410	0	32684	32879	35428	
411	0	32688	32932	35412	
412	0	32655	32933	35444	
413	0	32677	32948	35428	
414	0	32724	33028	35428	
415	0	32716	32936	35433	
416	0	32728	32926	35440	
417	0	32802	32956	35460	
418	0	32870	32852	35448	
419	0	32916	32804	35461	
420	0	32901	32748	35456	
421	0	32884	32793	35444	
422	0	32812	32820	35428	
423	0	32833	32732	35424	
424	0	32900	32712	35401	
425	0	32876	32775	35389	
426	0	32790	32727	35380	
427	0	32780	32764	35356	
428	0	32780	32679	35365	
429	0	32712	32736	35374	
430	0	32720	32820	35369	
431	0	32712	32837	35396	
432	0	32716	32892	35400	
433	0	32678	32871	35404	
434	0	32692	32920	35424	
435	0	32774	32908	35477	
436	0	32788	32980	35477	
437	0	32868	32932	35484	
438	0	32820	32822	35468	
439	0	32868	32738	35457	
440	0	32856	32718	35476	
441	0	32832	32761	35480	
442	0	32892	32814	35468	
443	0	32844	32801	35456	
444	0	32764	32740	35463	
445	0	32812	32768	35453	
446	0	32848	32700	35456	
447	0	32844	32752	35429	
448	0	32756	32697	35404	
449	0	32760	32704	35412	
450	0	32660	32824	35408	
451	0	32624	32909	35412	
452	0	32672	33018	35420	
453	0	32744	32996	35436	
454	0	32668	33004	35441	
455	0	32748	32970	35460	
456	0	32740	32955	35486	
457	0	32840	32960	35485	
458	0	32881	32820	35472	
459	0	32816	32773	35463	
460	0	32849	32774	35464	
461	0	32896	32784	35441	
462	0	32904	32788	35452	
463	0	32840	32797	35452	
464	0	32846	32804	35428	
465	0	32864	32791	35432	
466	0	32876	32724	35437	
467	0	32788	32742	35440	
468	0	32736	32706	35432	
469	0	32736	32806	35463	
470	0	32698	32821	35441	
471	0	32661	32828	35452	
472	0	32694	32865	35444	
473	0	32708	32991	35437	
474	0	32658	33022	35443	
475	0	32732	33096	35449	
476	0	32740	33072	35456	
477	0	32850	32916	35462	
478	0	32888	32919	35469	
479	0	32884	32828	35473	
480	0	32828	32773	35461	
481	0	32833	32735	35437	
482	0	32880	32669	35436	
483	0	32775	32762	35440	
484	0	32896	32716	35456	
485	0	32802	32760	35448	
486	0	32833	32720	35440	
487	0	32796	32746	35436	
488	0	32762	32649	35437	
489	0	32742	32768	35420	
490	0	32676	32745	35404	
491	0	32704	32825	35424	
492	0	32652	32856	35428	
493	0	32720	32928	35444	
494	0	32724	33008	35447	
495	0	32764	33016	35428	
496	0	32752	33082	35452	
497	0	32829	33046	35476	
498	0	32856	32875	35496	
499	0	32900	32821	35488	
500	0	32880	32724	35468	
501	0	32816	32753	35464	
502	0	32854	32736	35441	
503	0	32832	32749	35477	
504	0	32820	32704	35452	
505	0	32840	32672	35455	
506	0	32836	32782	35456	
507	0	32792	32690	35428	
508	0	32788	32702	35437	
509	0	32740	32784	35424	
510	0	32724	32764	35426	
511	0	32672	32832	35428	
512	0	32692	32908	35446	
513	0	32680	32976	35446	
514	0	32736	33060	35436	
515	0	32764	33025	35463	
516	0	32776	32983	35455	
517	0	32785	32910	35463	
518	0	32821	32936	35435	
519	0	32815	32838	35450	
520	0	32848	32808	35444	
521	0	32857	32812	35436	
522	0	32876	32805	35424	
523	0	32864	32852	35429	
524	0	32892	32816	35433	
525	0	32836	32740	35428	
526	0	32812	32736	35428	
527	0	32749	32759	35436	
528	0	32700	32738	35425	
529	0	32742	32757	35424	
530	0	32736	32756	35424	
531	0	32684	32851	35412	
532	0	32640	32909	35416	
533	0	32701	32976	35424	
534	0	32708	32881	35444	
535	0	32740	33056	35434	
536	0	32744	32985	35433	
537	0	32825	32943	35460	
538	0	32858	32868	35461	
539	0	32784	32848	35457	
540	0	32806	32820	35444	
541	0	32857	32724	35441	
542	0	32860	32740	35449	
543	0	32844	32729	35444	
544	0	32844	32764	35416	
545	0	32853	32704	35429	
546	0	32861	32736	35428	
547	0	32816	32764	35442	
548	0	32793	32692	35430	
549	0	32796	32709	35428	
550	0	32633	32696	35424	
551	0	32614	32892	35429	
552	0	32680	32828	35430	
553	0	32766	32938	35430	
554	0	32780	33061	35446	
555	0	32768	33080	35460	
556	0	32748	32956	35485	
557	0	32853	32958	35476	
558	0	32857	32815	35478	
559	0	32896	32760	35484	
560	0	32820	32785	35461	
561	0	32812	32820	35452	
562	0	32800	32772	35448	
563	0	32900	32760	35428	
564	0	32840	32768	35429	
565	0	32788	32840	35422	
566	0	32826	32679	35404	
567	0	32852	32684	35412	
568	0	32812	32756	35416	
569	0	32780	32744	35408	
570	0	32758	32732	35424	
571	0	32764	32844	35428	
572	0	32736	32868	35412	
573	0	32640	32928	35426	
574	0	32644	33039	35435	
575	0	32768	33073	35440	
576	0	32722	33026	35444	
577	0	32816	33060	35447	
578	0	32838	32911	35448	
579	0	32798	32804	35452	
580	0	32880	32761	35453	
581	0	32829	32757	35438	
582	0	32796	32798	35452	
583	0	32836	32732	35422	
584	0	32788	32660	35416	
585	0	32846	32751	35445	
586	0	32818	32728	35442	
587	0	32833	32820	35438	
588	0	32784	32716	35438	
589	0	32728	32746	35410	
590	0	32684	32774	35388	
591	0	32676	32818	35404	
592	0	32716	32833	35412	
593	0	32624	32919	35428	
594	0	32652	33077	35429	
595	0	32742	33056	35446	
596	0	32804	33084	35432	
597	0	32834	32992	35432	
598	0	32884	32901	35462	
599	0	32836	32828	35466	
600	0	32903	32788	35477	
601	0	32896	32748	35461	
602	0	32846	32745	35480	
603	0	32844	32781	35476	
604	0	32881	32780	35466	
605	0	32781	32728	35463	
606	0	32884	32700	35468	
607	0	32800	32688	35468	
608	0	32824	32700	35460	
609	0	32712	32706	35442	
610	0	32684	32748	35428	
611	0	32652	32823	35437	
612	0	32656	32941	35420	
613	0	32636	32885	35408	
614	0	32646	32957	35440	
615	0	32784	33047	35460	
616	0	32720	33081	35472	
617	0	32748	33040	35472	
618	0	32844	32924	35480	
619	0	32868	32818	35486	
620	0	32921	32736	35496	
621	0	32948	32765	35478	
622	0	32984	32818	35463	
623	0	32904	32820	35468	
624	0	32708	32793	35476	
625	0	32764	32769	35454	
626	0	32886	32874	35455	
627	0	32996	32836	35452	
628	0	32912	32736	35441	
629	0	32868	32652	35466	
630	0	32692	32809	35447	
631	0	32666	32936	35449	
632	0	32652	32937	35441	
633	0	32668	32948	35445	
634	0	32704	33096	35442	
635	0	32780	33210	35472	
636	0	32778	33049	35472	
637	0	32788	33031	35457	
638	0	32816	32948	35468	
639	0	32977	32828	35448	
640	0	32884	32740	35448	
641	0	32752	32526	35456	
642	0	32765	32592	35413	
643	0	32754	32556	35399	
644	0	32812	32382	35426	
645	0	32752	32477	35422	
646	0	32768	32680	35431	
647	0	32820	32665	35446	
648	0	32720	32685	35440	
649	0	32652	32740	35458	
650	0	32736	32678	35429	
651	0	32634	32808	35429	
652	0	32632	32968	35424	
653	0	32672	32928	35441	
654	0	32754	32868	35476	
655	0	32820	32784	35464	
656	0	32784	33028	35453	
657	0	32804	32996	35436	
658	0	32888	32990	35432	
659	0	32852	32992	35414	
660	0	32860	32903	35413	
661	0	32924	32840	35454	
662	0	32921	32948	35460	
663	0	32884	32832	35460	
664	0	32908	32788	35434	
665	0	32836	32780	35420	
666	0	32848	32775	35437	
667	0	32792	32585	35444	
668	0	32724	32584	35472	
669	0	32672	32647	35463	
670	0	32728	32706	35452	
671	0	32640	32929	35432	
672	0	32557	33049	35436	
673	0	32612	33148	35428	
674	0	32660	33482	35460	
675	0	32672	33264	35476	
676	0	32720	32812	35493	
677	0	32752	32400	35514	
678	0	32857	32358	35496	
679	0	32876	32960	35504	
680	0	32864	32908	35501	
681	0	32841	33068	35503	
682	0	32841	32640	35505	
683	0	32824	31728	35524	
684	0	33060	31591	35548	
685	0	33092	31812	35644	
686	0	33076	32248	35808	
687	0	32928	32976	35804	
688	0	32772	33038	35764	
689	0	32684	34006	35652	
690	0	32577	34464	35524	
691	0	32496	34308	35391	
692	0	32484	34036	35313	
693	0	32476	33842	35260	
694	0	32609	33234	35288	
695	0	32595	32940	35305	
696	0	32751	32708	35353	
697	0	32928	32720	35428	
698	0	33008	32745	35512	
699	0	33092	32640	35599	
700	0	33060	32596	35692	
701	0	32856	32464	35735	
702	0	32824	32560	35773	
703	0	32946	32668	35840	
704	0	32829	32406	35848	
705	0	32804	32532	35812	
706	0	32748	32614	35780	
707	0	32694	32768	35745	
708	0	32692	32589	35713	
709	0	32660	32519	35688	
710	0	32644	32832	35689	
711	0	32629	33028	35704	
712	0	32700	33268	35687	
713	0	32684	32918	35642	
714	0	32784	32308	35649	
715	0	32780	31724	35620	
716	0	32753	32140	35614	
717	0	32848	32656	35552	
718	0	32865	33049	35472	
719	0	32796	33398	35440	
720	0	32804	33029	35424	
721	0	32920	33452	35412	
722	0	32848	33620	35359	
723	0	32916	33565	35332	
724	0	32976	32380	35292	
725	0	32960	31940	35266	
726	0	32896	31344	35209	
727	0	32980	32068	35199	
728	0	32868	33544	35180	
729	0	32696	34204	35168	
730	0	32526	33976	35152	
731	0	32530	33207	35149	
732	0	32652	33040	35129	
733	0	32720	33870	35177	
734	0	32568	32956	35236	
735	0	32564	31590	35234	
736	0	32713	30856	35238	
737	0	32769	31644	35223	
738	0	32820	32280	35204	
739	0	32813	32880	35188	
740	0	32788	33332	35138	
741	0	32716	33377	35048	
742	0	32724	34421	35049	
743	0	32797	34352	35116	
744	0	32956	33877	34980	
745	0	33076	32890	34896	
746	0	32978	33140	34901	
747	0	32916	32912	34982	
748	0	32793	32092	35140	
749	0	32684	32144	35272	
750	0	32612	32452	35296	
751	0	32556	32268	35252	
752	0	32428	32308	35188	
753	0	32464	32360	35116	
754	0	32548	32380	35041	
755	0	32508	32372	34928	
756	0	32696	33237	34828	
757	0	32845	33215	34812	
758	0	32928	32808	34790	
759	0	32901	32193	34684	
760	0	32852	32340	34456	
761	0	33010	32757	34380	
762	0	33144	32996	34310	
763	0	33096	33269	34340	
764	0	33100	33269	34344	
765	0	33028	32940	34396	
766	0	32926	32716	34436	
767	0	33056	32444	34456	
768	0	32881	32336	34648	
769	0	32668	32028	34828	
770	0	32530	31699	34958	
771	0	32300	31828	35184	
772	0	32292	30918	34925	
773	0	32408	31297	34585	
774	0	32380	30716	34544	
775	0	32564	32301	34652	
776	0	32652	33412	34801	
777	0	32700	35372	34882	
778	0	32896	36000	34932	
779	0	32910	33311	35032	
780	0	32944	33935	35144	
781	0	33076	33848	35217	
782	0	33296	33144	35168	
783	0	33384	33182	34976	
784	0	33476	33897	34924	
785	0	33412	32728	34776	
786	0	33068	31680	34636	
787	0	32900	31093	34500	
788	0	32808	31532	34319	
789	0	32472	31660	34203	
790	0	32148	32221	34149	
791	0	31652	32488	34052	
792	0	31384	32706	33992	
793	0	31964	32868	34045	
794	0	32328	32096	34090	
795	0	32896	31798	34158	
796	0	33429	32880	34185	
797	0	33858	34232	34192	
798	0	33960	33683	34220	
799	0	33405	33992	34240	
800	0	33212	35421	34280	
801	0	33569	34872	34336	
802	0	33388	32796	34340	
803	0	32732	30804	34398	
804	0	32640	31738	34461	
805	0	32512	32910	34508	
806	0	32422	32753	34620	
807	0	32404	32701	34720	
808	0	32517	33530	34857	
809	0	32420	33860	35007	
810	0	32310	33284	35170	
811	0	32276	32714	35348	
812	0	32432	32881	35471	
813	0	32452	32980	35604	
814	0	32456	32960	35736	
815	0	32616	33134	35844	
816	0	32808	32984	35936	
817	0	33176	32984	35969	
818	0	33252	33700	36013	
819	0	33192	33465	36040	
820	0	33108	33052	36064	
821	0	32968	32391	36060	
822	0	32882	33064	36048	
823	0	32904	32453	36012	
824	0	32884	32676	35956	
825	0	32744	33632	35910	
826	0	32620	34276	35852	
827	0	32706	34084	35800	
828	0	32596	33391	35756	
829	0	32520	32452	35733	
830	0	32404	33068	35708	
831	0	32268	32430	35684	
832	0	32576	32034	35680	
833	0	32772	31372	35664	
834	0	32804	32554	35637	
835	0	32892	32960	35644	
836	0	33032	33560	35644	
837	0	33376	33916	35628	
838	0	33609	34036	35605	
839	0	33336	33858	35524	
840	0	32509	32062	35432	
841	0	31781	32214	35335	
842	0	31012	29682	35217	
843	0	30520	27754	35102	
844	0	30096	29032	34973	
845	0	29848	31144	34836	
846	0	30240	34301	34673	
847	0	31044	35929	34526	
848	0	29872	36887	34348	
849	0	28813	34572	34173	
850	0	31009	32000	34028	
851	0	33456	31152	33864	
852	0	36568	30672	33734	
853	0	37928	34725	33612	
854	0	37752	34783	33517	
855	0	37786	34634	33410	
856	0	38096	33950	33340	
857	0	38368	36020	33276	
858	0	38396	38564	33188	
859	0	37888	37612	33125	
860	0	37208	36529	33084	
861	0	35200	33936	32980	
862	0	34204	30391	32888	
863	0	32916	28578	32798	
864	0	31356	28487	32704	
865	0	29908	29036	32560	
866	0	28568	33236	32408	
867	0	28298	31544	32281	
868	0	29248	27970	32114	
869	0	30432	27076	31936	
870	0	30428	32372	31800	
871	0	29984	30048	31640	
872	0	29884	29631	31490	
873	0	30252	31940	31364	
874	0	30688	33404	31216	
875	0	31994	32568	31096	
876	0	32304	32994	30968	
877	0	33140	33696	30876	
878	0	34120	37662	30780	
879	0	31880	36188	30724	
880	0	30528	33236	30631	
881	0	30898	33956	30574	
882	0	31596	34046	30492	
883	0	33356	31600	30408	
884	0	35124	31234	30340	
885	0	35588	31645	30260	
886	0	35100	34072	30188	
887	0	35336	34860	30128	
888	0	35296	30816	30069	
889	0	34407	26486	29984	
890	0	33200	26401	29912	
891	0	31876	29012	29858	
892	0	30600	29676	29882	
893	0	29993	32160	29878	
894	0	30228	34453	29920	
895	0	29856	34160	29964	
896	0	30244	34968	30072	
897	0	31806	34668	30212	
898	0	33930	33656	30408	
899	0	34658	34180	30644	
900	0	34626	33744	30932	
901	0	34884	34676	31220	
902	0	35808	34493	31569	
903	0	35392	33964	31942	
904	0	34550	32257	32309	
905	0	34150	30274	32676	
906	0	33828	26504	33068	
907	0	33880	28204	33472	
908	0	32420	34764	33868	
909	0	31272	35005	34272	
910	0	31648	32684	34664	
911	0	31220	34389	35028	
912	0	31008	33184	35380	
913	0	32292	33917	35684	
914	0	31916	34500	35964	
915	0	32140	33840	36181	
916	0	32672	33244	36320	
917	0	32884	30528	36452	
918	0	33221	31904	36480	
919	0	33468	31988	36472	
920	0	33352	28360	36440	
921	0	33144	30053	36388	
922	0	33313	33527	36298	
923	0	35264	36704	36212	
924	0	34324	37776	36120	
925	0	33327	35988	36022	
926	0	32628	33736	35930	
927	0	31596	33388	35860	
928	0	30552	33868	35796	
929	0	30680	33716	35741	
930	0	31952	39248	35700	
931	0	32416	39101	35648	
932	0	32328	27868	35572	
933	0	32524	24720	35504	
934	0	32612	23248	35380	
935	0	32506	23481	35228	
936	0	32144	29192	35020	
937	0	32172	33772	34789	
938	0	32436	34500	34544	
939	0	32324	35028	34280	
940	0	33148	39039	33984	
941	0	33768	34628	33676	
942	0	33556	35556	33368	
943	0	33220	30344	33036	
944	0	33000	25100	32694	
945	0	33028	26721	32360	
946	0	31904	33396	32064	
947	0	31332	38924	31792	
948	0	32596	40632	31536	
949	0	33668	33900	31320	
950	0	33104	31304	31104	
951	0	33069	32328	30928	
952	0	32889	31761	30774	
953	0	32584	27372	30660	
954	0	32696	27308	30590	
955	0	32696	28917	30528	
956	0	32998	33268	30496	
957	0	32764	36908	30516	
958	0	33000	36511	30561	
959	0	33266	35428	30608	
960	0	32984	34252	30660	
961	0	33076	40672	30790	
962	0	32660	37704	30894	
963	0	32925	33073	31008	
964	0	33988	29213	31084	
965	0	33856	30809	31183	
966	0	33377	35286	31284	
967	0	33428	36628	31375	
968	0	33576	36508	31461	
969	0	33492	32720	31520	
970	0	33381	31444	31558	
971	0	33116	29048	31632	
972	0	32704	30792	31696	
973	0	32529	31680	31794	
974	0	31946	30196	31892	
975	0	31722	29584	31988	
976	0	31628	26472	32080	
977	0	32108	29025	32164	
978	0	32673	34924	32274	
979	0	32476	38576	32388	
980	0	31581	35632	32473	
981	0	31388	33026	32541	
982	0	32032	35231	32630	
983	0	33476	29068	32708	
984	0	33052	29344	32772	
985	0	32828	36430	32869	
986	0	33180	37112	32958	
987	0	33648	39328	33044	
988	0	33468	38012	33159	
989	0	32744	30852	33224	
990	0	31324	28972	33296	
991	0	30812	27090	33382	
992	0	31048	23968	33448	
993	0	30280	22874	33494	
994	0	31266	30368	33536	
995	0	33308	36097	33572	
996	0	35848	42588	33556	
997	0	37216	39144	33518	
998	0	36660	32958	33472	
999	0	35532	30064	33421	
1000	0	35188	28450	33365	
1001	0	33560	27782	33292	
1002	0	31825	31486	33160	
1003	0	31548	43168	33072	
1004	0	33080	48976	32992	
1005	0	32704	43004	32904	
1006	0	32384	29736	32828	
1007	0	32144	27524	32800	
1008	0	32300	27860	32785	
1009	0	32433	24666	32796	
1010	0	31929	20930	32828	
1011	0	31688	24057	32884	
1012	0	31688	36952	32980	
1013	0	31668	38065	33092	
1014	0	31692	32858	33196	
1015	0	31404	29188	33332	
1016	0	31873	29404	33473	
1017	0	32676	31584	33625	
1018	0	33230	31908	33772	
1019	0	33356	35770	33908	
1020	0	33196	29392	34056	
1021	0	33212	34068	34230	
1022	0	33260	41408	34404	
1023	0	33161	37841	34553	
1024	0	32948	36965	34714	
1025	0	33132	33919	34852	
1026	0	33276	34117	34925	
1027	0	33268	32688	34972	
1028	0	33480	28980	34972	
1029	0	33289	35368	34945	
1030	0	33052	34452	34837	
1031	0	32292	29908	34648	
1032	0	31754	20067	34400	
1033	0	32232	16676	34108	
1034	0	32376	21768	33808	
1035	0	32436	32060	33488	
1036	0	32704	46368	33172	
1037	0	33108	45973	32862	
1038	0	33120	40652	32588	
1039	0	33124	38752	32362	
1040	0	33124	34704	32160	
1041	0	33044	35904	32016	
1042	0	32324	28128	31896	
1043	0	31724	30584	31804	
1044	0	31549	38862	31728	
1045	0	33004	35253	31700	
1046	0	33048	28077	31704	
1047	0	32532	21593	31720	
1048	0	32508	26852	31740	
1049	0	32876	25932	31788	
1050	0	32856	31681	31870	
1051	0	33000	44020	31988	
1052	0	32840	45036	32144	
1053	0	32876	49252	32284	
1054	0	32660	43484	32385	
1055	0	32612	30852	32464	
1056	0	32604	26313	32566	
1057	0	32580	27556	32712	
1058	0	32700	26070	32964	
1059	0	32724	25364	33276	
1060	0	32778	27432	33604	
1061	0	32796	34636	33952	
1062	0	33412	38968	34212	
1063	0	33788	36553	34396	
1064	0	33680	36976	34476	
1065	0	34012	30436	34449	
1066	0	33796	25952	34292	
1067	0	32656	27184	34055	
1068	0	32220	34788	33720	
1069	0	32168	31824	33277	
1070	0	31988	35752	32825	
1071	0	31968	36862	32345	
1072	0	32208	26296	31850	
1073	0	32541	21736	31391	
1074	0	32988	29256	30988	
1075	0	33109	44488	30648	
1076	0	33116	47948	30372	
1077	0	33296	43465	30172	
1078	0	33180	36444	30066	
1079	0	32876	29180	30020	
1080	0	32648	25101	30056	
1081	0	32720	26808	30122	
1082	0	32464	35116	30244	
1083	0	32365	42096	30380	
1084	0	32660	38952	30544	
1085	0	33272	30434	30692	
1086	0	33264	27587	30845	
1087	0	32980	29872	30992	
1088	0	32876	30876	31104	
1089	0	32656	36536	31220	
1090	0	32264	40640	31316	
1091	0	31788	35764	31356	
1092	0	31298	26616	31392	
1093	0	30888	21893	31412	
1094	0	32068	18250	31396	
1095	0	33156	33452	31404	
1096	0	34144	38540	31416	
1097	0	34336	41708	31424	
1098	0	34304	39224	31452	
1099	0	34522	37398	31465	
1100	0	34104	42464	31496	
1101	0	33242	39084	31532	
1102	0	32468	33108	31604	
1103	0	32644	25688	31660	
1104	0	32920	25526	31712	
1105	0	32676	24491	31744	
1106	0	32036	28713	31780	
1107	0	31352	29568	31808	
1108	0	30704	39486	31836	
1109	0	31520	42416	31844	
1110	0	32481	40672	31864	
1111	0	32872	33668	31922	
1112	0	32928	27598	32328	
1113	0	33240	31340	31976	
1114	0	32936	27560	31672	
1115	0	32892	26140	31712	
1116	0	33056	32092	31908	
1117	0	32964	31326	32048	
1118	0	33112	30704	32140	
1119	0	33296	38892	32213	
1120	0	33258	39896	32250	
1121	0	33236	37736	32321	
1122	0	33092	27656	32320	
1123	0	32972	33844	32209	
1124	0	32632	40774	32116	
1125	0	32536	30756	32116	
1126	0	31744	29573	32104	
1127	0	30042	33076	32080	
1128	0	29896	29022	32022	
1129	0	31500	29498	31952	
1130	0	33040	35188	31892	
1131	0	33752	36072	31828	
1132	0	33604	34716	31780	
1133	0	35152	37890	31712	
1134	0	34968	37733	31612	
1135	0	33680	38668	31527	
1136	0	32592	34764	31500	
1137	0	33928	32048	31508	
1138	0	35344	32462	31512	
1139	0	34252	31452	31512	
1140	0	33344	29044	31536	
1141	0	33088	29431	31558	
1142	0	32929	31026	31598	
1143	0	32224	31706	31661	
1144	0	31780	33088	31708	
1145	0	31478	35576	31764	
1146	0	31856	35300	31846	
1147	0	32256	30984	31860	
1148	0	32460	25102	31794	
1149	0	32309	30164	31802	
1150	0	32138	33268	31870	
1151	0	32232	39361	31950	
1152	0	32376	34440	32032	
1153	0	32420	27584	32072	
1154	0	32612	30260	32116	
1155	0	32668	36652	32144	
1156	0	32452	35272	32148	
1157	0	32393	36692	32124	
1158	0	32571	35868	32112	
1159	0	33005	30404	32100	
1160	0	33080	37324	32088	
1161	0	33184	35172	32064	
1162	0	33252	30124	31980	
1163	0	33304	27136	31908	
1164	0	33080	26757	31832	
1165	0	32844	25820	31744	
1166	0	32928	22826	31664	
1167	0	32828	37162	31548	
1168	0	32956	42008	31440	
1169	0	32996	32392	31296	
1170	0	32768	32189	31172	
1171	0	32116	39098	31064	
1172	0	32244	45608	30978	
1173	0	32352	44036	30896	
1174	0	32272	32768	30848	
1175	0	32276	27512	30760	
1176	0	32572	31332	30708	
1177	0	32976	34948	30664	
1178	0	33124	33918	30636	
1179	0	33237	34852	30572	
1180	0	33492	32384	30512	
1181	0	33374	31653	30449	
1182	0	33208	26952	30357	
1183	0	32976	25040	30308	
1184	0	32596	28791	30278	
1185	0	32696	32833	30228	
1186	0	32860	34201	30212	
1187	0	32584	32710	30212	
1188	0	32612	30873	30184	
1189	0	32674	30918	30172	
1190	0	32572	32924	30165	
1191	0	32140	34192	30169	
1192	0	32472	34189	30184	
1193	0	32425	33884	30180	
1194	0	33041	34092	30168	
1195	0	32812	32141	30142	
1196	0	32336	30372	30068	
1197	0	32586	29430	30048	
1198	0	32680	31892	30013	
1199	0	34272	32920	29988	
1200	0	34777	30998	29956	
1201	0	34496	37924	29964	
1202	0	33744	40765	29980	
1203	0	32820	37001	30016	
1204	0	31660	31964	30080	
1205	0	30900	30808	30140	
1206	0	31792	36036	30185	
1207	0	32748	34340	30250	
1208	0	33152	34320	30316	
1209	0	32828	32769	30378	
1210	0	32504	31111	30400	
1211	0	32312	30532	30432	
1212	0	32033	30429	30460	
1213	0	31884	30446	30488	
1214	0	32504	31120	30540	
1215	0	32793	32113	30612	
1216	0	32848	30081	30668	
1217	0	32961	31336	30749	
1218	0	33357	32198	30800	
1219	0	33132	37508	30862	
1220	0	33216	38344	30932	
1221	0	33062	31457	30968	
1222	0	33464	32889	31001	
1223	0	33617	29540	31008	
1224	0	32776	31860	31014	
1225	0	32384	33040	30981	
1226	0	32416	33437	30948	
1227	0	32450	32701	30926	
1228	0	32736	31230	30946	
1229	0	32995	34080	30978	
1230	0	32833	33424	31032	
1231	0	32781	32204	31105	
1232	0	32560	34404	31172	
1233	0	32518	32884	31240	
1234	0	32568	30834	31304	
1235	0	32648	32865	31332	
1236	0	32737	32552	31368	
1237	0	32817	28804	31359	
1238	0	32804	30585	31380	
1239	0	32834	35400	31385	
1240	0	32844	32440	31389	
1241	0	32960	31623	31388	
1242	0	33164	27480	31388	
1243	0	33220	31461	31404	
1244	0	33116	32624	31408	
1245	0	33005	34212	31372	
1246	0	32720	40725	31356	
1247	0	32616	32804	31340	
1248	0	32668	29732	31333	
1249	0	32484	29200	31324	
1250	0	32628	34728	31288	
1251	0	32548	40544	31284	
1252	0	32372	34144	31260	
1253	0	32380	31560	31212	
1254	0	32476	33544	31156	
1255	0	32476	31274	31122	
1256	0	32745	31826	31068	
1257	0	33120	31832	31049	
1258	0	33220	33064	31020	
1259	0	33098	31244	31013	
1260	0	33174	28932	30996	
1261	0	32354	29124	31005	
1262	0	32356	31296	30984	
1263	0	32552	32848	30973	
1264	0	32824	32306	30932	
1265	0	33384	34980	30892	
1266	0	33916	34695	30850	
1267	0	32376	29918	30781	
1268	0	30904	29756	30743	
1269	0	29768	35196	30684	
1270	0	30368	37184	30624	
1271	0	32548	35374	30577	
1272	0	34817	36088	30520	
1273	0	36196	34860	30480	
1274	0	36012	32744	30444	
1275	0	35816	29972	30404	
1276	0	34896	31317	30384	
1277	0	33568	33909	30356	
1278	0	32020	33036	30364	
1279	0	32172	30860	30361	
1280	0	31417	28292	30360	
1281	0	30914	32557	30369	
1282	0	31688	36172	30376	
1283	0	31876	30785	30324	
1284	0	32412	32741	30300	
1285	0	32928	36322	30284	
1286	0	32920	34441	30272	
1287	0	32740	35870	30280	
1288	0	32284	33989	30276	
1289	0	32636	35924	30296	
1290	0	33089	32960	30324	
1291	0	32773	28848	30382	
1292	0	32629	26841	30438	
1293	0	32772	32980	30508	
1294	0	32832	36288	30577	
1295	0	32756	35032	30608	
1296	0	32444	32841	30629	
1297	0	32412	31775	30624	
1298	0	32576	29281	30626	
1299	0	32984	26758	30590	
1300	0	33164	33584	30552	
1301	0	33112	39341	30528	
1302	0	33005	34838	30506	
1303	0	32528	29815	30504	
1304	0	32804	31284	30526	
1305	0	33008	33212	30526	
1306	0	32920	35393	30574	
1307	0	32877	32996	30576	
1308	0	32814	33082	30608	
1309	0	32468	31943	30628	
1310	0	32169	32794	30660	
1311	0	32308	33028	30692	
1312	0	32492	33925	30736	
1313	0	32572	30769	30759	
1314	0	33284	32376	30748	
1315	0	33384	30456	30762	
1316	0	33104	30820	30742	
1317	0	32800	32412	30752	
1318	0	32828	35796	30724	
1319	0	32736	36426	30746	
1320	0	32436	34941	30750	
1321	0	32412	35204	30750	
1322	0	32568	31796	30785	
1323	0	32585	31304	30804	
1324	0	32585	31337	30844	
1325	0	32476	32848	30884	
1326	0	33401	32876	30940	
1327	0	33232	32068	30988	
1328	0	32752	31172	30972	
1329	0	33332	32840	31016	
1330	0	33953	33344	31037	
1331	0	33716	34241	31037	
1332	0	33581	34092	31068	
1333	0	32572	31120	31080	
1334	0	32120	26968	31120	
1335	0	32136	22297	31110	
1336	0	32320	28362	31124	
1337	0	32520	35212	31140	
1338	0	32482	41336	31156	
1339	0	32512	41794	31162	
1340	0	32608	34092	31152	
1341	0	32572	32537	31141	
1342	0	32426	36192	31110	
1343	0	32760	37572	31088	
1344	0	33464	32212	31072	
1345	0	33260	29232	31032	
1346	0	33136	29272	30980	
1347	0	33172	31854	30952	
1348	0	32876	31144	30916	
1349	0	32621	33260	30857	
1350	0	32520	34184	30818	
1351	0	32600	32980	30794	
1352	0	32664	32484	30778	
1353	0	32248	30290	30760	
1354	0	32016	28104	30780	
1355	0	31844	30692	30776	
1356	0	31536	41664	30784	
1357	0	32006	39812	30796	
1358	0	33092	30993	30768	
1359	0	33488	27314	30764	
1360	0	34096	31752	30764	
1361	0	34256	35183	30772	
1362	0	34480	34970	30756	
1363	0	34484	33854	30768	
1364	0	33256	30364	30765	
1365	0	32180	31140	30745	
1366	0	32120	30832	30728	
1367	0	32372	28334	30719	
1368	0	32320	29632	30692	
1369	0	32621	29940	30664	
1370	0	32625	34414	30652	
1371	0	32612	36052	30666	
1372	0	32508	43384	30693	
1373	0	31724	36616	30680	
1374	0	31017	37172	30680	
1375	0	31041	33188	30678	
1376	0	31516	29228	30691	
1377	0	32188	27984	30684	
1378	0	33898	32801	30685	
1379	0	36456	33472	30660	
1380	0	35164	31952	30660	
1381	0	33820	29316	30662	
1382	0	33790	31348	30677	
1383	0	33256	31268	30708	
1384	0	32342	30520	30708	
1385	0	32570	31736	30692	
1386	0	32440	30540	30684	
1387	0	32433	31967	30692	
1388	0	32448	32670	30672	
1389	0	32440	35989	30668	
1390	0	32444	33473	30672	
1391	0	32336	32908	30700	
1392	0	31892	37352	30681	
1393	0	31672	36200	30724	
1394	0	32068	34240	30720	
1395	0	32420	31958	30727	
1396	0	32632	30356	30732	
1397	0	33005	33708	30732	
1398	0	32796	32620	30748	
1399	0	32344	30830	30732	
1400	0	32592	34116	30749	
1401	0	32528	34380	30756	
1402	0	33312	35076	30744	
1403	0	33544	33348	30732	
1404	0	34157	31718	30728	
1405	0	33776	30588	30732	
1406	0	33188	31524	30724	
1407	0	33376	30081	30709	
1408	0	33236	31712	30684	
1409	0	32824	31672	30672	
1410	0	32332	28238	30688	
1411	0	32328	28072	30676	
1412	0	32748	35220	30680	
1413	0	32652	37536	30680	
1414	0	32288	41352	30686	
1415	0	32228	36880	30700	
1416	0	32281	35148	30730	
1417	0	32428	30762	30750	
1418	0	32177	27254	30769	
1419	0	31956	28712	30784	
1420	0	31919	35581	30821	
1421	0	32716	34660	30816	
1422	0	32552	33548	30832	
1423	0	33724	32296	30824	
1424	0	34572	34190	30824	
1425	0	34496	32804	30812	
1426	0	33968	30478	30814	
1427	0	32808	26540	30806	
1428	0	32448	28044	30820	
1429	0	32656	35296	30820	
1430	0	33376	39132	30783	
1431	0	32888	36293	30744	
1432	0	32080	34474	30756	
1433	0	32112	33668	30741	
1434	0	32212	32536	30742	
1435	0	32056	31046	30744	
1436	0	31892	31922	30756	
1437	0	31720	31942	30780	
1438	0	31836	30311	30800	
1439	0	32434	30368	30808	
1440	0	33184	30868	30790	
1441	0	33368	34572	30794	
1442	0	33576	33892	30788	
1443	0	34016	34340	30772	
1444	0	34150	34036	30789	
1445	0	33765	34049	30782	
1446	0	33113	31272	30764	
1447	0	33288	29364	30767	
1448	0	33196	31980	30753	
1449	0	32528	34420	30728	
1450	0	31920	35760	30720	
1451	0	31629	30296	30697	
1452	0	32212	32332	30688	
1453	0	32748	33060	30688	
1454	0	32315	32977	30676	
1455	0	32250	36192	30680	
1456	0	32420	32786	30676	
1457	0	33033	32960	30686	
1458	0	32932	33242	30681	
1459	0	32836	33297	30664	
1460	0	32740	29433	30648	
1461	0	32798	32513	30640	
1462	0	32832	37965	30628	
1463	0	32920	36315	30612	
1464	0	32944	31852	30598	
1465	0	33216	31140	30600	
1466	0	33332	30428	30575	
1467	0	33356	30364	30574	
1468	0	33072	31148	30588	
1469	0	32556	29045	30578	
1470	0	31597	26972	30593	
1471	0	30988	36320	30620	
1472	0	31236	41828	30660	
1473	0	31388	36280	30668	
1474	0	32852	34026	30648	
1475	0	35134	32687	30648	
1476	0	35393	31934	30656	
1477	0	33764	34000	30692	
1478	0	32600	33256	30727	
1479	0	32341	31108	30732	
1480	0	32328	30468	30736	
1481	0	32584	31780	30734	
1482	0	32617	32632	30748	
1483	0	32920	32734	30744	
1484	0	33216	31813	30770	
1485	0	33068	31488	30784	
1486	0	32892	29140	30772	
1487	0	33364	33948	30766	
1488	0	33232	33996	30788	
1489	0	32784	32004	30788	
1490	0	32468	35834	30776	
1491	0	32009	37141	30789	
1492	0	31748	35932	30812	
1493	0	32044	32077	30828	
1494	0	32528	30743	30846	
1495	0	32352	29716	30868	
1496	0	32220	32432	30902	
1497	0	32732	34256	30900	
1498	0	32481	34756	30872	
1499	0	32232	29844	30864	
1500	0	32724	29400	30855	
1501	0	33932	33476	30836	
1502	0	34512	34617	30806	
1503	0	34916	33696	30801	
1504	0	34348	33820	30788	
1505	0	33112	33672	30810	
1506	0	32145	31036	30808	
1507	0	32322	29218	30800	
1508	0	32872	29786	30818	
1509	0	32646	36384	30825	
1510	0	32000	36476	30837	
1511	0	32096	36649	30845	
1512	0	32036	33144	30868	
1513	0	32376	32772	30848	
1514	0	32484	32104	30854	
1515	0	32692	29834	30852	
1516	0	32964	28679	30888	
1517	0	32736	30496	30886	
1518	0	32436	34040	30889	
1519	0	32464	35572	30886	
1520	0	32614	32556	30885	
1521	0	32988	31880	30894	
1522	0	33078	32733	30892	
1523	0	33428	35136	30896	
1524	0	33540	37636	30916	
1525	0	32904	33053	30912	
1526	0	32548	33492	30932	
1527	0	31380	33351	30928	
1528	0	31109	32558	30924	
1529	0	32356	31799	30948	
1530	0	33384	31880	30957	
1531	0	32924	30342	30956	
1532	0	34648	29826	30942	
1533	0	34749	31056	30936	
1534	0	33740	33118	30930	
1535	0	32566	35359	30920	
1536	0	32212	36484	30932	
1537	0	32500	34216	30889	
1538	0	32572	30708	30907	
1539	0	32492	31486	30912	
1540	0	32497	29930	30918	
1541	0	32696	32976	30932	
1542	0	32444	32944	30954	
1543	0	32272	31908	30976	
1544	0	33120	35398	30984	
1545	0	33324	36180	30980	
1546	0	32176	36100	30972	
1547	0	31536	34453	30952	
1548	0	31688	31676	30936	
1549	0	32348	31741	30926	
1550	0	33800	32252	30945	
1551	0	33784	31605	30944	
1552	0	33724	31400	30934	
1553	0	33976	34840	30936	
1554	0	34130	34785	30910	
1555	0	33092	32364	30930	
1556	0	32124	30324	30941	
1557	0	32084	31108	30922	
1558	0	32228	32058	30908	
1559	0	32200	31220	30898	
1560	0	31996	33348	30906	
1561	0	32192	31204	30905	
1562	0	32380	31825	30869	
1563	0	33128	33892	30854	
1564	0	33780	36268	30844	
1565	0	33764	31220	30824	
1566	0	33496	29269	30821	
1567	0	32824	32248	30805	
1568	0	32368	33694	30798	
1569	0	32220	35748	30780	
1570	0	32128	35045	30773	
1571	0	32250	33464	30773	
1572	0	32276	32020	30756	
1573	0	32324	34532	30732	
1574	0	32064	33425	30709	
1575	0	33120	32388	30740	
1576	0	34012	28708	30753	
1577	0	33266	29440	30765	
1578	0	32668	28032	30769	
1579	0	33020	33052	30780	
1580	0	33032	38434	30770	
1581	0	32524	39520	30782	
1582	0	34218	36616	30793	
1583	0	33216	32976	30794	
1584	0	32320	30280	30792	
1585	0	32648	29372	30784	
1586	0	32577	28042	30776	
1587	0	32432	32557	30776	
1588	0	32748	36674	30785	
1589	0	32692	35554	30781	
1590	0	32328	35539	30780	
1591	0	32468	33163	30800	
1592	0	32489	32532	30817	
1593	0	32662	32445	30820	
1594	0	32656	33096	30837	
1595	0	32840	30840	30870	
1596	0	32833	31622	30880	
1597	0	32564	33473	30885	
1598	0	32564	33676	30893	
1599	0	32912	30992	30901	
1600	0	32896	29856	30916	
1601	0	33180	29025	30940	
1602	0	33376	31671	30932	
1603	0	33136	36032	30928	
1604	0	33112	35544	30932	
1605	0	33152	36920	30920	
1606	0	32902	34744	30916	
1607	0	32848	33286	30896	
1608	0	32500	32136	30885	
1609	0	32460	31192	30887	
1610	0	32020	31382	30885	
1611	0	31152	32440	30872	
1612	0	30476	32484	30873	
1613	0	30784	31552	30882	
1614	0	32676	30112	30844	
1615	0	33584	30101	30818	
1616	0	35940	33029	30834	
1617	0	36292	33852	30840	
1618	0	35472	34680	30840	
1619	0	32252	34016	30834	
1620	0	31592	34228	30830	
1621	0	32748	33336	30837	
1622	0	33948	33330	30829	
1623	0	32772	32068	30841	
1624	0	32604	30940	30840	
1625	0	32686	33564	30844	
1626	0	32625	34604	30833	
1627	0	32536	33760	30852	
1628	0	32336	33564	30852	
1629	0	32266	32600	30864	
1630	0	32231	34376	30864	
1631	0	32324	33860	30866	
1632	0	32256	31600	30860	
1633	0	32068	33064	30864	
1634	0	32152	35904	30857	
1635	0	32446	35236	30852	
1636	0	32584	33268	30852	
1637	0	32792	31940	30866	
1638	0	33388	30885	30872	
1639	0	32840	30756	30852	
1640	0	33092	32010	30848	
1641	0	33144	32120	30860	
1642	0	32925	29368	30844	
1643	0	32744	32134	30864	
1644	0	32832	33324	30874	
1645	0	32814	34364	30862	
1646	0	32900	35460	30820	
1647	0	33528	34684	30788	
1648	0	33476	34692	30796	
1649	0	32380	32420	30793	
1650	0	31534	31584	30762	
1651	0	31688	29128	30757	
1652	0	32076	28656	30784	
1653	0	32492	29734	30784	
1654	0	33181	32844	30798	
1655	0	35368	40064	30792	
1656	0	34012	37220	30792	
1657	0	32616	30610	30788	
1658	0	32206	30920	30813	
1659	0	32229	34724	30816	
1660	0	32440	35078	30820	
1661	0	32652	34408	30828	
1662	0	32608	33671	30832	
1663	0	32328	32332	30837	
1664	0	32547	32892	30844	
1665	0	32057	28420	30816	
1666	0	31500	29996	30810	
1667	0	33360	28672	30808	
1668	0	33254	31872	30784	
1669	0	33309	33377	30773	
1670	0	33260	35876	30770	
1671	0	33920	33800	30765	
1672	0	34409	34856	30765	
1673	0	34436	34400	30772	
1674	0	32964	32701	30756	
1675	0	31956	33377	30753	
1676	0	32392	31492	30766	
1677	0	32572	28952	30760	
1678	0	32086	28612	30772	
1679	0	31984	33672	30780	
1680	0	32117	37856	30780	
1681	0	32208	37844	30784	
1682	0	32413	32868	30764	
1683	0	32672	29269	30769	
1684	0	33488	31880	30764	
1685	0	33266	36404	30756	
1686	0	32824	36164	30769	
1687	0	32688	34280	30792	
1688	0	32764	32154	30794	
1689	0	32812	30824	30801	
1690	0	32804	28740	30800	
1691	0	32844	31770	30807	
1692	0	32692	32168	30796	
1693	0	32628	34992	30773	
1694	0	32544	34984	30760	
1695	0	32212	30608	30760	
1696	0	32352	29668	30764	
1697	0	32464	28796	30753	
1698	0	32572	28942	30768	
1699	0	33193	31724	30786	
1700	0	33290	38908	30772	
1701	0	33494	39164	30746	
1702	0	33372	36652	30736	
1703	0	32746	32309	30709	
1704	0	32948	31536	30692	
1705	0	33128	32048	30687	
1706	0	33054	32188	30692	
1707	0	32929	33610	30697	
1708	0	32472	32288	30754	
1709	0	32060	31980	30756	
1710	0	32060	31040	30752	
1711	0	32524	31861	30754	
1712	0	32506	30957	30756	
1713	0	32798	28460	30772	
1714	0	32668	30252	30776	
1715	0	31956	32258	30808	
1716	0	32411	36038	30816	
1717	0	32809	37988	30824	
1718	0	33808	36576	30816	
1719	0	34924	34732	30820	
1720	0	33968	32978	30816	
1721	0	33044	32336	30838	
1722	0	32818	31524	30826	
1723	0	32752	30756	30812	
1724	0	32472	31388	30828	
1725	0	32224	31793	30824	
1726	0	32566	31623	30812	
1727	0	32388	35746	30808	
1728	0	32548	36026	30812	
1729	0	32592	36352	30824	
1730	0	32608	31740	30824	
1731	0	32792	29144	30820	
1732	0	32596	25544	30817	
1733	0	31852	29888	30789	
1734	0	31877	41356	30816	
1735	0	31544	35136	30792	
1736	0	31600	33825	30796	
1737	0	32796	33888	30800	
1738	0	34364	32960	30820	
1739	0	34552	33376	30810	
1740	0	34497	35192	30805	
1741	0	34252	31968	30749	
1742	0	33452	30033	30728	
1743	0	32328	31761	30724	
1744	0	32252	31479	30700	
1745	0	32441	32490	30682	
1746	0	32792	34016	30660	
1747	0	32412	32462	30680	
1748	0	32320	31435	30661	
1749	0	32596	32087	30676	
1750	0	32520	33226	30668	
1751	0	33104	33124	30673	
1752	0	33052	34695	30677	
1753	0	32356	33353	30652	
1754	0	32228	32740	30644	
1755	0	32437	30166	30664	
1756	0	32484	27492	30680	
1757	0	32696	31032	30716	
1758	0	32740	37156	30740	
1759	0	33008	37552	30753	
1760	0	32984	36964	30782	
1761	0	32916	33174	30768	
1762	0	33096	30316	30788	
1763	0	33128	30638	30765	
1764	0	32894	35398	30788	
1765	0	32224	33809	30785	
1766	0	32172	33488	30796	
1767	0	31992	32492	30785	
1768	0	32697	31936	30776	
1769	0	32952	33284	30797	
1770	0	33416	32808	30802	
1771	0	34694	32116	30816	
1772	0	33924	32440	30820	
1773	0	32828	32420	30832	
1774	0	32053	30132	30852	
1775	0	32577	33512	30860	
1776	0	32560	34860	30873	
1777	0	32398	32076	30892	
1778	0	32522	31280	30896	
1779	0	32650	32768	30887	
1780	0	32544	32198	30908	
1781	0	32384	33792	30904	
1782	0	32628	34736	30904	
1783	0	32716	33604	30877	
1784	0	33076	32461	30884	
1785	0	33232	31084	30884	
1786	0	33252	30672	30898	
1787	0	32994	33697	30885	
1788	0	32720	34012	30871	
1789	0	32594	32788	30866	
1790	0	32700	30290	30852	
1791	0	32672	33236	30850	
1792	0	33080	34216	30808	
1793	0	32902	34496	30797	
1794	0	32508	35232	30797	
1795	0	32528	31919	30789	
1796	0	32396	30036	30789	
1797	0	32424	27588	30754	
1798	0	32964	28599	30740	
1799	0	33002	37549	30748	
1800	0	32964	37068	30716	
1801	0	32801	38268	30718	
1802	0	32808	36044	30722	
1803	0	32877	31976	30748	
1804	0	32948	31044	30788	
1805	0	32960	31686	30780	
1806	0	32836	30220	30786	
1807	0	32836	32732	30784	
1808	0	32820	32544	30771	
1809	0	32736	32229	30756	
1810	0	32644	32896	30740	
1811	0	32360	33556	30727	
1812	0	31772	33789	30741	
1813	0	31585	33216	30770	
1814	0	32223	32601	30772	
1815	0	32040	31764	30786	
1816	0	32348	29028	30777	
1817	0	33889	31620	30784	
1818	0	33752	35029	30773	
1819	0	34312	34320	30792	
1820	0	35692	33362	30772	
1821	0	34488	32312	30752	
1822	0	32356	31998	30769	
1823	0	32136	30732	30761	
1824	0	32273	30840	30750	
1825	0	32398	32868	30740	
1826	0	32564	33768	30764	
1827	0	32592	33146	30764	
1828	0	32593	33876	30780	
1829	0	32672	33034	30798	
1830	0	32460	33390	30820	
1831	0	32376	34960	30817	
1832	0	32148	35644	30816	
1833	0	32192	31069	30828	
1834	0	32216	31255	30820	
1835	0	32204	34200	30828	
1836	0	32464	34656	30825	
1837	0	32704	30109	30836	
1838	0	32616	32244	30829	
1839	0	33244	36108	30844	
1840	0	33048	34862	30840	
1841	0	32884	32108	30840	
1842	0	34049	31432	30825	
1843	0	33652	33378	30824	
1844	0	33632	32736	30818	
1845	0	33188	32725	30804	
1846	0	32829	30772	30781	
1847	0	32708	31436	30776	
1848	0	32608	32489	30749	
1849	0	32584	33184	30736	
1850	0	32536	31774	30749	
1851	0	32456	33298	30742	
1852	0	32264	34816	30740	
1853	0	32342	31196	30744	
1854	0	32460	30112	30742	
1855	0	32376	32144	30756	
1856	0	32384	35880	30751	
1857	0	32610	33546	30769	
1858	0	32621	31312	30796	
1859	0	32793	30512	30798	
1860	0	32948	30824	30796	
1861	0	32944	35944	30809	
1862	0	32868	37432	30812	
1863	0	33220	33568	30776	
1864	0	33156	31841	30768	
1865	0	32764	30975	30760	
1866	0	32640	33112	30753	
1867	0	33198	34344	30749	
1868	0	33236	33380	30732	
1869	0	33180	30266	30727	
1870	0	32932	31869	30721	
1871	0	32876	32608	30713	
1872	0	32640	32805	30726	
1873	0	32312	31985	30745	
1874	0	32720	34742	30744	
1875	0	32352	34409	30778	
1876	0	32328	35392	30784	
1877	0	32340	33340	30773	
1878	0	32464	34332	30780	
1879	0	32540	31520	30793	
1880	0	32468	33152	30780	
1881	0	33256	33242	30812	
1882	0	34260	31204	30835	
1883	0	32794	32375	30856	
1884	0	32316	30672	30848	
1885	0	32658	29956	30868	
1886	0	32268	31272	30856	
1887	0	32384	35780	30848	
1888	0	33193	36520	30872	
1889	0	33688	35236	30824	
1890	0	33844	32175	30824	
1891	0	33860	32548	30821	
1892	0	33896	31428	30821	
1893	0	32368	32704	30854	
1894	0	31784	33288	30868	
1895	0	32276	31756	30868	
1896	0	32152	30337	30884	
1897	0	31696	30272	30888	
1898	0	32008	31174	30893	
1899	0	32664	30727	30849	
1900	0	33180	34160	30852	
1901	0	34364	35524	30841	
1902	0	34192	33381	30812	
1903	0	33034	29188	30800	
1904	0	32484	32120	30780	
1905	0	32460	41364	30778	
1906	0	32576	37472	30756	
1907	0	32880	30113	30744	
1908	0	32848	29696	30748	
1909	0	32736	33888	30749	
1910	0	32505	31887	30756	
1911	0	32360	31680	30736	
1912	0	32076	31281	30732	
1913	0	32005	33798	30700	
1914	0	32212	37138	30716	
1915	0	32416	35620	30688	
1916	0	32932	31632	30661	
1917	0	34037	30318	30652	
1918	0	33510	31665	30658	
1919	0	32744	32161	30654	
1920	0	32340	29665	30652	
1921	0	32392	30334	30646	
1922	0	32666	31465	30652	
1923	0	32936	32644	30648	
1924	0	33256	36496	30644	
1925	0	33224	36404	30664	
1926	0	33176	35057	30648	
1927	0	33312	33958	30645	
1928	0	33144	30464	30660	
1929	0	32796	31855	30660	
1930	0	32421	34350	30676	
1931	0	32416	34140	30684	
1932	0	32360	33815	30682	
1933	0	32450	32541	30689	
1934	0	32640	31708	30704	
1935	0	32776	31432	30740	
1936	0	32566	31200	30744	
1937	0	32320	31620	30762	
1938	0	32448	32324	30777	
1939	0	32688	33230	30784	
1940	0	32848	31440	30812	
1941	0	33656	32416	30813	
1942	0	33181	33636	30812	
1943	0	32764	34010	30792	
1944	0	32712	32532	30788	
1945	0	33196	33340	30784	
1946	0	33296	34020	30780	
1947	0	32988	30124	30773	
1948	0	32705	32136	30769	
1949	0	32496	33496	30760	
1950	0	32404	31248	30752	
1951	0	32204	35809	30728	
1952	0	32054	34982	30716	
1953	0	32228	32173	30684	
1954	0	31752	33712	30685	
1955	0	31396	32719	30702	
1956	0	32224	33560	30732	
1957	0	33916	34932	30761	
1958	0	34033	31628	30780	
1959	0	34376	29828	30820	
1960	0	34664	34428	30837	
1961	0	34160	34240	30857	
1962	0	32537	33264	30873	
1963	0	32389	30246	30854	
1964	0	32373	30460	30876	
1965	0	32548	32705	30884	
1966	0	32604	35065	30876	
1967	0	32650	34463	30896	
1968	0	32784	32655	30884	
1969	0	32840	33817	30874	
1970	0	32732	32580	30876	
1971	0	32076	29034	30877	
1972	0	31924	28276	30860	
1973	0	32048	35264	30849	
1974	0	32332	37304	30860	
1975	0	33232	37456	30886	
1976	0	33104	35138	30889	
1977	0	33172	30872	30900	
1978	0	33292	30676	30919	
1979	0	32996	31416	30929	
1980	0	32632	32012	30942	
1981	0	32544	30464	30932	
1982	0	32756	32172	30916	
1983	0	32960	32304	30917	
1984	0	32976	32104	30904	
1985	0	32912	32980	30902	
1986	0	32708	32894	30928	
1987	0	32813	34713	30916	
1988	0	32864	35560	30913	
1989	0	32593	32760	30911	
1990	0	32422	29768	30928	
1991	0	32412	30897	30918	
1992	0	32376	32705	30914	
1993	0	32337	37108	30892	
1994	0	32720	32964	30892	
1995	0	32920	31896	30906	
1996	0	33040	30017	30860	
1997	0	32768	33850	30876	
1998	0	32389	33604	30852	
1999	0	33020	33968	30844	
2000	0	33584	33836	30833	
2001	0	33326	35404	30816	
2002	0	33052	32684	30810	
2003	0	32918	33908	30788	
2004	0	32824	31884	30756	
2005	0	32568	29762	30752	
2006	0	32640	30080	30718	
2007	0	32644	32785	30713	
2008	0	32718	34644	30724	
2009	0	33344	30629	30721	
2010	0	33060	29474	30744	
2011	0	32644	35220	30737	
2012	0	32436	34520	30726	
2013	0	32498	33492	30712	
2014	0	32340	37020	30700	
2015	0	31760	34680	30696	
2016	0	32080	33500	30683	
2017	0	32164	31304	30700	
2018	0	31698	32376	30716	
2019	0	32538	29512	30692	
2020	0	33802	29428	30665	
2021	0	33988	32940	30668	
2022	0	34072	33328	30652	
2023	0	34353	35436	30660	
2024	0	35642	34620	30656	
2025	0	33712	31840	30640	
2026	0	32332	32588	30636	
2027	0	32236	30480	30642	
2028	0	32160	30400	30672	
2029	0	32156	33100	30709	
2030	0	32202	35792	30736	
2031	0	32204	34946	30734	
2032	0	32197	33736	30724	
2033	0	32012	32720	30710	
2034	0	32166	33472	30727	
2035	0	32400	33124	30726	
2036	0	32568	31993	30754	
2037	0	32652	26812	30760	
2038	0	32900	26264	30749	
2039	0	32856	29484	30749	
2040	0	33000	38860	30748	
2041	0	33104	38880	30756	
2042	0	33096	36272	30769	
2043	0	32917	34678	30776	
2044	0	33024	32786	30769	
2045	0	33216	32104	30745	
2046	0	33040	32792	30743	
2047	0	32732	31754	30760	
2048	0	32728	31944	30772	
2049	0	32780	32152	30768	
2050	0	32792	30720	30775	
2051	0	32472	33104	30776	
2052	0	32322	35889	30788	
2053	0	32420	33529	30791	
2054	0	32500	31892	30800	
2055	0	32432	32249	30800	
2056	0	32348	32326	30826	
2057	0	32264	33204	30829	
2058	0	32292	33199	30832	
2059	0	33060	30148	30839	
2060	0	33796	30158	30839	
2061	0	34108	31644	30848	
2062	0	34184	31644	30848	
2063	0	32973	32100	30845	
2064	0	32648	36728	30852	
2065	0	32588	35517	30862	
2066	0	32686	35644	30836	
2067	0	32764	33993	30822	
2068	0	32612	35392	30814	
2069	0	32612	32464	30820	
2070	0	32172	32004	30796	
2071	0	31616	31432	30776	
2072	0	31608	31298	30785	
2073	0	32116	30584	30785	
2074	0	32608	31140	30785	
2075	0	34576	32524	30788	
2076	0	34526	33533	30800	
2077	0	33694	32599	30820	
2078	0	32902	29976	30822	
2079	0	32338	31764	30821	
2080	0	32064	34606	30793	
2081	0	31962	35348	30780	
2082	0	31636	36944	30812	
2083	0	31592	34272	30784	
2084	0	31960	29540	30756	
2085	0	32292	31644	30732	
2086	0	33404	33521	30724	
2087	0	34792	37516	30720	
2088	0	34705	36912	30713	
2089	0	34896	33620	30688	
2090	0	34724	29448	30650	
2091	0	33024	30132	30648	
2092	0	31836	31307	30644	
2093	0	31992	31808	30660	
2094	0	31929	32918	30657	
2095	0	31966	33078	30668	
2096	0	32104	31957	30683	
2097	0	32201	31647	30676	
2098	0	32217	31153	30685	
2099	0	32532	32608	30700	
2100	0	32776	31592	30726	
2101	0	32820	34816	30752	
2102	0	33032	33524	30760	
2103	0	33128	31823	30764	
2104	0	33309	32350	30764	
2105	0	32888	30425	30776	
2106	0	32876	33420	30776	
2107	0	32840	31941	30801	
2108	0	32908	35113	30784	
2109	0	32853	36288	30796	
2110	0	32761	35937	30784	
2111	0	32622	32289	30760	
2112	0	32567	31064	30745	
2113	0	32516	32704	30726	
2114	0	32420	34111	30732	
2115	0	32516	30752	30748	
2116	0	32608	36088	30753	
2117	0	32644	36132	30780	
2118	0	32714	32648	30782	
2119	0	32796	31239	30785	
2120	0	32824	29926	30772	
2121	0	32920	32560	30777	
2122	0	32976	34330	30772	
2123	0	33072	32236	30738	
2124	0	33045	31346	30740	
2125	0	32984	31309	30724	
2126	0	32864	32986	30724	
2127	0	32452	33941	30724	
2128	0	32080	31576	30721	
2129	0	32544	32172	30718	
2130	0	32768	35188	30727	
2131	0	32872	32204	30712	
2132	0	33502	32773	30709	
2133	0	33082	33598	30713	
2134	0	32940	32884	30708	
2135	0	33048	32914	30721	
2136	0	32800	32561	30748	
2137	0	32401	31822	30756	
2138	0	32072	31344	30788	
2139	0	32228	31740	30780	
2140	0	32292	35168	30754	
2141	0	32484	34460	30784	
2142	0	34460	30692	30773	
2143	0	34021	29832	30760	
2144	0	33196	32418	30732	
2145	0	32645	37116	30748	
2146	0	32688	32775	30740	
2147	0	32848	31404	30708	
2148	0	32981	33352	30717	
2149	0	32897	34812	30737	
2150	0	32580	35620	30716	
2151	0	32524	32096	30704	
2152	0	32328	32157	30700	
2153	0	31989	31144	30720	
2154	0	32332	29324	30716	
2155	0	32636	28614	30724	
2156	0	32672	36864	30760	
2157	0	32789	38672	30766	
2158	0	32392	36925	30769	
2159	0	32168	34564	30775	
2160	0	31872	32672	30756	
2161	0	31741	32462	30744	
2162	0	32540	32032	30732	
2163	0	33517	31644	30728	
2164	0	34060	30944	30700	
2165	0	34509	30596	30664	
2166	0	35356	32124	30636	
2167	0	34516	32381	30622	
2168	0	33174	31717	30636	
2169	0	32620	32042	30634	
2170	0	32196	33000	30628	
2171	0	32066	32909	30648	
2172	0	32085	32684	30674	
2173	0	32034	31596	30676	
2174	0	32080	30935	30668	
2175	0	32248	34872	30684	
2176	0	32364	33854	30705	
2177	0	32524	33144	30716	
2178	0	32628	34961	30740	
2179	0	32756	34212	30757	
2180	0	32858	33316	30772	
2181	0	32820	32064	30772	
2182	0	32794	30854	30774	
2183	0	32772	32736	30784	
2184	0	32764	32196	30789	
2185	0	32768	32453	30792	
2186	0	32964	33400	30800	
2187	0	32984	34268	30784	
2188	0	32880	32968	30800	
2189	0	33160	32300	30789	
2190	0	33286	29867	30776	
2191	0	33096	34572	30752	
2192	0	33334	35360	30757	
2193	0	32564	32352	30742	
2194	0	32129	30412	30740	
2195	0	32012	32520	30744	
2196	0	32320	31540	30740	
2197	0	32764	31460	30744	
2198	0	32898	34752	30766	
2199	0	32913	33268	30760	
2200	0	32900	35078	30768	
2201	0	32504	32604	30756	
2202	0	32269	33045	30780	
2203	0	32660	32588	30800	
2204	0	32960	33272	30816	
2205	0	32756	34708	30816	
2206	0	34408	34076	30796	
2207	0	33868	33724	30790	
2208	0	33184	32752	30796	
2209	0	32916	30969	30772	
2210	0	32676	29000	30748	
2211	0	32508	30948	30756	
2212	0	32416	34269	30740	
2213	0	32292	30558	30745	
2214	0	32218	34301	30760	
2215	0	32148	34548	30776	
2216	0	32186	35204	30788	
2217	0	32380	33790	30804	
2218	0	32640	34128	30804	
2219	0	33196	30319	30800	
2220	0	33256	34053	30788	
2221	0	33240	32120	30774	
2222	0	33028	32400	30768	
2223	0	32692	30648	30770	
2224	0	32808	31145	30748	
2225	0	33140	31104	30756	
2226	0	33586	33429	30761	
2227	0	33148	35404	30757	
2228	0	32768	32549	30757	
2229	0	32424	33776	30756	
2230	0	32366	32768	30737	
2231	0	32408	32092	30748	
2232	0	32164	30704	30742	
2233	0	32472	32096	30748	
2234	0	33044	32456	30764	
2235	0	32649	34200	30796	
2236	0	32412	35313	30808	
2237	0	32088	30552	30804	
2238	0	32378	27170	30820	
2239	0	32868	31088	30836	
2240	0	32540	38112	30820	
2241	0	32342	39604	30802	
2242	0	32960	36840	30796	
2243	0	33616	35366	30784	
2244	0	34196	33516	30775	
2245	0	34532	32060	30764	
2246	0	34276	30945	30749	
2247	0	32540	31517	30740	
2248	0	32078	32344	30746	
2249	0	32344	32424	30769	
2250	0	32149	32215	30748	
2251	0	33180	31908	30753	
2252	0	33336	32730	30756	
2253	0	32656	31317	30756	
2254	0	32342	30504	30753	
2255	0	32168	32596	30772	
2256	0	32064	33190	30777	
2257	0	32340	34334	30790	
2258	0	32605	32572	30816	
2259	0	32728	31036	30821	
2260	0	33052	32408	30816	
2261	0	33010	32729	30804	
2262	0	33020	31117	30780	
2263	0	32806	33969	30762	
2264	0	32856	36392	30768	
2265	0	32857	33406	30757	
2266	0	32820	32320	30752	
2267	0	32889	30585	30740	
2268	0	32848	31496	30741	
2269	0	32806	33668	30757	
2270	0	32704	31989	30749	
2271	0	32644	33876	30724	
2272	0	32504	36202	30741	
2273	0	32124	33673	30752	
2274	0	32128	32296	30769	
2275	0	32278	31476	30772	
2276	0	32092	32204	30773	
2277	0	34033	33128	30768	
2278	0	33556	33583	30768	
2279	0	33036	35300	30792	
2280	0	32938	32714	30808	
2281	0	33168	33083	30796	
2282	0	33280	32825	30788	
2283	0	33164	31228	30792	
2284	0	32884	33588	30792	
2285	0	32588	33868	30784	
2286	0	32374	32976	30792	
2287	0	32404	32102	30765	
2288	0	32596	32057	30758	
2289	0	32748	32209	30756	
2290	0	33014	32277	30740	
2291	0	33192	32269	30753	
2292	0	33020	31464	30761	
2293	0	32672	29750	30752	
2294	0	32456	32428	30752	
2295	0	32164	35972	30740	
2296	0	32580	35629	30764	
2297	0	32720	32892	30772	
2298	0	32896	34108	30764	
2299	0	33084	29045	30780	
2300	0	32929	29805	30772	
2301	0	32608	31853	30772	
2302	0	32448	35104	30776	
2303	0	32868	34324	30776	
2304	0	32996	32893	30749	
2305	0	32570	34566	30750	
2306	0	32992	31612	30745	
2307	0	33718	34306	30740	
2308	0	33408	33892	30740	
2309	0	33041	32112	30751	
2310	0	32900	32676	30736	
2311	0	32737	33077	30713	
2312	0	32702	30804	30740	
2313	0	32578	31927	30766	
2314	0	32400	33417	30788	
2315	0	32192	33368	30800	
2316	0	32128	31149	30796	
2317	0	32196	31422	30824	
2318	0	32500	32782	30826	
2319	0	32630	29792	30855	
2320	0	32744	30644	30849	
2321	0	33377	33768	30836	
2322	0	32424	37293	30820	
2323	0	31976	36404	30793	
2324	0	32550	32628	30792	
2325	0	33504	31664	30808	
2326	0	34024	36048	30800	
2327	0	34396	33532	30776	
2328	0	34464	31152	30768	
2329	0	33802	33772	30772	
2330	0	32240	33045	30781	
2331	0	32002	33512	30769	
2332	0	32092	31825	30776	
2333	0	32180	28908	30784	
2334	0	32380	32784	30804	
2335	0	32388	35004	30824	
2336	0	32328	33164	30828	
2337	0	32372	31064	30856	
2338	0	32428	31738	30869	
2339	0	32848	34860	30884	
2340	0	32812	34620	30882	
2341	0	32584	31185	30888	
2342	0	32664	32112	30868	
2343	0	32976	33520	30872	
2344	0	32928	33092	30876	
2345	0	33500	32016	30857	
2346	0	33893	33688	30833	
2347	0	33104	30674	30840	
2348	0	32716	32708	30854	
2349	0	32764	34160	30838	
2350	0	32542	33700	30830	
2351	0	32416	32696	30834	
2352	0	32614	32420	30836	
2353	0	32445	31514	30828	
2354	0	32456	32912	30820	
2355	0	32456	33789	30815	
2356	0	32492	30372	30797	
2357	0	32584	27560	30820	
2358	0	32553	32868	30820	
2359	0	32696	34287	30817	
2360	0	32780	35952	30836	
2361	0	32744	36053	30828	
2362	0	32828	36068	30812	
2363	0	32816	33824	30797	
2364	0	33136	32360	30784	
2365	0	33053	31164	30793	
2366	0	33016	31090	30780	
2367	0	34080	31726	30724	
2368	0	33112	32956	30732	
2369	0	33100	29952	30732	
2370	0	33164	34816	30733	
2371	0	32656	31972	30719	
2372	0	32360	33068	30724	
2373	0	32574	34484	30718	
2374	0	32246	33216	30692	
2375	0	32094	34344	30676	
2376	0	32910	33080	30692	
2377	0	32540	32049	30698	
2378	0	32276	30822	30710	
2379	0	32380	30446	30692	
2380	0	32468	36892	30672	
2381	0	33124	34985	30660	
2382	0	33636	32676	30657	
2383	0	32932	31978	30655	
2384	0	33000	32554	30644	
2385	0	33124	33836	30650	
2386	0	33292	32505	30661	
2387	0	33165	31345	30648	
2388	0	32744	31156	30652	
2389	0	32348	29864	30648	
2390	0	31828	35340	30660	
2391	0	31640	32496	30664	
2392	0	31812	33712	30661	
2393	0	32736	33224	30668	
2394	0	33441	33588	30675	
2395	0	33764	32532	30664	
2396	0	34032	31276	30696	
2397	0	34192	33042	30696	
2398	0	32713	34309	30712	
2399	0	32296	30988	30709	
2400	0	32424	31368	30692	
2401	0	32456	36563	30676	
2402	0	32620	33916	30673	
2403	0	32632	32596	30697	
2404	0	32728	32649	30712	
2405	0	33048	33356	30709	
2406	0	32816	33148	30727	
2407	0	32580	32756	30756	
2408	0	32868	32920	30753	
2409	0	33308	32769	30748	
2410	0	32732	33372	30740	
2411	0	32628	32116	30735	
2412	0	32564	32246	30773	
2413	0	32449	30607	30800	
2414	0	32610	31040	30825	
2415	0	32577	32759	30829	
2416	0	32624	33989	30839	
2417	0	32384	35705	30848	
2418	0	32468	34801	30840	
2419	0	32832	33556	30854	
2420	0	32992	33024	30850	
2421	0	33013	31252	30839	
2422	0	33052	31004	30844	
2423	0	32952	30478	30842	
2424	0	32924	32154	30833	
2425	0	32788	32667	30842	
2426	0	32764	33894	30829	
2427	0	32808	33518	30829	
2428	0	32732	33245	30814	
2429	0	33472	33716	30804	
2430	0	33404	33629	30804	
2431	0	32684	33152	30810	
2432	0	32392	32976	30824	
2433	0	32332	31808	30821	
2434	0	31912	31348	30818	
2435	0	31752	31868	30820	
2436	0	32544	30977	30828	
2437	0	32792	32028	30831	
2438	0	32720	33120	30824	
2439	0	33750	34182	30820	
2440	0	33876	36950	30825	
2441	0	33390	35497	30864	
2442	0	33069	33629	30856	
2443	0	33912	32076	30844	
2444	0	33146	31540	30831	
2445	0	32556	32232	30846	
2446	0	32538	31904	30837	
2447	0	32496	31822	30828	
2448	0	32628	32586	30811	
2449	0	32652	29346	30796	
2450	0	32621	29008	30776	
2451	0	32445	35262	30777	
2452	0	32390	35101	30810	
2453	0	32292	34850	30808	
2454	0	32260	34244	30829	
2455	0	32400	34024	30830	
2456	0	32552	33156	30832	
2457	0	32656	32004	30841	
2458	0	32849	32312	30860	
2459	0	33084	28961	30848	
2460	0	33256	28704	30831	
2461	0	33300	31828	30820	
2462	0	33140	35936	30818	
2463	0	32932	34989	30807	
2464	0	32748	33317	30808	
2465	0	32832	34164	30800	
2466	0	32824	34925	30790	
2467	0	32894	33799	30786	
2468	0	32816	33054	30788	
2469	0	32764	31372	30776	
2470	0	32724	32216	30764	
2471	0	32592	32548	30761	
2472	0	32660	31876	30768	
2473	0	32688	31914	30768	
2474	0	32632	33389	30806	
2475	0	32285	31900	30808	
2476	0	32244	33756	30816	
2477	0	32472	35740	30828	
2478	0	32470	33104	30852	
2479	0	32940	32688	30860	
2480	0	32722	30488	30850	
2481	0	32845	31710	30844	
2482	0	34036	32004	30846	
2483	0	33844	32736	30848	
2484	0	33148	33316	30846	
2485	0	32944	33712	30868	
2486	0	33068	33809	30862	
2487	0	32428	30988	30876	
2488	0	32552	30184	30884	
2489	0	32629	34292	30848	
2490	0	32192	34816	30834	
2491	0	32557	35773	30820	
2492	0	32308	33201	30816	
2493	0	31432	32404	30834	
2494	0	31556	31946	30825	
2495	0	32612	31838	30796	
2496	0	33148	31179	30796	
2497	0	33722	32564	30796	
2498	0	34396	34467	30800	
2499	0	34405	34492	30813	
2500	0	33204	32772	30820	
2501	0	32964	29486	30796	
2502	0	32752	31468	30800	
2503	0	32776	32604	30800	
2504	0	32616	33828	30773	
2505	0	32236	35289	30786	
2506	0	32212	32644	30757	
2507	0	32322	33692	30753	
2508	0	32576	34636	30768	
2509	0	33272	34732	30762	
2510	0	33512	33536	30769	
2511	0	33124	31828	30761	
2512	0	32932	32273	30778	
2513	0	32282	29968	30777	
2514	0	32160	29232	30796	
2515	0	32188	35252	30799	
2516	0	32320	33812	30793	
2517	0	32480	33783	30788	
2518	0	32616	31420	30784	
2519	0	32844	31440	30816	
2520	0	33000	34908	30788	
2521	0	33004	34215	30780	
2522	0	33046	32764	30762	
2523	0	33014	33092	30786	
2524	0	32936	32824	30788	
2525	0	32916	32764	30784	
2526	0	32889	34773	30783	
2527	0	32800	32168	30792	
2528	0	32804	28412	30820	
2529	0	32760	33073	30836	
2530	0	32588	32095	30845	
2531	0	32584	33204	30840	
2532	0	32646	35992	30846	
2533	0	32580	33394	30841	
2534	0	32688	31916	30844	
2535	0	32912	32901	30836	
2536	0	32905	32170	30828	
2537	0	32746	31556	30828	
2538	0	32698	31690	30798	
2539	0	32724	32220	30812	
2540	0	32810	34325	30810	
2541	0	32773	31805	30804	
2542	0	32668	33493	30796	
2543	0	32640	34960	30798	
2544	0	32681	34562	30772	
2545	0	32912	33956	30788	
2546	0	33160	33983	30767	
2547	0	33816	33860	30780	
2548	0	33452	31708	30776	
2549	0	33208	32020	30769	
2550	0	32828	32064	30757	
2551	0	32640	32420	30765	
2552	0	32680	33320	30769	
2553	0	32396	31416	30772	
2554	0	32224	32381	30756	
2555	0	32188	31169	30774	
2556	0	32390	31040	30772	
2557	0	32502	30585	30761	
2558	0	32616	31646	30760	
2559	0	32832	34940	30756	
2560	0	33040	35506	30758	
2561	0	32848	31740	30740	
2562	0	33004	34456	30694	
2563	0	33188	31373	30696	
2564	0	33012	35328	30696	
2565	0	33096	34466	30688	
2566	0	32908	33020	30692	
2567	0	32858	32572	30666	
2568	0	32904	33012	30680	
2569	0	32700	33537	30696	
2570	0	32520	32556	30712	
2571	0	32500	31428	30740	
2572	0	32604	29364	30744	
2573	0	32677	29803	30744	
2574	0	32684	35548	30750	
2575	0	32606	35982	30754	
2576	0	32656	34092	30760	
2577	0	32652	31416	30778	
2578	0	32624	33660	30792	
2579	0	32676	32360	30812	
2580	0	32952	30988	30796	
2581	0	32905	33561	30788	
2582	0	32924	32513	30789	
2583	0	32936	37020	30778	
2584	0	32816	30312	30769	
2585	0	32714	28420	30752	
2586	0	32448	33700	30748	
2587	0	32528	35108	30724	
2588	0	33652	33380	30708	
2589	0	33152	33244	30688	
2590	0	32836	32648	30693	
2591	0	32592	32688	30685	
2592	0	31202	32480	30677	
2593	0	31076	35100	30650	
2594	0	31984	30632	30642	
2595	0	33352	31768	30632	
2596	0	34313	33388	30645	
2597	0	35052	34708	30684	
2598	0	34764	32284	30705	
2599	0	33324	30213	30700	
2600	0	31954	31834	30720	
2601	0	31960	34920	30712	
2602	0	32720	35215	30701	
2603	0	32880	32604	30737	
2604	0	32740	34370	30741	
2605	0	32800	33100	30740	
2606	0	32568	31590	30732	
2607	0	32392	32108	30736	
2608	0	32712	32133	30721	
2609	0	32920	32602	30708	
2610	0	32928	32007	30696	
2611	0	32949	32669	30706	
2612	0	32444	33873	30712	
2613	0	32300	33918	30724	
2614	0	32632	32280	30712	
2615	0	31922	30104	30717	
2616	0	32128	33072	30720	
2617	0	32261	31448	30724	
2618	0	32924	29893	30716	
2619	0	33304	34244	30732	
2620	0	33332	33172	30745	
2621	0	33306	32381	30752	
2622	0	33216	37112	30760	
2623	0	33068	35744	30777	
2624	0	32864	36156	30770	
2625	0	32758	31496	30772	
2626	0	32929	33116	30802	
2627	0	32848	31608	30812	
2628	0	32700	31916	30830	
2629	0	32684	32004	30824	
2630	0	32701	31332	30812	
2631	0	32597	32529	30782	
2632	0	32632	33559	30783	
2633	0	32448	31244	30794	
2634	0	32428	30644	30784	
2635	0	32446	30464	30770	
2636	0	32511	32956	30810	
2637	0	32716	34748	30837	
2638	0	32824	34397	30848	
2639	0	32940	34916	30859	
2640	0	32964	33317	30848	
2641	0	32993	31668	30824	
2642	0	32981	30780	30836	
2643	0	32780	33401	30828	
2644	0	32780	34721	30838	
2645	0	32872	32109	30833	
2646	0	32873	31796	30832	
2647	0	33480	31604	30840	
2648	0	33728	31908	30830	
2649	0	32668	33572	30836	
2650	0	32316	36833	30838	
2651	0	32280	32244	30824	
2652	0	32364	32613	30826	
2653	0	32828	32837	30812	
2654	0	33072	33612	30822	
2655	0	32396	29268	30816	
2656	0	32324	34090	30820	
2657	0	32348	34897	30806	
2658	0	32326	32764	30814	
2659	0	32588	34116	30821	
2660	0	32788	33118	30825	
2661	0	32792	31449	30833	
2662	0	32076	32424	30828	
2663	0	32093	32669	30816	
2664	0	32556	32549	30785	
2665	0	33812	30888	30768	
2666	0	33816	29882	30716	
2667	0	34068	33596	30711	
2668	0	34288	34621	30692	
2669	0	34276	36190	30677	
2670	0	33672	33404	30668	
2671	0	32168	30941	30632	
2672	0	32092	33159	30633	
2673	0	32372	35469	30621	
2674	0	32436	29986	30612	
2675	0	32460	30396	30620	
2676	0	32504	31092	30644	
2677	0	32446	32324	30650	
2678	0	32404	34457	30673	
2679	0	32460	31719	30700	
2680	0	33024	33934	30722	
2681	0	32724	33432	30748	
2682	0	32364	35732	30762	
2683	0	32616	34938	30800	
2684	0	32802	33343	30836	
2685	0	32888	32574	30839	
2686	0	33169	32016	30828	
2687	0	33232	31033	30814	
2688	0	32824	33073	30816	
2689	0	32696	31814	30802	
2690	0	32668	30577	30778	
2691	0	32612	33476	30784	
2692	0	32716	36053	30794	
2693	0	32660	34432	30813	
2694	0	32312	31766	30805	
2695	0	32247	31114	30804	
2696	0	32445	30510	30788	
2697	0	32352	33048	30772	
2698	0	32908	34320	30761	
2699	0	33192	31964	30769	
2700	0	33268	31516	30810	
2701	0	33132	32203	30800	
2702	0	32846	33000	30801	
2703	0	32700	35060	30804	
2704	0	32732	34606	30800	
2705	0	32776	32309	30801	
2706	0	32884	34032	30806	
2707	0	33106	31408	30792	
2708	0	33148	32400	30784	
2709	0	32384	33128	30757	
2710	0	32304	33600	30764	
2711	0	32240	33624	30752	
2712	0	33492	33032	30756	
2713	0	34164	33544	30755	
2714	0	32824	33348	30751	
2715	0	32176	31814	30766	
2716	0	32300	32005	30742	
2717	0	32640	32132	30752	
2718	0	32760	32644	30764	
2719	0	32688	33932	30765	
2720	0	32788	31252	30796	
2721	0	32884	32981	30798	
2722	0	32960	33340	30804	
2723	0	32900	34572	30777	
2724	0	32913	32520	30780	
2725	0	32952	30128	30766	
2726	0	32904	29542	30741	
2727	0	32808	34718	30740	
2728	0	32868	35496	30724	
2729	0	32912	32104	30737	
2730	0	32672	31756	30724	
2731	0	32428	34393	30712	
2732	0	32218	34864	30712	
2733	0	32100	28673	30720	
2734	0	32256	30941	30713	
2735	0	33040	38585	30713	
2736	0	33056	31840	30708	
2737	0	33128	30850	30696	
2738	0	32980	34261	30721	
2739	0	33041	37350	30754	
2740	0	32868	33764	30772	
2741	0	32802	31012	30780	
2742	0	32780	30174	30760	
2743	0	32773	29512	30756	
2744	0	32948	32484	30768	
2745	0	33032	31902	30775	
2746	0	33144	34356	30765	
2747	0	33184	35624	30753	
2748	0	33004	33260	30765	
2749	0	32553	32788	30789	
2750	0	32528	30741	30796	
2751	0	32516	28209	30772	
2752	0	32416	33660	30757	
2753	0	32408	37153	30764	
2754	0	32488	36440	30751	
2755	0	32417	34776	30737	
2756	0	32274	33537	30756	
2757	0	32216	34524	30769	
2758	0	31946	30390	30765	
2759	0	32352	30817	30788	
2760	0	32838	32687	30766	
2761	0	33152	32533	30778	
2762	0	33588	30549	30792	
2763	0	33830	31805	30782	
2764	0	34272	31197	30792	
2765	0	34664	31732	30799	
2766	0	34556	33294	30818	
2767	0	32680	31309	30804	
2768	0	31988	27908	30804	
2769	0	32144	29668	30800	
2770	0	32196	38261	30820	
2771	0	32296	37648	30833	
2772	0	32764	34172	30840	
2773	0	32336	32092	30842	
2774	0	31856	32365	30852	
2775	0	31784	34314	30852	
2776	0	32002	35007	30846	
2777	0	32254	34660	30849	
2778	0	32828	33624	30852	
2779	0	33736	31896	30873	
2780	0	33684	31508	30901	
2781	0	33204	31352	30904	
2782	0	32650	32260	30900	
2783	0	32724	33368	30884	
2784	0	33004	33998	30901	
2785	0	32956	32680	30908	
2786	0	32943	32492	30895	
2787	0	32756	32520	30906	
2788	0	33724	31994	30900	
2789	0	33034	32632	30911	
2790	0	32252	31288	30908	
2791	0	31968	31532	30908	
2792	0	32320	32210	30909	
2793	0	32992	36663	30890	
2794	0	32424	33420	30890	
2795	0	32448	32444	30856	
2796	0	32656	30983	30856	
2797	0	32786	31746	30868	
2798	0	32896	32504	30872	
2799	0	32800	35816	30872	
2800	0	32868	32496	30869	
2801	0	32905	31682	30854	
2802	0	32969	32873	30856	
2803	0	32956	32726	30852	
2804	0	32929	33181	30849	
2805	0	33029	34316	30831	
2806	0	32992	32817	30820	
2807	0	32836	32548	30820	
2808	0	32756	32637	30800	
2809	0	32860	33908	30801	
2810	0	32776	32312	30812	
2811	0	32620	30086	30824	
2812	0	32664	35188	30816	
2813	0	32512	33348	30832	
2814	0	32388	34285	30831	
2815	0	32529	32208	30816	
2816	0	32522	31758	30822	
2817	0	32672	32399	30805	
2818	0	32732	32549	30796	
2819	0	32784	32662	30832	
2820	0	32544	33336	30820	
2821	0	32600	33572	30800	
2822	0	32792	33560	30805	
2823	0	32912	33132	30789	
2824	0	33164	31033	30772	
2825	0	33536	32380	30764	
2826	0	33612	32220	30768	
2827	0	33300	30308	30766	
2828	0	32688	32272	30756	
2829	0	32524	35645	30749	
2830	0	33004	33704	30744	
2831	0	32712	31988	30742	
2832	0	32384	31800	30764	
2833	0	32676	32082	30766	
2834	0	33044	32648	30776	
2835	0	32661	33488	30768	
2836	0	32140	35422	30748	
2837	0	31848	36440	30748	
2838	0	32140	31368	30758	
2839	0	32548	30952	30780	
2840	0	32714	33180	30788	
2841	0	33328	30961	30778	
2842	0	32472	33104	30775	
2843	0	31914	31872	30782	
2844	0	31741	31172	30768	
2845	0	32748	34020	30748	
2846	0	34284	33847	30725	
2847	0	35104	34605	30732	
2848	0	35184	32884	30724	
2849	0	34568	30965	30700	
2850	0	32732	31388	30700	
2851	0	32080	32981	30704	
2852	0	32100	30630	30704	
2853	0	32132	33094	30718	
2854	0	32232	35713	30727	
2855	0	32161	34804	30749	
2856	0	32320	29586	30754	
2857	0	32229	34280	30756	
2858	0	32202	32244	30750	
2859	0	32260	32916	30780	
2860	0	32396	34176	30788	
2861	0	33492	33556	30778	
2862	0	33100	32484	30772	
2863	0	32720	32044	30788	
2864	0	32912	33596	30749	
2865	0	33132	32320	30756	
2866	0	33081	34492	30777	
2867	0	32936	32796	30776	
2868	0	32924	32332	30768	
2869	0	32789	32340	30776	
2870	0	32684	32056	30782	
2871	0	32636	31678	30796	
2872	0	32545	31408	30800	
2873	0	32472	31388	30808	
2874	0	32372	34800	30817	
2875	0	32432	32556	30824	
2876	0	32496	33049	30854	
2877	0	32692	32284	30856	
2878	0	32760	33332	30869	
2879	0	32876	34452	30889	
2880	0	33044	34901	30896	
2881	0	32952	35801	30902	
2882	0	32916	32912	30900	
2883	0	33128	30736	30906	
2884	0	33064	31022	30884	
2885	0	33021	31604	30884	
2886	0	33024	32502	30849	
2887	0	32898	33461	30829	
2888	0	32812	33284	30800	
2889	0	33164	31692	30784	
2890	0	32721	32152	30771	
2891	0	32392	32476	30770	
2892	0	32520	32574	30760	
2893	0	32844	30692	30780	
2894	0	32765	32712	30812	
2895	0	32600	35948	30816	
2896	0	32376	35728	30852	
2897	0	32378	32128	30836	
2898	0	32536	29409	30841	
2899	0	32924	32920	30840	
2900	0	33196	31020	30828	
2901	0	33044	33220	30804	
2902	0	32904	33804	30789	
2903	0	32920	34529	30788	
2904	0	32824	33573	30788	
2905	0	32938	31481	30784	
2906	0	32908	33112	30780	
2907	0	32776	35356	30780	
2908	0	32852	33020	30767	
2909	0	32846	32389	30774	
2910	0	32556	32568	30764	
2911	0	32558	33009	30761	
2912	0	32584	32048	30744	
2913	0	33284	28948	30748	
2914	0	32738	32782	30749	
2915	0	32388	32704	30748	
2916	0	31980	30868	30744	
2917	0	31972	34392	30748	
2918	0	31980	35016	30740	
2919	0	32677	33762	30721	
2920	0	33468	35488	30708	
2921	0	33518	33748	30700	
2922	0	34072	31192	30728	
2923	0	34305	32368	30726	
2924	0	33328	33416	30737	
2925	0	33108	32998	30759	
2926	0	32579	32492	30732	
2927	0	32300	32024	30724	
2928	0	32402	32237	30696	
2929	0	32404	32116	30680	
2930	0	32461	31032	30676	
2931	0	33604	35396	30688	
2932	0	32952	36196	30680	
2933	0	32014	32810	30693	
2934	0	31932	31800	30720	
2935	0	32156	32380	30716	
2936	0	32152	32161	30722	
2937	0	32706	30567	30732	
2938	0	33145	30261	30744	
2939	0	33012	32607	30744	
2940	0	33125	33501	30721	
2941	0	33313	31092	30720	
2942	0	33056	33268	30717	
2943	0	32680	33481	30701	
2944	0	31948	35748	30700	
2945	0	31817	36516	30701	
2946	0	32052	33488	30710	
2947	0	32448	32736	30716	
2948	0	33336	31844	30712	
2949	0	34332	32196	30709	
2950	0	34488	31304	30716	
2951	0	34112	31564	30696	
2952	0	33872	33460	30701	
2953	0	32394	31857	30692	
2954	0	31904	36524	30716	
2955	0	32045	35364	30706	
2956	0	32128	32132	30704	
2957	0	32264	30816	30724	
2958	0	32284	31852	30737	
2959	0	32320	30092	30748	
2960	0	32488	30460	30748	
2961	0	32708	36024	30772	
2962	0	32868	33576	30796	
2963	0	33036	33361	30804	
2964	0	33076	32846	30800	
2965	0	33224	32733	30792	
2966	0	33036	31976	30780	
2967	0	32928	34460	30784	
2968	0	32924	31916	30781	
2969	0	32958	32360	30786	
2970	0	32924	32132	30782	
2971	0	32712	29606	30772	
2972	0	31996	30156	30764	
2973	0	31646	34600	30752	
2974	0	31658	36614	30756	
2975	0	31832	36772	30782	
2976	0	32932	34318	30784	
2977	0	34052	33266	30783	
2978	0	33076	30453	30796	
2979	0	32932	28040	30787	
2980	0	33528	33080	30776	
2981	0	33628	35776	30782	
2982	0	33596	35156	30772	
2983	0	33388	32852	30752	
2984	0	33036	31176	30736	
2985	0	32526	31276	30709	
2986	0	32408	32184	30668	
2987	0	32648	31976	30668	
2988	0	32612	31789	30668	
2989	0	32652	33862	30660	
2990	0	32670	35537	30673	
2991	0	32712	34564	30688	
2992	0	32592	34300	30690	
2993	0	32360	33031	30684	
2994	0	32297	32094	30688	
2995	0	32456	32440	30725	
2996	0	32552	32868	30743	
2997	0	32592	31952	30754	
2998	0	32668	32100	30758	
2999	0	32864	33896	30769	
3000	0	32952	29278	30768	
3001	0	32988	29424	30772	
3002	0	32988	28994	30776	
3003	0	33116	33400	30764	
3004	0	32976	37212	30768	
3005	0	32788	35420	30768	
3006	0	32844	32048	30753	
3007	0	32996	31885	30740	
3008	0	33014	33133	30744	
3009	0	32900	35757	30737	
3010	0	32844	34244	30742	
3011	0	32708	32206	30732	
3012	0	32484	32136	30732	
3013	0	32308	33272	30750	
3014	0	32188	32868	30746	
3015	0	32200	31865	30748	
3016	0	33576	32332	30773	
3017	0	33188	32629	30770	
3018	0	32728	32868	30799	
3019	0	32664	32532	30764	
3020	0	32848	32516	30776	
3021	0	33048	33125	30776	
3022	0	32729	33148	30760	
3023	0	32452	33572	30769	
3024	0	32676	33562	30773	
3025	0	33009	31392	30764	
3026	0	32960	33260	30742	
3027	0	33252	29520	30726	
3028	0	33441	31400	30720	
3029	0	32876	32846	30757	
3030	0	32572	34020	30732	
3031	0	32494	32519	30708	
3032	0	32572	29614	30700	
3033	0	32584	37308	30724	
3034	0	32646	36332	30752	
3035	0	32492	35708	30764	
3036	0	32428	33406	30774	
3037	0	32421	31788	30781	
3038	0	32164	31780	30788	
3039	0	32284	31317	30784	
3040	0	32308	30392	30780	
3041	0	32489	31463	30756	
3042	0	33564	33384	30748	
3043	0	34098	34344	30718	
3044	0	33477	34296	30716	
3045	0	33712	33556	30705	
3046	0	33177	33118	30708	
3047	0	32056	31788	30708	
3048	0	31892	30580	30680	
3049	0	32000	31845	30672	
3050	0	32700	36036	30666	
3051	0	33328	34224	30668	
3052	0	33968	33864	30664	
3053	0	34456	33429	30682	
3054	0	33648	31620	30660	
3055	0	32096	32077	30664	
3056	0	32158	31751	30662	
3057	0	32140	28068	30650	
3058	0	32112	29450	30664	
3059	0	32420	34488	30684	
3060	0	32792	37648	30712	
3061	0	33074	36580	30732	
3062	0	32892	32872	30730	
3063	0	32773	29580	30712	
3064	0	32789	30900	30749	
3065	0	32833	35180	30761	
3066	0	32748	34381	30756	
3067	0	32748	32358	30764	
3068	0	32772	33032	30752	
3069	0	32860	33918	30757	
3070	0	32803	30820	30764	
3071	0	32732	31176	30758	
3072	0	32624	33148	30752	
3073	0	32416	32464	30725	
3074	0	32216	31245	30741	
3075	0	32248	32782	30729	
3076	0	32276	34988	30725	
3077	0	33052	35522	30752	
3078	0	33220	33152	30748	
3079	0	32964	32063	30737	
3080	0	33162	31724	30720	
3081	0	33048	32980	30744	
3082	0	32876	32893	30737	
3083	0	32796	30916	30728	
3084	0	32890	31910	30728	
3085	0	32828	31132	30733	
3086	0	32924	31476	30737	
3087	0	32848	32166	30757	
3088	0	33012	32970	30773	
3089	0	33092	36177	30780	
3090	0	33056	34452	30780	
3091	0	32800	32196	30774	
3092	0	32412	33764	30760	
3093	0	32440	34232	30752	
3094	0	32388	31940	30750	
3095	0	32420	31335	30764	
3096	0	32452	33608	30776	
3097	0	32452	32394	30768	
3098	0	32452	35014	30768	
3099	0	32696	34604	30780	
3100	0	32944	30576	30788	
3101	0	33048	31210	30772	
3102	0	33160	30425	30748	
3103	0	33210	29890	30756	
3104	0	33296	33412	30760	
3105	0	33300	34597	30740	
3106	0	33016	32553	30728	
3107	0	32724	33244	30726	
3108	0	32508	33758	30708	
3109	0	32536	34452	30696	
3110	0	32392	33584	30703	
3111	0	32189	33616	30708	
3112	0	33225	33664	30702	
3113	0	32748	32996	30700	
3114	0	32276	31924	30700	
3115	0	33404	32420	30708	
3116	0	32876	33630	30717	
3117	0	32208	33028	30724	
3118	0	32180	31028	30724	
3119	0	32600	31684	30737	
3120	0	33332	33284	30728	
3121	0	33260	32478	30733	
3122	0	32972	32429	30712	
3123	0	33120	33359	30736	
3124	0	33156	33316	30728	
3125	0	32908	33870	30721	
3126	0	33020	32442	30713	
3127	0	32849	32604	30716	
3128	0	33057	32096	30705	
3129	0	33096	32445	30696	
3130	0	32936	33387	30692	
3131	0	32532	33232	30664	
3132	0	32353	33504	30684	
3133	0	32288	30784	30689	
3134	0	32400	28215	30706	
3135	0	32484	31132	30736	
3136	0	32320	36272	30732	
3137	0	32196	37592	30768	
3138	0	32412	35612	30772	
3139	0	32633	33468	30776	
3140	0	32900	33178	30781	
3141	0	33124	32276	30799	
3142	0	33108	30420	30797	
3143	0	32748	32628	30804	
3144	0	31508	31246	30796	
3145	0	31660	30522	30786	
3146	0	32416	32908	30764	
3147	0	33511	34972	30741	
3148	0	34704	35162	30724	
3149	0	34928	31473	30708	
3150	0	34941	30552	30690	
3151	0	34804	31408	30696	
3152	0	32812	33368	30710	
3153	0	31648	33864	30708	
3154	0	31608	34311	30696	
3155	0	31780	35629	30701	
3156	0	31944	34137	30705	
3157	0	32040	32436	30724	
3158	0	32084	31632	30720	
3159	0	32384	32176	30764	
3160	0	32836	31920	30804	
3161	0	32897	28840	30826	
3162	0	33148	32166	30849	
3163	0	33150	34788	30864	
3164	0	32920	35206	30866	
3165	0	32788	33252	30876	
3166	0	32820	32458	30850	
3167	0	32888	32965	30854	
3168	0	32869	33517	30838	
3169	0	32800	32687	30820	
3170	0	32776	34076	30810	
3171	0	32632	32532	30808	
3172	0	32496	32196	30832	
3173	0	32496	32316	30828	
3174	0	32400	31344	30837	
3175	0	32472	32820	30837	
3176	0	32556	33204	30828	
3177	0	32565	32796	30840	
3178	0	32764	32380	30855	
3179	0	32836	32608	30842	
3180	0	32857	31624	30840	
3181	0	32876	33107	30850	
3182	0	32976	33096	30852	
3183	0	32944	33508	30832	
3184	0	32936	32775	30832	
3185	0	33008	32865	30831	
3186	0	33216	33201	30839	
3187	0	33368	31804	30847	
3188	0	32995	31424	30832	
3189	0	32810	34392	30830	
3190	0	32740	33812	30824	
3191	0	32384	33908	30832	
3192	0	32524	34856	30828	
3193	0	33192	33192	30820	
3194	0	32481	31984	30817	
3195	0	32228	32584	30807	
3196	0	33068	31170	30788	
3197	0	32844	29956	30798	
3198	0	32516	32316	30828	
3199	0	32544	35900	30826	
3200	0	32720	34220	30812	
3201	0	32728	33146	30816	
3202	0	32808	28692	30812	
3203	0	33156	31682	30809	
3204	0	33048	34244	30804	
3205	0	32909	34748	30789	
3206	0	33117	32910	30784	
3207	0	32768	32651	30780	
3208	0	32398	34958	30761	
3209	0	32448	32209	30753	
3210	0	32593	32229	30753	
3211	0	32740	32870	30777	
3212	0	33490	33496	30761	
3213	0	33518	33476	30760	
3214	0	32692	33376	30764	
3215	0	32382	31916	30752	
3216	0	32584	31046	30740	
3217	0	32568	34792	30750	
3218	0	32564	31506	30730	
3219	0	32512	31910	30756	
3220	0	32784	32289	30768	
3221	0	32829	33444	30756	
3222	0	32812	34064	30756	
3223	0	32932	33048	30768	
3224	0	33100	32420	30760	
3225	0	33093	30244	30780	
3226	0	33024	33068	30772	
3227	0	32916	34558	30764	
3228	0	32932	34769	30753	
3229	0	32932	32546	30732	
3230	0	32716	32932	30704	
3231	0	32500	33668	30732	
3232	0	32761	32636	30717	
3233	0	32577	33142	30725	
3234	0	32440	32668	30724	
3235	0	32484	31940	30728	
3236	0	32468	33742	30737	
3237	0	32505	33664	30756	
3238	0	32716	32854	30760	
3239	0	32753	31321	30756	
3240	0	32884	31391	30788	
3241	0	32876	30777	30798	
3242	0	32812	32104	30781	
3243	0	32824	32644	30760	
3244	0	32889	32956	30761	
3245	0	32836	33580	30756	
3246	0	33126	31828	30772	
3247	0	33484	34164	30770	
3248	0	33176	34492	30765	
3249	0	33277	32941	30740	
3250	0	32832	32888	30753	
3251	0	32088	32228	30737	
3252	0	31884	30984	30737	
3253	0	31408	32725	30724	
3254	0	31722	32553	30732	
3255	0	32668	33136	30716	
3256	0	32008	36960	30716	
3257	0	32678	35056	30724	
3258	0	33456	31612	30726	
3259	0	34252	26916	30740	
3260	0	35061	31256	30752	
3261	0	34913	36606	30732	
3262	0	33385	33928	30740	
3263	0	32840	33744	30758	
3264	0	32544	30096	30778	
3265	0	32396	31560	30786	
3266	0	32392	32632	30788	
3267	0	32460	31486	30788	
3268	0	32468	31872	30804	
3269	0	32280	34863	30797	
3270	0	32204	35288	30792	
3271	0	32156	32992	30792	
3272	0	32130	31182	30796	
3273	0	32428	32052	30816	
3274	0	33000	33108	30834	
3275	0	32736	35624	30856	
3276	0	32644	35378	30862	
3277	0	33116	31746	30844	
3278	0	33052	31597	30834	
3279	0	32736	31532	30852	
3280	0	32548	33012	30876	
3281	0	32740	33049	30868	
3282	0	33074	32534	30866	
3283	0	32968	31316	30872	
3284	0	32796	32322	30876	
3285	0	33869	33876	30870	
3286	0	32682	33789	30888	
3287	0	32380	28204	30852	
3288	0	32492	31840	30856	
3289	0	32832	37541	30854	
3290	0	32808	33764	30841	
3291	0	32904	34896	30824	
3292	0	32772	33752	30794	
3293	0	32852	32644	30785	
3294	0	32441	33068	30796	
3295	0	32360	32527	30797	
3296	0	32472	32201	30799	
3297	0	32528	32184	30812	
3298	0	32643	32492	30816	
3299	0	32832	32508	30824	
3300	0	32924	31914	30832	
3301	0	32804	32322	30852	
3302	0	32864	32525	30844	
3303	0	32952	32729	30860	
3304	0	33092	36088	30833	
3305	0	33108	32584	30840	
3306	0	33090	26706	30850	
3307	0	33128	28320	30826	
3308	0	32896	32113	30801	
3309	0	32832	38370	30792	
3310	0	32837	36514	30768	
3311	0	32636	33950	30772	
3312	0	32545	33604	30748	
3313	0	32548	33400	30733	
3314	0	32400	32224	30716	
3315	0	32253	33034	30693	
3316	0	32176	30886	30688	
3317	0	32196	31492	30703	
3318	0	32252	29001	30716	
3319	0	32992	29908	30727	
3320	0	34196	36764	30716	
3321	0	33632	36061	30719	
3322	0	32946	34164	30705	
3323	0	32680	33352	30719	
3324	0	32620	32320	30696	
3325	0	32800	32984	30716	
3326	0	32840	33292	30704	
3327	0	32988	33492	30692	
3328	0	33008	35200	30682	
3329	0	33070	32551	30672	
3330	0	32748	31768	30684	
3331	0	32257	31080	30684	
3332	0	32218	32820	30692	
3333	0	32412	33957	30693	
3334	0	33080	32580	30677	
3335	0	32845	31032	30666	
3336	0	32824	31897	30693	
3337	0	32653	32684	30737	
3338	0	32394	33869	30720	
3339	0	32336	33062	30724	
3340	0	32692	33068	30736	
3341	0	32516	33236	30728	
3342	0	32284	32244	30716	
3343	0	33041	33670	30724	
3344	0	33692	32000	30710	
3345	0	34379	32624	30727	
3346	0	34672	33088	30744	
3347	0	34176	32548	30753	
3348	0	32696	31820	30772	
3349	0	32440	34826	30754	
3350	0	32512	31632	30752	
3351	0	32316	28857	30756	
3352	0	32160	33276	30746	
3353	0	32208	37596	30760	
3354	0	32080	33736	30780	
3355	0	32190	32316	30785	
3356	0	32292	31525	30812	
3357	0	32404	32099	30837	
3358	0	32576	31118	30830	
3359	0	32729	33580	30841	
3360	0	32796	33092	30852	
3361	0	32924	32671	30828	
3362	0	32768	32436	30817	
3363	0	32738	31581	30793	
3364	0	32762	33209	30778	
3365	0	32778	33236	30770	
3366	0	33334	28124	30734	
3367	0	33716	33504	30738	
3368	0	32890	34505	30756	
3369	0	32928	35028	30749	
3370	0	32876	34122	30753	
3371	0	32700	34124	30757	
3372	0	32584	33064	30740	
3373	0	32484	33620	30748	
3374	0	32450	31260	30720	
3375	0	32492	28380	30708	
3376	0	32529	34052	30712	
3377	0	32637	35792	30711	
3378	0	32412	34156	30700	
3379	0	32464	32984	30701	
3380	0	32704	32797	30727	
3381	0	32998	33032	30727	
3382	0	33172	32606	30736	
3383	0	33264	32736	30764	
3384	0	33398	32293	30764	
3385	0	33466	32460	30752	
3386	0	33020	32444	30744	
3387	0	32752	32444	30756	
3388	0	32564	32497	30736	
3389	0	32292	32521	30732	
3390	0	32176	32169	30741	
3391	0	32665	31944	30746	
3392	0	33032	33124	30740	
3393	0	33680	33664	30762	
3394	0	33561	34024	30775	
3395	0	32544	32464	30774	
3396	0	32288	30604	30772	
3397	0	32297	29956	30798	
3398	0	32388	32792	30800	
3399	0	32488	34544	30825	
3400	0	32744	36073	30814	
3401	0	32762	34565	30806	
3402	0	32604	33310	30808	
3403	0	32815	32681	30792	
3404	0	32876	33616	30784	
3405	0	33024	33924	30796	
3406	0	33217	28416	30788	
3407	0	33116	31238	30757	
3408	0	33322	32804	30764	
3409	0	33390	36044	30758	
3410	0	32876	34560	30752	
3411	0	32536	31684	30750	
3412	0	32116	30396	30756	
3413	0	32112	29020	30756	
3414	0	32257	33540	30760	
3415	0	32420	37152	30776	
3416	0	32644	34764	30769	
3417	0	32856	32782	30772	
3418	0	32712	32544	30765	
3419	0	32852	31580	30796	
3420	0	33084	32949	30792	
3421	0	33226	31312	30780	
3422	0	33175	31207	30769	
3423	0	32988	32228	30769	
3424	0	32884	32300	30799	
3425	0	32832	33752	30810	
3426	0	32784	33782	30804	
3427	0	32722	33285	30780	
3428	0	32860	34084	30780	
3429	0	33076	33156	30764	
3430	0	32896	32300	30758	
3431	0	32922	33280	30752	
3432	0	32874	32912	30743	
3433	0	32700	32679	30748	
3434	0	32564	32534	30724	
3435	0	32367	32748	30720	
3436	0	32257	30800	30688	
3437	0	32161	26213	30668	
3438	0	32424	33446	30657	
3439	0	32688	39364	30676	
3440	0	32740	37140	30696	
3441	0	32984	33841	30720	
3442	0	33232	31225	30712	
3443	0	33068	30440	30716	
3444	0	33148	31189	30713	
3445	0	33388	32364	30720	
3446	0	32808	32704	30765	
3447	0	33032	34549	30768	
3448	0	33176	32957	30752	
3449	0	33004	36082	30741	
3450	0	32732	33188	30736	
3451	0	32244	32688	30741	
3452	0	32032	32316	30732	
3453	0	32108	33346	30704	
3454	0	32340	33622	30684	
3455	0	32392	32136	30673	
3456	0	32672	31528	30661	
3457	0	33808	28801	30656	
3458	0	33708	29584	30660	
3459	0	32754	32784	30684	
3460	0	32486	33665	30692	
3461	0	32616	32872	30684	
3462	0	32730	36576	30681	
3463	0	32604	33452	30708	
3464	0	32714	31572	30708	
3465	0	32804	34768	30725	
3466	0	32772	34492	30727	
3467	0	32776	32257	30719	
3468	0	34592	31041	30704	
3469	0	33096	32014	30727	
3470	0	32592	31352	30727	
3471	0	32572	34132	30720	
3472	0	32668	33377	30724	
3473	0	32576	33296	30724	
3474	0	32536	34820	30740	
3475	0	32484	31348	30753	
3476	0	32416	31762	30762	
3477	0	32320	30737	30756	
3478	0	32500	32640	30756	
3479	0	32996	32482	30764	
3480	0	32804	32604	30778	
3481	0	32741	34140	30772	
3482	0	33020	34181	30778	
3483	0	33307	32848	30777	
3484	0	33076	32456	30753	
3485	0	32980	32473	30772	
3486	0	32913	33278	30776	
3487	0	32838	32076	30768	
3488	0	32712	31433	30748	
3489	0	32580	33088	30744	
3490	0	32792	35420	30752	
3491	0	32681	34952	30766	
3492	0	32444	32584	30764	
3493	0	32364	32080	30764	
3494	0	32516	31384	30764	
3495	0	32770	32584	30760	
3496	0	32664	31965	30744	
3497	0	32780	33624	30764	
3498	0	33392	33436	30782	
3499	0	33106	32681	30804	
3500	0	32589	33988	30792	
3501	0	32572	32741	30792	
3502	0	32757	31170	30784	
3503	0	33040	32160	30777	
3504	0	32976	33956	30772	
3505	0	32928	31340	30788	
3506	0	33244	31670	30773	
3507	0	33157	31892	30772	
3508	0	32820	30972	30782	
3509	0	32741	33604	30772	
3510	0	32609	34054	30774	
3511	0	32420	32760	30772	
3512	0	32472	31080	30774	
3513	0	32500	34932	30786	
3514	0	32668	35056	30776	
3515	0	32816	35050	30804	
3516	0	32581	34256	30824	
3517	0	32360	31186	30840	
3518	0	32376	29260	30842	
3519	0	32516	33104	30860	
3520	0	33008	31960	30854	
3521	0	33541	34862	30854	
3522	0	32968	36664	30860	
3523	0	32764	34969	30844	
3524	0	32878	32868	30828	
3525	0	33056	31189	30820	
3526	0	32924	31292	30838	
3527	0	33012	31349	30828	
3528	0	33532	31708	30830	
3529	0	33240	31664	30824	
3530	0	32662	32404	30820	
3531	0	32120	32056	30804	
3532	0	32020	32349	30796	
3533	0	32048	35300	30800	
3534	0	32127	34896	30810	
3535	0	33780	33480	30816	
3536	0	32744	33474	30801	
3537	0	32252	32772	30816	
3538	0	32485	32093	30824	
3539	0	32812	33317	30816	
3540	0	32960	32200	30808	
3541	0	33284	31645	30805	
3542	0	33165	32935	30786	
3543	0	33176	33575	30782	
3544	0	33422	33036	30780	
3545	0	33246	30672	30776	
3546	0	32640	30628	30778	
3547	0	32640	33926	30752	
3548	0	32892	33744	30740	
3549	0	32848	33945	30740	
3550	0	33016	32889	30724	
3551	0	33014	32824	30720	
3552	0	32648	35312	30700	
3553	0	32389	33192	30680	
3554	0	32249	28744	30680	
3555	0	32256	32488	30682	
3556	0	32325	32796	30724	
3557	0	32436	35596	30724	
3558	0	32588	33583	30700	
3559	0	32668	33815	30716	
3560	0	32764	31350	30728	
3561	0	32764	31268	30727	
3562	0	32748	33276	30746	
3563	0	32896	34276	30744	
3564	0	33112	32093	30770	
3565	0	33288	33661	30780	
3566	0	33272	33264	30778	
3567	0	33120	32224	30764	
3568	0	33028	30444	30752	
3569	0	32968	29468	30721	
3570	0	33048	32845	30705	
3571	0	32864	32932	30712	
3572	0	32528	34288	30704	
3573	0	32356	36588	30712	
3574	0	32360	33628	30724	
3575	0	32320	32476	30736	
3576	0	32264	31257	30764	
3577	0	32192	29174	30788	
3578	0	32212	32544	30792	
3579	0	32072	33084	30796	
3580	0	31856	34468	30800	
3581	0	32596	35438	30786	
3582	0	33701	35152	30764	
3583	0	34020	33414	30762	
3584	0	34290	32318	30750	
3585	0	34380	32792	30732	
3586	0	34232	32968	30752	
3587	0	32900	31876	30781	
3588	0	32373	31399	30780	
3589	0	32378	32714	30760	
3590	0	32553	33056	30756	
3591	0	32565	31960	30756	
3592	0	32448	31144	30764	
3593	0	32740	32936	30756	
3594	0	32480	34640	30792	
3595	0	32132	34161	30801	
3596	0	32273	33940	30829	
3597	0	32420	32724	30848	
3598	0	32656	31068	30891	
3599	0	32738	33425	30880	
3600	0	32644	31780	30916	
3601	0	32464	29708	30924	
3602	0	32055	30506	30912	
3603	0	31612	35720	30884	
3604	0	31548	35840	30897	
3605	0	32192	34425	30878	
3606	0	33752	33028	30876	
3607	0	35092	31992	30865	
3608	0	34980	31936	30844	
3609	0	35236	32000	30838	
3610	0	34567	33388	30808	
3611	0	32512	32970	30776	
3612	0	31628	33108	30768	
3613	0	31760	31009	30780	
3614	0	32162	29766	30798	
3615	0	32104	33516	30800	
3616	0	32252	35648	30802	
3617	0	32256	34796	30840	
3618	0	32388	32940	30844	
3619	0	32544	32778	30852	
3620	0	32629	32477	30854	
3621	0	32494	32464	30868	
3622	0	32377	32576	30857	
3623	0	32673	32365	30854	
3624	0	32936	33008	30844	
3625	0	34096	33516	30844	
3626	0	33380	32608	30836	
3627	0	33208	29020	30816	
3628	0	33024	31937	30816	
3629	0	32728	35856	30808	
3630	0	32700	34944	30804	
3631	0	32500	28376	30782	
3632	0	32440	30048	30752	
3633	0	32433	32936	30740	
3634	0	32380	34968	30728	
3635	0	32228	37880	30728	
3636	0	32380	37412	30724	
3637	0	32500	33968	30716	
3638	0	32764	33188	30736	
3639	0	32928	31785	30744	
3640	0	33080	31596	30768	
3641	0	33368	31969	30772	
3642	0	33097	31408	30784	
3643	0	32748	32168	30763	
3644	0	32706	32456	30772	
3645	0	32988	31553	30776	
3646	0	34052	32880	30788	
3647	0	33736	33852	30776	
3648	0	32824	34266	30765	
3649	0	32708	32256	30756	
3650	0	32621	31573	30748	
3651	0	32504	31961	30712	
3652	0	32412	33645	30710	
3653	0	32364	31510	30716	
3654	0	32312	33244	30718	
3655	0	32168	31312	30732	
3656	0	32165	33245	30728	
3657	0	32380	33494	30736	
3658	0	32620	32506	30720	
3659	0	32788	31856	30749	
3660	0	33028	29668	30753	
3661	0	33124	34986	30736	
3662	0	32964	34620	30736	
3663	0	33060	33040	30756	
3664	0	33084	34600	30757	
3665	0	33416	33588	30767	
3666	0	33364	33301	30756	
3667	0	33104	32208	30772	
3668	0	32856	33732	30744	
3669	0	32856	32338	30718	
3670	0	32788	31732	30742	
3671	0	32472	32544	30772	
3672	0	32224	33878	30760	
3673	0	32148	33992	30757	
3674	0	32128	32244	30772	
3675	0	32324	31069	30764	
3676	0	33100	32282	30768	
3677	0	32636	34468	30776	
3678	0	32608	32004	30785	
3679	0	33032	31112	30799	
3680	0	33064	33089	30800	
3681	0	33245	34248	30785	
3682	0	33136	34374	30780	
3683	0	32972	33856	30793	
3684	0	32968	34064	30760	
3685	0	32912	32620	30741	
3686	0	32896	32332	30709	
3687	0	32908	33560	30718	
3688	0	32744	33320	30716	
3689	0	32792	30922	30697	
3690	0	32656	33022	30701	
3691	0	32712	29744	30710	
3692	0	32500	30388	30708	
3693	0	32400	35720	30740	
3694	0	32932	34980	30772	
3695	0	32980	32080	30768	
3696	0	32324	32263	30777	
3697	0	32272	33364	30810	
3698	0	32224	32970	30801	
3699	0	32664	32837	30796	
3700	0	33254	32513	30800	
3701	0	32944	32514	30816	
3702	0	32936	31864	30810	
3703	0	32840	32708	30785	
3704	0	32536	33764	30759	
3705	0	32816	32316	30765	
3706	0	33272	32057	30766	
3707	0	33230	32820	30776	
3708	0	33832	32844	30744	
3709	0	33748	32104	30738	
3710	0	33244	34176	30724	
3711	0	32820	33456	30713	
3712	0	32520	24828	30704	
3713	0	32160	34704	30710	
3714	0	32040	37870	30720	
3715	0	32101	34560	30756	
3716	0	32262	33216	30756	
3717	0	32348	31844	30776	
3718	0	32584	32061	30784	
3719	0	32769	33412	30780	
3720	0	32864	33156	30772	
3721	0	32660	33676	30780	
3722	0	32636	32731	30777	
3723	0	32852	32550	30791	
3724	0	33040	32677	30808	
3725	0	33220	32872	30788	
3726	0	33336	32782	30782	
3727	0	33464	32996	30776	
3728	0	33052	32980	30773	
3729	0	32742	32032	30805	
3730	0	32544	32428	30808	
3731	0	32506	33060	30796	
3732	0	32592	32784	30797	
3733	0	32672	33087	30776	
3734	0	32590	33513	30766	
3735	0	32748	34438	30764	
3736	0	32521	34559	30764	
3737	0	32290	30768	30792	
3738	0	32287	28232	30777	
3739	0	32570	30444	30784	
3740	0	32737	30761	30780	
3741	0	33080	29388	30769	
3742	0	33350	35604	30760	
3743	0	33092	37816	30788	
3744	0	33512	36948	30796	
3745	0	33460	34536	30804	
3746	0	32852	34624	30804	
3747	0	32772	32025	30800	
3748	0	32732	28723	30812	
3749	0	32836	33808	30796	
3750	0	32861	33005	30792	
3751	0	32784	32617	30760	
3752	0	32648	33088	30733	
3753	0	32584	34359	30748	
3754	0	32396	33072	30761	
3755	0	32344	32552	30756	
3756	0	32300	32212	30753	
3757	0	32252	31896	30744	
3758	0	32440	29377	30732	
3759	0	32596	32660	30736	
3760	0	32624	36160	30740	
3761	0	32788	28384	30742	
3762	0	32825	28808	30732	
3763	0	33132	37994	30740	
3764	0	33380	36430	30725	
3765	0	33788	34254	30718	
3766	0	33476	31668	30732	
3767	0	33332	29680	30724	
3768	0	32892	32542	30716	
3769	0	32542	34300	30724	
3770	0	32116	33861	30721	
3771	0	32044	33412	30740	
3772	0	32004	33351	30736	
3773	0	33064	33132	30737	
3774	0	33860	32484	30756	
3775	0	33276	32342	30748	
3776	0	32220	33825	30768	
3777	0	31696	33142	30780	
3778	0	31572	32708	30768	
3779	0	31928	29638	30772	
3780	0	32716	31181	30764	
3781	0	33432	33828	30758	
3782	0	33954	34112	30756	
3783	0	34312	33188	30766	
3784	0	34645	31672	30783	
3785	0	33741	33212	30816	
3786	0	32448	33920	30828	
3787	0	31980	33189	30821	
3788	0	31742	32885	30852	
3789	0	31536	33372	30848	
3790	0	31660	33624	30864	
3791	0	32436	33524	30849	
3792	0	33348	30553	30848	
3793	0	33700	27740	30849	
3794	0	33976	30878	30832	
3795	0	34037	33428	30852	
3796	0	32768	35364	30832	
3797	0	31512	37020	30836	
3798	0	31798	33716	30856	
3799	0	32140	30497	30844	
3800	0	32285	36572	30868	
3801	0	33392	34602	30878	
3802	0	33404	33889	30860	
3803	0	32885	30232	30857	
3804	0	32808	31980	30854	
3805	0	32660	31253	30868	
3806	0	32556	32828	30844	
3807	0	32536	34496	30816	
3808	0	32580	34881	30805	
3809	0	32944	32216	30808	
3810	0	33440	31176	30793	
3811	0	33264	32710	30788	
3812	0	32996	32246	30756	
3813	0	33004	34718	30753	
3814	0	32752	32228	30773	
3815	0	32420	31341	30777	
3816	0	32236	32796	30774	
3817	0	32157	32301	30782	
3818	0	32340	32485	30764	
3819	0	32577	30929	30746	
3820	0	32832	30420	30772	
3821	0	33068	32284	30750	
3822	0	32988	31179	30740	
3823	0	32964	34608	30724	
3824	0	33020	37389	30724	
3825	0	33030	35852	30743	
3826	0	32937	33808	30756	
3827	0	32980	33904	30760	
3828	0	33157	32668	30769	
3829	0	33088	32084	30773	
3830	0	32864	32176	30766	
3831	0	32668	30220	30770	
3832	0	32572	30334	30728	
3833	0	32536	32464	30720	
3834	0	32242	35041	30719	
3835	0	32164	35561	30704	
3836	0	32184	32961	30724	
3837	0	32348	32884	30727	
3838	0	32684	32600	30761	
3839	0	33065	33301	30750	
3840	0	33285	32052	30789	
3841	0	33242	33204	30784	
3842	0	33002	32118	30780	
3843	0	32776	31925	30777	
3844	0	32656	32448	30768	
3845	0	32752	32310	30778	
3846	0	33208	32916	30800	
3847	0	33680	33669	30796	
3848	0	33204	33538	30769	
3849	0	33064	34464	30757	
3850	0	32860	31616	30767	
3851	0	32516	31404	30764	
3852	0	32529	32316	30761	
3853	0	32208	34498	30732	
3854	0	32144	32872	30738	
3855	0	32060	31248	30748	
3856	0	33368	28024	30736	
3857	0	32592	33052	30748	
3858	0	32378	35032	30773	
3859	0	33010	31224	30788	
3860	0	32941	33436	30780	
3861	0	32816	38028	30788	
3862	0	32876	35613	30772	
3863	0	32796	33036	30761	
3864	0	32992	31966	30764	
3865	0	32992	31550	30728	
3866	0	32968	31781	30720	
3867	0	33148	32953	30721	
3868	0	33260	33088	30734	
3869	0	33200	32660	30725	
3870	0	33064	32605	30736	
3871	0	32680	32856	30749	
3872	0	32485	33902	30733	
3873	0	32432	31088	30744	
3874	0	32412	28137	30733	
3875	0	32356	31964	30724	
3876	0	32216	32260	30701	
3877	0	32164	36292	30716	
3878	0	32333	35569	30720	
3879	0	32488	32320	30724	
3880	0	32740	31518	30758	
3881	0	33676	34120	30733	
3882	0	33088	34616	30740	
3883	0	32844	33232	30740	
3884	0	33008	30960	30730	
3885	0	33188	33664	30719	
3886	0	33308	33532	30725	
3887	0	33284	32002	30727	
3888	0	33288	33113	30727	
3889	0	32972	35680	30741	
3890	0	32737	34401	30762	
3891	0	32500	30782	30750	
3892	0	32416	31053	30757	
3893	0	32644	31164	30769	
3894	0	32732	32772	30758	
3895	0	32592	32272	30769	
3896	0	32184	33154	30791	
3897	0	32084	31100	30822	
3898	0	32248	31372	30808	
3899	0	32434	32712	30824	
3900	0	32752	33474	30817	
3901	0	33164	37812	30817	
3902	0	33288	32296	30800	
3903	0	33360	31646	30791	
3904	0	33124	31525	30768	
3905	0	33002	31786	30748	
3906	0	33212	33344	30744	
3907	0	33197	31580	30756	
3908	0	32908	34048	30785	
3909	0	32764	35361	30777	
3910	0	32732	33222	30784	
3911	0	32690	33052	30788	
3912	0	32465	34160	30760	
3913	0	32516	32076	30760	
3914	0	32548	31968	30736	
3915	0	32464	31124	30748	
3916	0	32188	33624	30732	
3917	0	32176	34200	30768	
3918	0	32388	32748	30779	
3919	0	32480	31116	30776	
3920	0	33124	30232	30780	
3921	0	34392	32284	30792	
3922	0	33505	33632	30809	
3923	0	32933	34074	30801	
3924	0	32745	32030	30797	
3925	0	32716	31820	30804	
3926	0	32686	35520	30820	
3927	0	33144	32224	30812	
3928	0	33000	33698	30814	
3929	0	32846	34762	30840	
3930	0	32772	32076	30846	
3931	0	32672	33749	30838	
3932	0	32485	34303	30846	
3933	0	32408	33480	30836	
3934	0	32428	32354	30861	
3935	0	32468	32792	30832	
3936	0	32509	32676	30840	
3937	0	32462	31532	30860	
3938	0	32544	31329	30869	
3939	0	32668	32410	30880	
3940	0	32785	32617	30905	
3941	0	32908	35108	30866	
3942	0	33060	34912	30861	
3943	0	33088	33880	30884	
3944	0	32790	30208	30870	
3945	0	32734	31476	30852	
3946	0	32688	31674	30840	
3947	0	32756	32356	30817	
3948	0	33744	33128	30804	
3949	0	33768	32494	30810	
3950	0	32968	31802	30805	
3951	0	33012	32709	30804	
3952	0	32732	32897	30772	
3953	0	32633	32512	30732	
3954	0	32228	32903	30730	
3955	0	32109	33164	30730	
3956	0	32018	31852	30744	
3957	0	32120	32962	30746	
3958	0	32332	33425	30732	
3959	0	32536	33664	30748	
3960	0	32912	34341	30764	
3961	0	33992	31384	30764	
3962	0	33360	29814	30774	
3963	0	33353	33361	30766	
3964	0	33120	34048	30741	
3965	0	32896	35980	30736	
3966	0	32772	35909	30728	
3967	0	32840	32284	30717	
3968	0	32800	30893	30688	
3969	0	32834	32797	30685	
3970	0	32761	33020	30684	
3971	0	32636	32591	30685	
3972	0	32488	31932	30677	
3973	0	32424	31847	30684	
3974	0	32442	31232	30685	
3975	0	32508	33516	30720	
3976	0	32556	35290	30716	
3977	0	32628	32648	30710	
3978	0	32528	31604	30732	
3979	0	32602	28610	30756	
3980	0	32680	33265	30760	
3981	0	32812	35780	30756	
3982	0	33040	32720	30741	
3983	0	34016	32782	30768	
3984	0	33224	32504	30750	
3985	0	32900	32717	30764	
3986	0	32968	33756	30754	
3987	0	33090	34349	30756	
3988	0	32972	34064	30752	
3989	0	32784	32836	30716	
3990	0	32608	32844	30716	
3991	0	32592	32040	30708	
3992	0	32656	33732	30694	
3993	0	32744	32696	30696	
3994	0	32933	33652	30705	
3995	0	32652	32510	30692	
3996	0	32336	33404	30680	
3997	0	32135	31137	30680	
3998	0	32548	32637	30718	
3999	0	32660	30155	30712	
4000	0	32658	31729	30724	
4001	0	32828	32916	30702	
4002	0	32982	32041	30724	
4003	0	33121	33692	30740	
4004	0	33012	32778	30740	
4005	0	33032	33120	30754	
4006	0	32898	33504	30745	
4007	0	32956	33512	30734	
4008	0	32970	33356	30752	
4009	0	32964	33865	30742	
4010	0	33108	33862	30749	
4011	0	33124	32674	30733	
4012	0	32616	33668	30742	
4013	0	32096	31294	30752	
4014	0	31992	32781	30748	
4015	0	32144	33690	30732	
4016	0	32308	32469	30738	
4017	0	32900	33368	30756	
4018	0	33232	32244	30752	
4019	0	33520	31529	30749	
4020	0	32792	31864	30776	
4021	0	32674	33224	30804	
4022	0	32644	33685	30812	
4023	0	33148	33220	30821	
4024	0	33452	32465	30800	
4025	0	33017	31825	30812	
4026	0	32940	31716	30808	
4027	0	32886	33308	30817	
4028	0	32868	32458	30836	
4029	0	32648	34057	30846	
4030	0	32552	32454	30856	
4031	0	32380	31996	30842	
4032	0	32344	34348	30828	
4033	0	32180	33749	30841	
4034	0	32260	33206	30852	
4035	0	32732	32982	30877	
4036	0	32972	31364	30880	
4037	0	32864	34808	30900	
4038	0	33676	30173	30900	
4039	0	33176	32776	30881	
4040	0	32668	34468	30872	
4041	0	32685	36156	30872	
4042	0	32649	34009	30853	
4043	0	32676	33272	30869	
4044	0	32785	32982	30857	
4045	0	32860	30512	30876	
4046	0	32924	31288	30862	
4047	0	33272	31244	30860	
4048	0	33272	33952	30854	
4049	0	32968	32886	30861	
4050	0	32674	30948	30853	
4051	0	32514	32564	30860	
4052	0	32392	34716	30872	
4053	0	32485	33557	30860	
4054	0	32384	32646	30877	
4055	0	32364	32269	30862	
4056	0	32644	32928	30880	
4057	0	33136	32353	30864	
4058	0	32692	32612	30869	
4059	0	32640	32064	30860	
4060	0	32620	34828	30852	
4061	0	32520	32528	30852	
4062	0	32472	30696	30852	
4063	0	32776	31140	30848	
4064	0	33124	33553	30836	
4065	0	33312	33068	30840	
4066	0	33905	33669	30815	
4067	0	33928	33488	30777	
4068	0	33190	33158	30765	
4069	0	32686	33492	30768	
4070	0	32610	32692	30761	
4071	0	32518	29353	30772	
4072	0	32496	33696	30782	
4073	0	32440	34532	30760	
4074	0	32288	34020	30744	
4075	0	32292	33212	30745	
4076	0	32328	30860	30744	
4077	0	32436	31520	30729	
4078	0	32494	32101	30728	
4079	0	32692	33230	30727	
4080	0	32890	33812	30725	
4081	0	32929	33932	30716	
4082	0	32864	34488	30712	
4083	0	32660	32647	30692	
4084	0	32828	31348	30700	
4085	0	32942	31942	30694	
4086	0	33161	32736	30718	
4087	0	33848	34112	30716	
4088	0	33480	32828	30716	
4089	0	32828	32980	30758	
4090	0	32642	33134	30729	
4091	0	32544	32377	30732	
4092	0	32501	32895	30753	
4093	0	32801	32924	30756	
4094	0	32804	29140	30730	
4095	0	32436	32948	30748	
4096	0	32400	34528	30727	
4097	0	32081	32540	30744	
4098	0	32244	33391	30742	
4099	0	32544	34568	30740	
4100	0	33141	34869	30727	
4101	0	33700	33084	30728	
4102	0	33341	31828	30756	
4103	0	33172	32837	30765	
4104	0	33012	33316	30752	
4105	0	32932	32337	30736	
4106	0	32845	31716	30736	
4107	0	32796	33533	30742	
4108	0	32824	34572	30760	
4109	0	32748	31141	30768	
4110	0	32716	32730	30761	
4111	0	32708	31406	30773	
4112	0	32233	34264	30786	
4113	0	31916	32984	30778	
4114	0	32136	31361	30764	
4115	0	32332	31880	30780	
4116	0	32673	33072	30796	
4117	0	33892	32452	30812	
4118	0	32924	33892	30822	
4119	0	32586	32668	30842	
4120	0	32876	30156	30856	
4121	0	33060	30628	30844	
4122	0	33320	35620	30820	
4123	0	33248	34368	30828	
4124	0	32968	30961	30820	
4125	0	32760	29576	30814	
4126	0	32700	33472	30796	
4127	0	32688	37040	30782	
4128	0	33088	33241	30768	
4129	0	33212	31520	30756	
4130	0	32904	35364	30785	
4131	0	32700	33896	30773	
4132	0	32601	33749	30752	
4133	0	32604	31064	30722	
4134	0	32288	30548	30724	
4135	0	32176	32788	30737	
4136	0	32462	34278	30764	
4137	0	32537	33684	30784	
4138	0	32497	31337	30792	
4139	0	32668	30888	30804	
4140	0	32749	32168	30800	
4141	0	32964	34205	30792	
4142	0	33221	35268	30804	
4143	0	32814	35181	30777	
4144	0	32709	32733	30784	
4145	0	32716	32364	30810	
4146	0	32598	32257	30780	
4147	0	32693	34956	30792	
4148	0	33968	34180	30769	
4149	0	33596	31968	30766	
4150	0	33144	32081	30754	
4151	0	32852	30972	30725	
4152	0	32888	31001	30724	
4153	0	32628	31653	30720	
4154	0	32364	34252	30736	
4155	0	32288	33212	30744	
4156	0	32280	32351	30727	
4157	0	32241	32117	30738	
4158	0	32376	35954	30744	
4159	0	32834	35040	30733	
4160	0	32901	29857	30730	
4161	0	32976	31221	30744	
4162	0	32840	31382	30758	
4163	0	32958	33105	30748	
4164	0	32932	33650	30758	
4165	0	32996	30910	30768	
4166	0	33124	30927	30768	
4167	0	33088	28104	30772	
4168	0	32960	33768	30741	
4169	0	32897	37740	30785	
4170	0	33058	38183	30796	
4171	0	32577	35412	30788	
4172	0	32488	33109	30788	
4173	0	32516	32157	30756	
4174	0	32560	32234	30748	
4175	0	32528	31696	30757	
4176	0	32516	32932	30764	
4177	0	32620	33322	30772	
4178	0	32559	31671	30785	
4179	0	32480	33052	30789	
4180	0	32580	32412	30796	
4181	0	32764	32614	30804	
4182	0	32825	32160	30810	
4183	0	32952	32108	30821	
4184	0	33268	32573	30813	
4185	0	33636	33055	30807	
4186	0	33118	32669	30796	
4187	0	32776	33312	30791	
4188	0	32510	33148	30776	
4189	0	32336	33904	30772	
4190	0	32622	33705	30772	
4191	0	33300	32777	30753	
4192	0	32880	31438	30740	
4193	0	33580	33460	30758	
4194	0	32873	33014	30761	
4195	0	32537	32441	30770	
4196	0	32346	31884	30776	
4197	0	32216	31816	30790	
4198	0	31952	31140	30800	
4199	0	32077	32708	30806	
4200	0	32534	34900	30804	
4201	0	32832	33252	30823	
4202	0	33440	32320	30809	
4203	0	33644	33354	30809	
4204	0	33301	32522	30820	
4205	0	33008	32708	30798	
4206	0	32832	34938	30816	
4207	0	33296	34812	30797	
4208	0	33513	37343	30776	
4209	0	32781	31652	30736	
4210	0	32596	32906	30712	
4211	0	32520	31476	30703	
4212	0	32420	29708	30696	
4213	0	32360	31389	30688	
4214	0	32424	33300	30684	
4215	0	32426	33132	30684	
4216	0	32520	32980	30662	
4217	0	32476	35500	30684	
4218	0	32448	31160	30696	
4219	0	32544	27452	30716	
4220	0	32768	31302	30732	
4221	0	32890	32863	30756	
4222	0	33020	33444	30752	
4223	0	33296	35020	30764	
4224	0	33324	35961	30748	
4225	0	33108	34693	30756	
4226	0	32916	32760	30752	
4227	0	32784	31092	30740	
4228	0	32712	32870	30750	
4229	0	32512	33552	30736	
4230	0	32560	32868	30716	
4231	0	32572	32495	30718	
4232	0	33252	32688	30727	
4233	0	33060	32928	30728	
4234	0	32536	32808	30718	
4235	0	32496	32122	30736	
4236	0	32372	32396	30727	
4237	0	32609	33046	30736	
4238	0	32788	33287	30732	
4239	0	32908	32681	30724	
4240	0	33096	32416	30734	
4241	0	33016	31497	30758	
4242	0	32873	31309	30764	
4243	0	32760	31274	30788	
4244	0	32568	35532	30812	
4245	0	32648	34216	30793	
4246	0	32700	31733	30808	
4247	0	32545	32160	30804	
4248	0	32668	34360	30792	
4249	0	32850	32788	30784	
4250	0	33004	26060	30760	
4251	0	34141	29944	30748	
4252	0	33453	37132	30748	
4253	0	32856	37613	30744	
4254	0	32536	37524	30766	
4255	0	32273	35444	30740	
4256	0	32152	35108	30745	
4257	0	32264	33146	30728	
4258	0	32546	31266	30736	
4259	0	32748	30704	30749	
4260	0	32912	29788	30748	
4261	0	32960	30502	30752	
4262	0	32892	33156	30768	
4263	0	32844	33532	30784	
4264	0	32684	32738	30804	
4265	0	32816	31814	30816	
4266	0	32708	31318	30796	
4267	0	32934	32036	30789	
4268	0	33534	34148	30785	
4269	0	33376	34796	30814	
4270	0	33057	34492	30808	
4271	0	33012	32528	30813	
4272	0	32602	32804	30820	
4273	0	32320	32191	30784	
4274	0	32356	31449	30776	
4275	0	32260	32109	30796	
4276	0	32310	32104	30788	
4277	0	32404	33232	30788	
4278	0	32544	34396	30820	
4279	0	32626	34093	30820	
4280	0	32777	30560	30810	
4281	0	32832	30936	30800	
4282	0	32985	35000	30788	
4283	0	33064	33393	30793	
4284	0	33129	33376	30788	
4285	0	33100	33172	30800	
4286	0	33132	32828	30788	
4287	0	33144	33031	30788	
4288	0	32908	32008	30788	
4289	0	32720	31649	30784	
4290	0	32868	31224	30786	
4291	0	32832	32454	30780	
4292	0	32648	34364	30762	
4293	0	32524	36134	30772	
4294	0	32508	32828	30756	
4295	0	32393	33406	30753	
4296	0	32300	33161	30753	
4297	0	32164	33372	30773	
4298	0	31976	32700	30756	
4299	0	32388	28114	30718	
4300	0	32924	30000	30700	
4301	0	33912	33248	30697	
4302	0	33744	32900	30692	
4303	0	33376	31428	30668	
4304	0	33126	32844	30672	
4305	0	33173	33034	30676	
4306	0	33320	36280	30668	
4307	0	32704	37116	30668	
4308	0	32432	35857	30686	
4309	0	32552	33088	30702	
4310	0	32445	32684	30701	
4311	0	33720	32044	30708	
4312	0	33316	32049	30696	
4313	0	32652	32128	30692	
4314	0	32160	32314	30697	
4315	0	32161	32464	30700	
4316	0	32164	32781	30697	
4317	0	32308	32439	30721	
4318	0	32500	32474	30711	
4319	0	32612	33148	30740	
4320	0	32860	31408	30740	
4321	0	32832	31892	30742	
4322	0	32773	34336	30744	
4323	0	32808	31974	30756	
4324	0	32836	31655	30754	
4325	0	32936	30998	30735	
4326	0	33484	32556	30724	
4327	0	33277	32300	30721	
4328	0	33032	33380	30727	
4329	0	32912	32548	30716	
4330	0	32854	32164	30704	
4331	0	32828	35530	30690	
4332	0	32632	33316	30688	
4333	0	32308	33744	30676	
4334	0	31971	33228	30680	
4335	0	32132	31548	30703	
4336	0	32392	32188	30710	
4337	0	33676	34020	30700	
4338	0	33632	34266	30696	
4339	0	33152	32813	30720	
4340	0	32760	32850	30740	
4341	0	32484	32646	30756	
4342	0	32520	32153	30750	
4343	0	32738	31992	30780	
4344	0	32826	32548	30783	
4345	0	32912	33294	30776	
4346	0	32984	32960	30771	
4347	0	32908	32428	30736	
4348	0	32840	31686	30768	
4349	0	32712	31866	30765	
4350	0	32948	32350	30777	
4351	0	32978	32177	30782	
4352	0	33009	33368	30766	
4353	0	33106	35365	30754	
4354	0	32564	34548	30756	
4355	0	32288	30576	30757	
4356	0	32440	32604	30764	
4357	0	32392	35624	30769	
4358	0	32424	34288	30778	
4359	0	32782	31254	30765	
4360	0	32860	31335	30774	
4361	0	32748	33553	30767	
4362	0	32628	34206	30772	
4363	0	32640	33225	30756	
4364	0	32812	31704	30777	
4365	0	33388	31178	30776	
4366	0	33736	33184	30756	
4367	0	33060	33312	30754	
4368	0	32684	32312	30748	
4369	0	32580	31792	30750	
4370	0	32532	32457	30729	
4371	0	33660	32124	30724	
4372	0	32888	31852	30701	
4373	0	32304	35540	30725	
4374	0	32036	34676	30744	
4375	0	32192	32589	30740	
4376	0	32548	31104	30768	
4377	0	32564	31852	30781	
4378	0	32720	34189	30786	
4379	0	32956	33584	30784	
4380	0	32764	33194	30793	
4381	0	32716	33981	30778	
4382	0	32852	34855	30772	
4383	0	33072	32012	30756	
4384	0	33144	30574	30750	
4385	0	33305	32133	30728	
4386	0	33276	30348	30751	
4387	0	33053	32164	30758	
4388	0	32800	30173	30740	
4389	0	32616	34916	30732	
4390	0	32680	36800	30722	
4391	0	32684	33430	30724	
4392	0	32776	31984	30708	
4393	0	32516	32677	30709	
4394	0	32545	29512	30692	
4395	0	32550	31248	30689	
4396	0	32432	35156	30668	
4397	0	32176	36416	30697	
4398	0	32080	34336	30719	
4399	0	33216	34696	30744	
4400	0	33300	32256	30740	
4401	0	33290	30405	30740	
4402	0	33176	31750	30762	
4403	0	33160	32852	30756	
4404	0	32956	32637	30738	
4405	0	32882	31344	30732	
4406	0	32776	31309	30724	
4407	0	32816	30074	30728	
4408	0	32716	34532	30716	
4409	0	32712	35174	30722	
4410	0	32716	34844	30721	
4411	0	32732	34960	30702	
4412	0	32532	32860	30688	
4413	0	32508	31552	30684	
4414	0	32308	32586	30700	
4415	0	32114	33028	30701	
4416	0	32548	32492	30692	
4417	0	32808	32772	30701	
4418	0	32960	32015	30709	
4419	0	33844	31984	30724	
4420	0	32856	32516	30724	
4421	0	32628	33092	30724	
4422	0	32509	33124	30716	
4423	0	32572	32328	30732	
4424	0	32712	33108	30756	
4425	0	33040	35004	30756	
4426	0	33336	34437	30760	
4427	0	33424	31944	30764	
4428	0	33436	31124	30770	
4429	0	33340	32240	30780	
4430	0	32842	33788	30761	
4431	0	32528	33765	30760	
4432	0	32356	33237	30752	
4433	0	32602	34736	30769	
4434	0	32489	33952	30760	
4435	0	32145	32610	30756	
4436	0	32148	32116	30753	
4437	0	32489	29022	30730	
4438	0	32360	29984	30745	
4439	0	32624	32440	30744	
4440	0	32944	34176	30761	
4441	0	33148	33772	30776	
4442	0	33408	33748	30784	
4443	0	33321	32780	30795	
4444	0	33092	32952	30776	
4445	0	32820	32697	30758	
4446	0	32824	32494	30757	
4447	0	32692	32210	30768	
4448	0	32589	32413	30757	
4449	0	32753	32848	30736	
4450	0	32852	32484	30716	
4451	0	32800	30488	30724	
4452	0	32692	33048	30724	
4453	0	32742	37305	30748	
4454	0	32580	32796	30766	
4455	0	32612	33199	30789	
4456	0	32564	33248	30767	
4457	0	32436	31572	30768	
4458	0	32586	32869	30796	
4459	0	32886	34236	30800	
4460	0	32472	32372	30812	
4461	0	32484	31645	30824	
4462	0	32680	33948	30820	
4463	0	32704	34500	30807	
4464	0	33021	32160	30820	
4465	0	34193	32273	30832	
4466	0	33426	29628	30832	
4467	0	32884	31324	30824	
4468	0	32912	35622	30824	
4469	0	32892	34070	30824	
4470	0	32724	32753	30818	
4471	0	32932	34061	30788	
4472	0	33008	32724	30788	
4473	0	32526	32096	30794	
4474	0	31852	32729	30792	
4475	0	31868	31076	30810	
4476	0	31968	29991	30821	
4477	0	32320	31296	30822	
4478	0	33780	34576	30838	
4479	0	33453	37664	30857	
4480	0	32708	35141	30873	
4481	0	32652	34664	30856	
4482	0	32812	30494	30850	
4483	0	32961	32380	30836	
4484	0	33141	32760	30850	
4485	0	33048	31560	30826	
4486	0	32856	31775	30821	
4487	0	32772	32688	30832	
4488	0	32765	32672	30821	
4489	0	32748	32644	30805	
4490	0	33220	32769	30796	
4491	0	33116	32912	30788	
4492	0	32612	31592	30784	
4493	0	32228	29776	30788	
4494	0	32280	36769	30788	
4495	0	32480	34592	30796	
4496	0	32380	33424	30781	
4497	0	32420	33220	30780	
4498	0	32692	32868	30776	
4499	0	32964	34032	30773	
4500	0	33304	32929	30772	
4501	0	33132	31344	30756	
4502	0	33068	30060	30768	
4503	0	33080	31826	30772	
4504	0	33096	32732	30756	
4505	0	33089	33055	30756	
4506	0	32869	33177	30768	
4507	0	32648	31717	30748	
4508	0	32592	32775	30756	
4509	0	32644	32716	30768	
4510	0	32608	33508	30772	
4511	0	32924	33476	30764	
4512	0	33000	33472	30772	
4513	0	32437	34116	30786	
4514	0	32298	33212	30802	
4515	0	33044	31912	30804	
4516	0	32296	31776	30816	
4517	0	32314	31724	30818	
4518	0	32942	34344	30816	
4519	0	33188	30752	30838	
4520	0	32848	29636	30813	
4521	0	32910	34684	30816	
4522	0	33000	35012	30808	
4523	0	32828	36524	30814	
4524	0	32748	33712	30812	
4525	0	32900	33684	30804	
4526	0	32868	32404	30808	
4527	0	32948	31992	30806	
4528	0	32904	32047	30775	
4529	0	32924	32932	30786	
4530	0	32684	31556	30766	
4531	0	32384	31836	30763	
4532	0	32288	32276	30741	
4533	0	32336	31816	30752	
4534	0	32604	34462	30756	
4535	0	34128	34054	30783	
4536	0	33020	33781	30785	
4537	0	32316	33881	30796	
4538	0	32132	31740	30800	
4539	0	32212	31629	30825	
4540	0	32356	29182	30824	
4541	0	33052	29444	30812	
4542	0	33284	35276	30794	
4543	0	33120	37072	30816	
4544	0	32836	35565	30800	
4545	0	33704	31950	30790	
4546	0	33496	31724	30791	
4547	0	32996	32108	30780	
4548	0	32468	33449	30780	
4549	0	32640	33006	30776	
4550	0	32663	32428	30752	
4551	0	32700	32932	30756	
4552	0	33020	33068	30760	
4553	0	32896	33500	30767	
4554	0	32420	33192	30777	
4555	0	32236	31672	30793	
4556	0	32334	33932	30812	
4557	0	32520	35288	30828	
4558	0	32440	31868	30816	
4559	0	32564	31826	30829	
4560	0	32749	31445	30840	
4561	0	32864	31682	30832	
4562	0	32784	32168	30840	
4563	0	32868	32410	30846	
4564	0	32972	32245	30860	
4565	0	33124	30760	30863	
4566	0	33236	33036	30877	
4567	0	33124	33921	30872	
4568	0	32970	33192	30879	
4569	0	32768	33848	30870	
4570	0	32684	34401	30856	
4571	0	32799	35064	30836	
4572	0	32636	33556	30836	
4573	0	32496	33060	30815	
4574	0	32406	31364	30802	
4575	0	32468	32325	30796	
4576	0	32428	32796	30804	
4577	0	33452	31208	30800	
4578	0	33088	31196	30808	
4579	0	33124	32286	30822	
4580	0	32973	33464	30836	
4581	0	32628	33326	30822	
4582	0	32608	32502	30820	
4583	0	32784	34800	30816	
4584	0	32756	34459	30832	
4585	0	32920	32956	30820	
4586	0	32968	33112	30809	
4587	0	33036	32728	30796	
4588	0	32885	32341	30820	
4589	0	32644	32648	30816	
4590	0	32689	32323	30816	
4591	0	32556	33319	30802	
4592	0	32500	33557	30786	
4593	0	32864	32465	30768	
4594	0	32928	32734	30760	
4595	0	32584	32524	30754	
4596	0	32696	32682	30756	
4597	0	32800	32868	30758	
4598	0	32644	33144	30769	
4599	0	32973	31417	30769	
4600	0	32892	31652	30761	
4601	0	32598	32680	30776	
4602	0	32604	30837	30768	
4603	0	32436	34430	30762	
4604	0	32640	34074	30756	
4605	0	32681	31393	30760	
4606	0	32840	27973	30768	
4607	0	33748	31380	30744	
4608	0	33540	34126	30736	
4609	0	33188	35696	30732	
4610	0	33168	38941	30720	
4611	0	33052	34560	30718	
4612	0	32650	34998	30721	
4613	0	32248	31552	30692	
4614	0	32216	31056	30692	
4615	0	32050	32101	30685	
4616	0	31888	31736	30668	
4617	0	32228	33340	30681	
4618	0	32864	33077	30692	
4619	0	33090	32336	30726	
4620	0	34024	31964	30763	
4621	0	33084	32158	30772	
4622	0	33016	32500	30772	
4623	0	33056	31964	30792	
4624	0	32888	32702	30804	
4625	0	32656	32402	30809	
4626	0	32592	33128	30812	
4627	0	32812	33685	30836	
4628	0	32833	32876	30820	
4629	0	32894	33000	30821	
4630	0	32890	32856	30836	
4631	0	32920	32116	30836	
4632	0	32724	32910	30826	
