# OpenSignals Text File Format
# {"00:07:80:4D:2E:AD": {"sensor": ["EMG", "EMG", "XYZ"], "device name": "00:07:80:4D:2E:AD", "column": ["nSeq", "DI", "CH1", "CH2", "CH3"], "sync interval": 2, "time": "15:39:43.19", "comments": "scissor | ch1_flexor_digitorum_superficialis ch2_aductor_policis ch3_acc_z [trial 4]", "device connection": "BTH00:07:80:4D:2E:AD", "channels": [1, 2, 3], "keywords": "", "mode": 0, "digital IO": [0, 1], "firmware version": 773, "device": "biosignalsplux", "position": 0, "sampling rate": 1000, "label": ["CH1", "CH2", "CH3"], "resolution": [16, 16, 16], "date": "2019-1-23", "special": [{}, {}, {}]}}
# EndOfHeader
0	0	32700	32841	34972	
1	0	32684	32912	34961	
2	0	33004	32861	34940	
3	0	33001	32780	34932	
4	0	33052	32726	34916	
5	0	33092	32695	34924	
6	0	33048	32736	34900	
7	0	33045	32775	34921	
8	0	33020	32764	34912	
9	0	33036	32833	34908	
10	0	32877	32881	34920	
11	0	32793	32901	34926	
12	0	32722	32930	34920	
13	0	32612	32916	34908	
14	0	32532	32895	34917	
15	0	32416	32912	34941	
16	0	32500	32844	34940	
17	0	32468	32862	34934	
18	0	32504	32783	34937	
19	0	32614	32832	34940	
20	0	32686	32820	34941	
21	0	32768	32869	34925	
22	0	32904	32836	34940	
23	0	32944	32853	34928	
24	0	33060	32832	34951	
25	0	33028	32855	34951	
26	0	33104	32749	34928	
27	0	33069	32746	34924	
28	0	33088	32724	34922	
29	0	32996	32713	34912	
30	0	32877	32741	34924	
31	0	32824	32786	34918	
32	0	32698	32780	34941	
33	0	32608	32900	34932	
34	0	32496	32909	34945	
35	0	32488	32887	34945	
36	0	32480	32834	34928	
37	0	32474	32789	34948	
38	0	32528	32896	34944	
39	0	32654	32817	34940	
40	0	32672	32822	34946	
41	0	32776	32868	34928	
42	0	32852	32932	34931	
43	0	32892	32864	34927	
44	0	33061	32920	34916	
45	0	33080	32836	34923	
46	0	33114	32732	34916	
47	0	33132	32735	34908	
48	0	33091	32725	34896	
49	0	32980	32684	34916	
50	0	32948	32804	34912	
51	0	32836	32862	34956	
52	0	32642	32916	34940	
53	0	32580	32925	34940	
54	0	32484	32989	34953	
55	0	32425	32993	34951	
56	0	32440	32972	34936	
57	0	32493	32940	34932	
58	0	32537	32936	34940	
59	0	32612	32828	34940	
60	0	32657	32848	34935	
61	0	32788	32808	34956	
62	0	32864	32805	34948	
63	0	32928	32800	34951	
64	0	32996	32772	34952	
65	0	33073	32796	34948	
66	0	33120	32724	34952	
67	0	33100	32830	34932	
68	0	33080	32790	34940	
69	0	33036	32750	34951	
70	0	32812	32796	34968	
71	0	32780	32836	34956	
72	0	32712	32876	34966	
73	0	32613	32860	34984	
74	0	32589	32918	34972	
75	0	32451	32896	34976	
76	0	32500	32817	34980	
77	0	32468	32836	34968	
78	0	32488	32916	34964	
79	0	32524	32792	34944	
80	0	32692	32844	34927	
81	0	32744	32901	34945	
82	0	32892	32796	34940	
83	0	33018	32928	34953	
84	0	33042	32904	34945	
85	0	33100	32816	34942	
86	0	33148	32736	34919	
87	0	33126	32869	34920	
88	0	32983	32809	34925	
89	0	33016	32696	34936	
90	0	32908	32796	34940	
91	0	32809	32820	34952	
92	0	32750	32756	34948	
93	0	32644	32913	34982	
94	0	32514	32869	34983	
95	0	32480	32777	34980	
96	0	32476	32908	34984	
97	0	32504	32863	34993	
98	0	32548	32785	34998	
99	0	32589	32826	34988	
100	0	32728	32796	34984	
101	0	32780	32856	34969	
102	0	32864	32784	34960	
103	0	32949	32873	34957	
104	0	33015	32840	34948	
105	0	33069	32782	34920	
106	0	33090	32791	34919	
107	0	33034	32736	34940	
108	0	33056	32884	34948	
109	0	33044	32840	34966	
110	0	32894	32932	34970	
111	0	32816	32868	34952	
112	0	32716	32848	34943	
113	0	32624	32849	34934	
114	0	32540	32900	34940	
115	0	32482	32959	34960	
116	0	32440	32856	34957	
117	0	32460	32889	34959	
118	0	32541	32952	34967	
119	0	32620	32828	34956	
120	0	32690	32888	34945	
121	0	32816	32888	34957	
122	0	32896	32849	34940	
123	0	32948	32858	34917	
124	0	32961	32885	34916	
125	0	33032	32820	34916	
126	0	33088	32692	34928	
127	0	33132	32709	34918	
128	0	33068	32684	34940	
129	0	33020	32738	34920	
130	0	32912	32812	34920	
131	0	32826	32805	34918	
132	0	32720	32741	34932	
133	0	32618	32884	34928	
134	0	32484	32879	34950	
135	0	32481	32932	34957	
136	0	32484	32958	34953	
137	0	32420	32908	34936	
138	0	32504	32889	34940	
139	0	32664	32865	34934	
140	0	32722	32863	34944	
141	0	32832	32775	34968	
142	0	32852	32796	34952	
143	0	32936	32704	34956	
144	0	33012	32788	34932	
145	0	33076	32768	34942	
146	0	33092	32788	34940	
147	0	33136	32773	34908	
148	0	33102	32806	34900	
149	0	33056	32796	34920	
150	0	32892	32862	34940	
151	0	32785	32884	34956	
152	0	32748	32905	34956	
153	0	32684	32936	34976	
154	0	32536	32888	34983	
155	0	32484	32780	34992	
156	0	32508	32924	34977	
157	0	32464	32813	34974	
158	0	32504	32860	34988	
159	0	32608	32856	34953	
160	0	32722	32834	34972	
161	0	32752	32840	34952	
162	0	32854	32765	34965	
163	0	32944	32884	34960	
164	0	32992	32785	34956	
165	0	33100	32853	34953	
166	0	33024	32801	34964	
167	0	33116	32781	34964	
168	0	33056	32852	34956	
169	0	32964	32712	34950	
170	0	32933	32724	34944	
171	0	32828	32740	34982	
172	0	32688	32882	34968	
173	0	32605	32891	34960	
174	0	32516	32803	34950	
175	0	32502	32858	34956	
176	0	32456	32871	34951	
177	0	32516	32848	34976	
178	0	32580	32902	34964	
179	0	32580	32928	34972	
180	0	32672	32941	34970	
181	0	32749	32920	34959	
182	0	32816	32932	34972	
183	0	32978	32850	34960	
184	0	33028	32782	34953	
185	0	33128	32821	34958	
186	0	33064	32780	34949	
187	0	33144	32769	34951	
188	0	33124	32728	34948	
189	0	32944	32760	34964	
190	0	32970	32775	34956	
191	0	32876	32752	34948	
192	0	32636	32792	34953	
193	0	32688	32783	34936	
194	0	32545	32908	34954	
195	0	32542	32873	34967	
196	0	32436	32941	34960	
197	0	32410	32929	34965	
198	0	32561	32924	34949	
199	0	32572	32937	34957	
200	0	32640	32836	34958	
201	0	32846	32780	34964	
202	0	32884	32854	34949	
203	0	32936	32832	34925	
204	0	33057	32837	34933	
205	0	33064	32838	34929	
206	0	33093	32872	34925	
207	0	33061	32766	34909	
208	0	33092	32796	34900	
209	0	33072	32784	34896	
210	0	32964	32772	34920	
211	0	32840	32756	34937	
212	0	32740	32836	34961	
213	0	32624	32775	34943	
214	0	32528	32748	34924	
215	0	32453	32804	34932	
216	0	32444	32888	34934	
217	0	32436	32820	34911	
218	0	32536	32909	34919	
219	0	32566	32906	34912	
220	0	32596	32826	34916	
221	0	32724	32814	34916	
222	0	32844	32810	34919	
223	0	32916	32784	34904	
224	0	32948	32736	34902	
225	0	33096	32828	34903	
226	0	33108	32820	34917	
227	0	33112	32767	34913	
228	0	33068	32788	34934	
229	0	33040	32804	34932	
230	0	32920	32778	34934	
231	0	32864	32826	34932	
232	0	32712	32844	34944	
233	0	32648	32893	34933	
234	0	32556	32868	34932	
235	0	32520	32876	34952	
236	0	32428	32912	34948	
237	0	32468	32896	34948	
238	0	32504	32809	34940	
239	0	32624	32805	34948	
240	0	32688	32802	34957	
241	0	32768	32825	34964	
242	0	32871	32812	34945	
243	0	32948	32848	34920	
244	0	33004	32760	34912	
245	0	33044	32746	34912	
246	0	33024	32844	34924	
247	0	33113	32848	34894	
248	0	33080	32793	34900	
249	0	32940	32770	34909	
250	0	32920	32892	34918	
251	0	32805	32862	34933	
252	0	32748	32816	34948	
253	0	32560	32768	34951	
254	0	32532	33012	34968	
255	0	32492	32855	34972	
256	0	32444	32868	34948	
257	0	32540	32872	34940	
258	0	32492	32872	34934	
259	0	32592	32840	34921	
260	0	32704	32976	34920	
261	0	32744	32837	34932	
262	0	32856	32852	34940	
263	0	33016	32868	34922	
264	0	33020	32838	34948	
265	0	33097	32857	34933	
266	0	33108	32648	34917	
267	0	33076	32641	34921	
268	0	33016	32789	34920	
269	0	32996	32740	34932	
270	0	32944	32830	34948	
271	0	32856	32868	34952	
272	0	32712	32880	34946	
273	0	32648	32846	34936	
274	0	32616	32845	34948	
275	0	32468	32853	34956	
276	0	32484	32824	34969	
277	0	32456	32856	34958	
278	0	32508	32924	34960	
279	0	32556	33031	34975	
280	0	32644	32980	34968	
281	0	32744	32820	34960	
282	0	32912	32804	34952	
283	0	32944	32778	34956	
284	0	33022	32684	34960	
285	0	33040	32822	34948	
286	0	33084	32800	34950	
287	0	33097	32813	34943	
288	0	33100	32868	34924	
289	0	32956	32775	34912	
290	0	32890	32738	34926	
291	0	32864	32800	34913	
292	0	32725	32820	34924	
293	0	32664	32900	34912	
294	0	32550	32877	34902	
295	0	32476	32869	34920	
296	0	32412	32928	34948	
297	0	32501	32922	34944	
298	0	32512	32953	34956	
299	0	32558	32881	34981	
300	0	32652	32837	34978	
301	0	32774	32900	34968	
302	0	32857	32824	34988	
303	0	32962	32921	34966	
304	0	33024	32708	34946	
305	0	33100	32769	34928	
306	0	33092	32656	34932	
307	0	33112	32680	34904	
308	0	33088	32825	34884	
309	0	33052	32705	34896	
310	0	32920	32830	34893	
311	0	32821	32881	34927	
312	0	32676	32900	34912	
313	0	32588	32916	34907	
314	0	32520	32904	34932	
315	0	32528	32800	34948	
316	0	32397	32903	34944	
317	0	32500	32868	34958	
318	0	32520	32870	34942	
319	0	32628	32921	34948	
320	0	32672	32925	34954	
321	0	32697	32944	34938	
322	0	32776	32844	34920	
323	0	33012	32836	34924	
324	0	33068	32908	34932	
325	0	33040	32780	34916	
326	0	33093	32824	34933	
327	0	33102	32790	34919	
328	0	33116	32858	34937	
329	0	32992	32748	34921	
330	0	32916	32684	34916	
331	0	32824	32765	34920	
332	0	32800	32829	34956	
333	0	32589	32860	34968	
334	0	32537	32892	34938	
335	0	32476	32889	34961	
336	0	32456	32878	34949	
337	0	32492	32854	34944	
338	0	32464	32924	34956	
339	0	32640	32837	34964	
340	0	32668	32812	34945	
341	0	32784	32860	34940	
342	0	32896	32856	34940	
343	0	32942	32752	34935	
344	0	32999	32822	34956	
345	0	33014	32750	34952	
346	0	33069	32766	34927	
347	0	33105	32760	34934	
348	0	33056	32736	34928	
349	0	33028	32804	34912	
350	0	32896	32848	34921	
351	0	32808	32785	34951	
352	0	32752	32850	34954	
353	0	32612	32872	34928	
354	0	32569	32812	34944	
355	0	32456	32808	34969	
356	0	32519	32942	34972	
357	0	32440	32868	34948	
358	0	32485	32820	34950	
359	0	32608	32841	34959	
360	0	32712	32941	34944	
361	0	32752	32966	34944	
362	0	32864	32903	34944	
363	0	32932	32925	34945	
364	0	32980	32836	34948	
365	0	33112	32728	34936	
366	0	33016	32784	34928	
367	0	33052	32738	34925	
368	0	33060	32813	34932	
369	0	33024	32797	34932	
370	0	32966	32848	34935	
371	0	32760	32893	34928	
372	0	32752	32832	34941	
373	0	32684	32894	34948	
374	0	32560	32901	34948	
375	0	32516	32868	34964	
376	0	32436	32815	34952	
377	0	32460	32760	34954	
378	0	32522	32820	34957	
379	0	32606	32890	34951	
380	0	32676	32946	34948	
381	0	32740	32876	34960	
382	0	32833	32839	34964	
383	0	32944	32828	34968	
384	0	32996	32876	34973	
385	0	33048	32769	34956	
386	0	33096	32748	34974	
387	0	33112	32756	34972	
388	0	33082	32821	34982	
389	0	33016	32783	34972	
390	0	32940	32743	34965	
391	0	32872	32728	34968	
392	0	32772	32780	34970	
393	0	32564	32746	34964	
394	0	32540	32844	34956	
395	0	32450	32868	34952	
396	0	32490	32816	34962	
397	0	32472	32862	34960	
398	0	32534	32782	34956	
399	0	32600	32909	34949	
400	0	32709	32880	34964	
401	0	32805	32868	34959	
402	0	32928	32832	34948	
403	0	32928	32800	34942	
404	0	33030	32769	34951	
405	0	33024	32871	34956	
406	0	33056	32775	34948	
407	0	33056	32708	34948	
408	0	33080	32708	34940	
409	0	32996	32728	34966	
410	0	32948	32809	34956	
411	0	32836	32801	34954	
412	0	32720	32796	34967	
413	0	32632	32879	34953	
414	0	32604	32948	34972	
415	0	32408	32836	34969	
416	0	32432	32884	34968	
417	0	32468	32852	34967	
418	0	32580	32880	34949	
419	0	32640	32966	34942	
420	0	32656	32892	34951	
421	0	32736	32876	34956	
422	0	32860	32878	34932	
423	0	32960	32823	34929	
424	0	33028	32785	34932	
425	0	33052	32796	34932	
426	0	33164	32732	34917	
427	0	33088	32784	34913	
428	0	33048	32848	34900	
429	0	33016	32828	34918	
430	0	32985	32736	34940	
431	0	32829	32805	34928	
432	0	32720	32764	34956	
433	0	32641	32818	34988	
434	0	32560	32836	34993	
435	0	32442	32848	34996	
436	0	32464	32844	34982	
437	0	32468	32848	34972	
438	0	32540	32850	34964	
439	0	32581	32853	34941	
440	0	32692	32924	34929	
441	0	32753	32881	34946	
442	0	32849	32838	34956	
443	0	32928	32822	34959	
444	0	33004	32781	34948	
445	0	33096	32808	34934	
446	0	33074	32815	34936	
447	0	33052	32824	34944	
448	0	33031	32868	34950	
449	0	32980	32845	34950	
450	0	33024	32818	34951	
451	0	32848	32850	34935	
452	0	32737	32832	34924	
453	0	32628	32816	34911	
454	0	32560	32808	34905	
455	0	32476	32805	34944	
456	0	32424	32788	34942	
457	0	32480	32769	34966	
458	0	32504	32832	34969	
459	0	32596	32840	34972	
460	0	32704	32751	34953	
461	0	32784	32784	34924	
462	0	32814	32732	34936	
463	0	32924	32798	34936	
464	0	32948	32741	34944	
465	0	32960	32824	34968	
466	0	33076	32880	34966	
467	0	33096	32817	34969	
468	0	33036	32736	34946	
469	0	33032	32740	34932	
470	0	32940	32743	34936	
471	0	32864	32800	34929	
472	0	32752	32793	34939	
473	0	32657	32929	34934	
474	0	32564	32975	34937	
475	0	32452	32886	34967	
476	0	32448	32928	34960	
477	0	32452	32857	34916	
478	0	32516	32804	34928	
479	0	32586	32830	34924	
480	0	32640	32872	34928	
481	0	32760	32869	34940	
482	0	32841	32880	34948	
483	0	32924	32862	34948	
484	0	32964	32824	34949	
485	0	33044	32711	34944	
486	0	33100	32688	34952	
487	0	33072	32686	34948	
488	0	33104	32748	34940	
489	0	33076	32750	34924	
490	0	32972	32775	34896	
491	0	32790	32908	34892	
492	0	32740	32831	34921	
493	0	32572	32908	34932	
494	0	32500	32876	34933	
495	0	32472	32908	34956	
496	0	32468	32796	34944	
497	0	32492	32814	34940	
498	0	32448	32829	34949	
499	0	32592	32813	34940	
500	0	32708	32841	34928	
501	0	32800	32884	34933	
502	0	32832	32876	34922	
503	0	32904	32804	34904	
504	0	33044	32784	34895	
505	0	33004	32820	34912	
506	0	33056	32762	34896	
507	0	33116	32756	34896	
508	0	33068	32853	34900	
509	0	33088	32873	34920	
510	0	32940	32805	34932	
511	0	32868	32860	34951	
512	0	32726	32845	34940	
513	0	32662	32873	34956	
514	0	32548	32869	34948	
515	0	32501	32841	34961	
516	0	32524	32796	34957	
517	0	32437	32829	34926	
518	0	32472	32775	34937	
519	0	32484	32848	34929	
520	0	32640	32862	34920	
521	0	32708	32800	34921	
522	0	32880	32788	34932	
523	0	32932	32832	34920	
524	0	32992	32792	34924	
525	0	33100	32853	34932	
526	0	33096	32794	34934	
527	0	33048	32808	34932	
528	0	33036	32876	34952	
529	0	33040	32872	34948	
530	0	32998	32817	34941	
531	0	32844	32896	34959	
532	0	32732	32873	34960	
533	0	32638	32889	34980	
534	0	32492	32863	35000	
535	0	32468	32927	34990	
536	0	32496	32834	34984	
537	0	32440	32864	34969	
538	0	32565	32848	34980	
539	0	32632	32834	34973	
540	0	32689	32866	34969	
541	0	32740	32822	34956	
542	0	32841	32865	34956	
543	0	32944	32850	34944	
544	0	32980	32836	34940	
545	0	33076	32752	34942	
546	0	33121	32738	34961	
547	0	33100	32696	34932	
548	0	33124	32721	34929	
549	0	33040	32788	34924	
550	0	32924	32856	34927	
551	0	32821	32833	34925	
552	0	32692	32863	34926	
553	0	32637	32853	34932	
554	0	32548	32876	34929	
555	0	32537	32844	34916	
556	0	32448	32964	34928	
557	0	32472	32988	34928	
558	0	32476	32928	34925	
559	0	32540	32866	34940	
560	0	32653	32824	34945	
561	0	32684	32820	34924	
562	0	32817	32840	34908	
563	0	32868	32761	34936	
564	0	32996	32730	34936	
565	0	33080	32721	34932	
566	0	33088	32716	34916	
567	0	33048	32813	34945	
568	0	33017	32765	34928	
569	0	33052	32769	34916	
570	0	32972	32788	34916	
571	0	32853	32760	34912	
572	0	32716	32772	34932	
573	0	32584	32921	34933	
574	0	32560	32868	34924	
575	0	32413	32893	34928	
576	0	32448	32820	34918	
577	0	32480	32828	34900	
578	0	32484	32884	34924	
579	0	32580	32857	34957	
580	0	32692	32816	34942	
581	0	32782	32804	34950	
582	0	32924	32808	34948	
583	0	33044	32858	34944	
584	0	33041	32876	34944	
585	0	33056	32836	34925	
586	0	33128	32820	34916	
587	0	33054	32750	34916	
588	0	33080	32752	34917	
589	0	32946	32750	34892	
590	0	32938	32800	34910	
591	0	32864	32804	34936	
592	0	32744	32752	34940	
593	0	32616	32745	34940	
594	0	32574	32788	34932	
595	0	32504	32916	34960	
596	0	32440	32952	34944	
597	0	32356	32976	34960	
598	0	32516	32929	34940	
599	0	32624	32880	34935	
600	0	32688	32908	34936	
601	0	32692	32885	34951	
602	0	32740	32808	34932	
603	0	32902	32797	34956	
604	0	33001	32772	34964	
605	0	33088	32800	34956	
606	0	33112	32826	34948	
607	0	33088	32813	34924	
608	0	33096	32820	34917	
609	0	33148	32816	34917	
610	0	33136	32796	34949	
611	0	33072	32747	34942	
612	0	32744	32768	34948	
613	0	32440	32800	34920	
614	0	32368	32960	34948	
615	0	32484	32892	34964	
616	0	32442	32932	34964	
617	0	32490	32926	34940	
618	0	32496	32884	34928	
619	0	32476	32820	34927	
620	0	32552	32788	34904	
621	0	32716	32732	34913	
622	0	32808	32856	34926	
623	0	33036	32788	34916	
624	0	33164	32796	34924	
625	0	33106	32746	34912	
626	0	33028	32769	34932	
627	0	33200	32717	34932	
628	0	33124	32848	34932	
629	0	33156	32820	34949	
630	0	32937	32830	34956	
631	0	32868	32846	34952	
632	0	32708	32871	34940	
633	0	32678	32824	34956	
634	0	32536	32817	34976	
635	0	32416	32830	35000	
636	0	32376	32849	35005	
637	0	32408	32860	35008	
638	0	32496	32876	35024	
639	0	32532	32884	35004	
640	0	32480	32829	34988	
641	0	32661	32930	34989	
642	0	32788	32770	34992	
643	0	33022	32840	35000	
644	0	32916	32880	34996	
645	0	33008	32917	34984	
646	0	33070	32894	34984	
647	0	33172	32792	35008	
648	0	33140	32769	35012	
649	0	33065	32737	34986	
650	0	33017	32681	34998	
651	0	32946	32772	34980	
652	0	32752	32826	35004	
653	0	32580	32838	34984	
654	0	32456	32840	34972	
655	0	32449	32852	34984	
656	0	32489	32860	34964	
657	0	32472	32856	34952	
658	0	32432	32753	34972	
659	0	32644	32808	34952	
660	0	32716	32864	34940	
661	0	32708	32806	34944	
662	0	32897	32822	34948	
663	0	32977	32848	34944	
664	0	33056	32804	34928	
665	0	33064	32810	34932	
666	0	33092	32766	34945	
667	0	33077	32788	34932	
668	0	33108	32868	34952	
669	0	33020	32796	34969	
670	0	33032	32822	34986	
671	0	32916	32876	35005	
672	0	32708	32862	35009	
673	0	32633	32862	35021	
674	0	32564	32866	35022	
675	0	32480	32933	35046	
676	0	32392	32792	35038	
677	0	32477	32810	35020	
678	0	32440	32788	35005	
679	0	32449	32812	35005	
680	0	32664	32788	35004	
681	0	32790	32793	34990	
682	0	32773	32764	34984	
683	0	32864	32774	34936	
684	0	32940	32752	34884	
685	0	33116	32822	34823	
686	0	33184	32900	34816	
687	0	33108	32869	34804	
688	0	33158	32721	34782	
689	0	33024	32782	34781	
690	0	33000	32871	34814	
691	0	32840	32842	34850	
692	0	32764	32853	34872	
693	0	32692	32856	34902	
694	0	32602	32866	34926	
695	0	32484	32908	34933	
696	0	32464	32870	34940	
697	0	32373	32940	34962	
698	0	32504	32861	34988	
699	0	32578	32917	34992	
700	0	32652	32853	34984	
701	0	32700	32869	34990	
702	0	32808	32912	34967	
703	0	32972	32852	34916	
704	0	32980	32872	34837	
705	0	33024	32826	34768	
706	0	33089	32773	34695	
707	0	33092	32760	34694	
708	0	33024	32944	34692	
709	0	33024	32942	34694	
710	0	33060	32868	34693	
711	0	32852	32829	34704	
712	0	32704	32774	34724	
713	0	32572	32885	34776	
714	0	32496	32836	34814	
715	0	32476	32798	34848	
716	0	32428	32828	34857	
717	0	32500	32860	34876	
718	0	32612	32752	34852	
719	0	32644	32810	34842	
720	0	32692	32792	34843	
721	0	32782	32676	34817	
722	0	32864	32884	34802	
723	0	32928	32864	34780	
724	0	32972	32880	34756	
725	0	33060	33120	34748	
726	0	33152	32852	34737	
727	0	33026	32737	34742	
728	0	32984	32732	34749	
729	0	33024	32860	34760	
730	0	32884	33004	34789	
731	0	32880	33151	34804	
732	0	32796	32792	34823	
733	0	32652	32556	34814	
734	0	32616	32324	34823	
735	0	32464	32788	34833	
736	0	32380	32822	34808	
737	0	32383	32916	34800	
738	0	32480	32828	34781	
739	0	32428	32988	34788	
740	0	32552	33085	34736	
741	0	32628	32957	34770	
742	0	32864	32911	34756	
743	0	32879	32797	34736	
744	0	33061	32788	34736	
745	0	33208	32768	34751	
746	0	33256	32722	34774	
747	0	33152	32782	34792	
748	0	33060	32790	34828	
749	0	33044	32735	34844	
750	0	32978	32716	34866	
751	0	32924	32750	34904	
752	0	32856	32796	34935	
753	0	32808	32774	34961	
754	0	32496	32828	34964	
755	0	32301	32832	34980	
756	0	32449	32720	35010	
757	0	32600	32845	34951	
758	0	32600	32881	34864	
759	0	32520	32608	34820	
760	0	32556	32825	34780	
761	0	32645	32928	34765	
762	0	32740	33026	34732	
763	0	32837	33028	34736	
764	0	32964	32989	34780	
765	0	33028	32934	34853	
766	0	33084	32820	34930	
767	0	33172	32840	34977	
768	0	33152	32953	35014	
769	0	33100	32832	35052	
770	0	33016	32712	35031	
771	0	32992	32769	34991	
772	0	32964	32577	34944	
773	0	32848	32517	34919	
774	0	32604	32496	34912	
775	0	32444	32486	34904	
776	0	32396	32924	34913	
777	0	32388	33108	34900	
778	0	32440	33054	34903	
779	0	32440	32996	34940	
780	0	32526	32976	34961	
781	0	32576	33011	34980	
782	0	32620	32772	34974	
783	0	32800	32689	34980	
784	0	32896	32646	34956	
785	0	32944	32594	34916	
786	0	33092	32900	34868	
787	0	33220	33252	34830	
788	0	33240	33439	34792	
789	0	33164	33012	34768	
790	0	33020	32681	34750	
791	0	32972	32580	34726	
792	0	32924	32548	34729	
793	0	32680	32510	34748	
794	0	32400	32684	34777	
795	0	32276	32248	34784	
796	0	32297	32758	34820	
797	0	32338	34064	34853	
798	0	32420	32868	34896	
799	0	32632	32316	34928	
800	0	32664	31188	34890	
801	0	32472	31284	34824	
802	0	32320	31651	34756	
803	0	32292	32632	34708	
804	0	32304	34152	34632	
805	0	32908	34423	34541	
806	0	33468	33720	34413	
807	0	33832	35974	34318	
808	0	33968	36272	34205	
809	0	33998	33734	34088	
810	0	33720	31724	33975	
811	0	33044	31591	33860	
812	0	32508	32736	33797	
813	0	31972	32068	33757	
814	0	31788	31592	33681	
815	0	31716	31996	33585	
816	0	31749	31879	33503	
817	0	31904	31780	33434	
818	0	32182	32479	33380	
819	0	32516	32792	33286	
820	0	33044	33292	33236	
821	0	33505	34329	33230	
822	0	33936	34633	33220	
823	0	34100	33789	33221	
824	0	34396	33256	33258	
825	0	34092	32132	33316	
826	0	33216	30182	33380	
827	0	32927	29069	33533	
828	0	32688	29392	33713	
829	0	32484	30478	33928	
830	0	32160	31568	34120	
831	0	31797	32149	34218	
832	0	31213	34528	34232	
833	0	30964	34908	34216	
834	0	30764	35264	34183	
835	0	31224	35892	34174	
836	0	32260	35000	34188	
837	0	33280	33652	34200	
838	0	33936	32252	34172	
839	0	34100	31225	34169	
840	0	34228	30601	34164	
841	0	34248	31644	34220	
842	0	34104	32543	34256	
843	0	33680	32584	34292	
844	0	33084	32870	34348	
845	0	32981	33788	34397	
846	0	32748	34704	34465	
847	0	32164	34252	34536	
848	0	30956	33064	34548	
849	0	30756	31860	34604	
850	0	31188	30964	34649	
851	0	31796	31582	34688	
852	0	32604	32332	34732	
853	0	33592	32024	34759	
854	0	34520	32841	34784	
855	0	34517	33533	34773	
856	0	34400	33324	34772	
857	0	32984	32802	34760	
858	0	31460	32827	34708	
859	0	30301	33463	34704	
860	0	26949	33112	34681	
861	0	26513	31724	34640	
862	0	28573	32612	34585	
863	0	31480	34753	34520	
864	0	34692	34610	34468	
865	0	37794	33924	34400	
866	0	40288	33092	34324	
867	0	40820	32124	34240	
868	0	40248	30949	34119	
869	0	38932	32656	34029	
870	0	35456	32892	33924	
871	0	31976	32828	33841	
872	0	30448	33069	33772	
873	0	27316	33016	33612	
874	0	21800	32992	33404	
875	0	23668	33221	33196	
876	0	28068	33437	32996	
877	0	31428	33074	32801	
878	0	33844	32741	32686	
879	0	35696	33248	32602	
880	0	35844	35492	32556	
881	0	35820	35842	32548	
882	0	35708	34444	32558	
883	0	35956	33828	32572	
884	0	37024	32432	32588	
885	0	37680	28421	32600	
886	0	38104	27284	32604	
887	0	36885	27910	32602	
888	0	35680	29252	32588	
889	0	34049	32341	32592	
890	0	32240	33898	32612	
891	0	31808	33088	32620	
892	0	31773	31458	32660	
893	0	31232	32348	32692	
894	0	29176	33900	32692	
895	0	28784	33993	32704	
896	0	29446	33756	32694	
897	0	29436	33160	32670	
898	0	29752	33140	32680	
899	0	30324	33736	32701	
900	0	30988	33528	32764	
901	0	31732	33036	32873	
902	0	32169	32960	33012	
903	0	32628	33142	33144	
904	0	33020	32775	33352	
905	0	33248	32661	33542	
906	0	33604	32092	33709	
907	0	33640	32428	33884	
908	0	33488	32863	34092	
909	0	33520	34116	34269	
910	0	33508	32468	34446	
911	0	33301	32246	34625	
912	0	32928	30210	34752	
913	0	32694	32408	34842	
914	0	32308	34076	34852	
915	0	31545	36412	34839	
916	0	31792	35704	34780	
917	0	32421	34060	34677	
918	0	33340	35692	34556	
919	0	32580	34948	34469	
920	0	31452	28712	34354	
921	0	31572	26715	34196	
922	0	31808	30916	34006	
923	0	32020	31382	33813	
924	0	32826	33089	33609	
925	0	34058	34580	33412	
926	0	34516	33436	33216	
927	0	33800	32932	33054	
928	0	33538	32533	32888	
929	0	34190	31836	32772	
930	0	34728	32712	32662	
931	0	34588	33732	32605	
932	0	34592	34480	32568	
933	0	33552	33564	32577	
934	0	32204	32356	32636	
935	0	31152	30348	32757	
936	0	30112	27356	32896	
937	0	30348	28078	33064	
938	0	30523	32972	33232	
939	0	30708	36836	33436	
940	0	31624	37508	33632	
941	0	32724	36428	33852	
942	0	32808	34480	34020	
943	0	33038	33276	34216	
944	0	33593	32070	34344	
945	0	34064	33280	34468	
946	0	34684	32581	34560	
947	0	35792	29076	34608	
948	0	34696	28815	34617	
949	0	33972	29440	34605	
950	0	33492	31780	34581	
951	0	32980	31377	34544	
952	0	32888	32937	34488	
953	0	31908	32708	34385	
954	0	31120	34917	34310	
955	0	31340	31786	34188	
956	0	31440	30592	34036	
957	0	31754	30623	33864	
958	0	32172	32468	33692	
959	0	32000	34252	33524	
960	0	32338	35312	33380	
961	0	32352	36004	33212	
962	0	32926	35960	33045	
963	0	34021	34372	32910	
964	0	34112	32768	32788	
965	0	34040	32052	32705	
966	0	33908	32257	32614	
967	0	33636	31396	32577	
968	0	33376	30710	32548	
969	0	33340	31460	32556	
970	0	33376	32632	32592	
971	0	33300	31972	32636	
972	0	33082	31156	32700	
973	0	32892	29965	32785	
974	0	33340	28610	32852	
975	0	32921	28100	32936	
976	0	31956	32724	33009	
977	0	31900	38232	33100	
978	0	32104	36429	33172	
979	0	32178	36236	33258	
980	0	32026	37496	33336	
981	0	32176	35710	33388	
982	0	31568	34021	33436	
983	0	32324	31396	33472	
984	0	32864	27438	33493	
985	0	33252	26522	33517	
986	0	33324	31152	33509	
987	0	33565	36142	33456	
988	0	33066	37396	33417	
989	0	33276	36216	33365	
990	0	32992	36421	33321	
991	0	32752	34740	33220	
992	0	31501	32341	33138	
993	0	30948	31916	33060	
994	0	30960	32134	32976	
995	0	31732	30816	32910	
996	0	31828	29620	32853	
997	0	31512	28876	32790	
998	0	31453	30122	32732	
999	0	31704	34040	32692	
1000	0	32112	37372	32624	
1001	0	31938	35092	32592	
1002	0	32084	30752	32556	
1003	0	32680	30428	32508	
1004	0	34016	32224	32491	
1005	0	34996	37973	32450	
1006	0	35452	39126	32432	
1007	0	35092	34880	32425	
1008	0	35920	34061	32416	
1009	0	36188	31324	32404	
1010	0	35482	30321	32396	
1011	0	33944	32242	32384	
1012	0	33444	33031	32396	
1013	0	33800	34460	32380	
1014	0	32544	32088	32381	
1015	0	30932	29366	32376	
1016	0	30632	28680	32353	
1017	0	31060	26408	32312	
1018	0	31456	29064	32220	
1019	0	31236	35520	32158	
1020	0	31160	37828	32068	
1021	0	31736	37055	31945	
1022	0	32708	34164	31831	
1023	0	32672	32141	31688	
1024	0	32944	32785	31565	
1025	0	33628	36724	31422	
1026	0	33877	36556	31328	
1027	0	33941	35640	31236	
1028	0	34062	31766	31156	
1029	0	33992	28640	31077	
1030	0	33380	28775	31000	
1031	0	32492	28000	30940	
1032	0	32116	23440	30896	
1033	0	31924	24452	30921	
1034	0	31908	31256	30884	
1035	0	31765	35788	30836	
1036	0	31900	39328	30770	
1037	0	32288	36996	30688	
1038	0	32388	40280	30560	
1039	0	32496	36090	30489	
1040	0	32500	30924	30454	
1041	0	32160	30738	30500	
1042	0	32620	33877	30646	
1043	0	33369	28642	30824	
1044	0	33888	22668	31008	
1045	0	34484	28345	31268	
1046	0	34541	36016	31861	
1047	0	33676	41892	32992	
1048	0	33016	41988	34537	
1049	0	32916	34436	36108	
1050	0	33340	29116	37544	
1051	0	33489	29064	38854	
1052	0	32958	32709	39862	
1053	0	31936	31861	40416	
1054	0	31577	32484	40380	
1055	0	30264	35609	39792	
1056	0	30352	34080	38756	
1057	0	32476	33724	37428	
1058	0	32716	31147	35921	
1059	0	32728	27704	34230	
1060	0	32873	27525	32700	
1061	0	33200	27444	31492	
1062	0	33356	26024	30621	
1063	0	33480	22340	30168	
1064	0	33364	23892	30063	
1065	0	33340	34336	30288	
1066	0	33528	46594	30784	
1067	0	33612	50372	31456	
1068	0	33565	50133	32220	
1069	0	33632	42064	32960	
1070	0	33380	29625	33552	
1071	0	32584	32480	34008	
1072	0	32124	33398	34261	
1073	0	32212	33125	34296	
1074	0	32520	31504	34148	
1075	0	32488	31040	33860	
1076	0	32112	29168	33540	
1077	0	32172	30596	33202	
1078	0	32144	33862	32942	
1079	0	31616	30400	32736	
1080	0	31676	27849	32628	
1081	0	32396	24517	32620	
1082	0	33125	23972	32676	
1083	0	33564	28152	32748	
1084	0	33964	23986	32832	
1085	0	33984	18322	32896	
1086	0	33945	24980	32916	
1087	0	33204	38136	32888	
1088	0	32788	49968	32852	
1089	0	32821	57960	32756	
1090	0	33588	52928	32656	
1091	0	33764	40157	32492	
1092	0	33268	36120	32340	
1093	0	32356	37004	32216	
1094	0	31310	30656	32113	
1095	0	31184	24776	32048	
1096	0	30705	25589	32000	
1097	0	30798	31184	31960	
1098	0	32465	35352	31946	
1099	0	34072	32852	31964	
1100	0	33041	25538	31964	
1101	0	33708	30846	31976	
1102	0	33878	36207	32012	
1103	0	33040	34822	32066	
1104	0	32566	32048	32104	
1105	0	32704	28580	32128	
1106	0	33404	22926	32128	
1107	0	33825	23202	32120	
1108	0	33493	26740	32094	
1109	0	32824	34876	32060	
1110	0	32956	43948	32008	
1111	0	32980	47953	31992	
1112	0	32764	43928	31950	
1113	0	32168	36857	31924	
1114	0	31208	30829	31910	
1115	0	30684	30094	31899	
1116	0	32108	31168	31870	
1117	0	32740	29348	31854	
1118	0	32744	26508	31816	
1119	0	32652	27313	31734	
1120	0	32576	31356	31688	
1121	0	32696	33092	31632	
1122	0	32816	33200	31567	
1123	0	33401	32148	31488	
1124	0	33434	31612	31404	
1125	0	33285	31676	31300	
1126	0	32960	29764	31239	
1127	0	32593	30984	31176	
1128	0	32044	33344	31111	
1129	0	31452	35696	31064	
1130	0	32353	35796	31048	
1131	0	33428	34114	31085	
1132	0	34052	34261	31128	
1133	0	35069	32336	31225	
1134	0	35284	34071	31306	
1135	0	34420	36233	31392	
1136	0	32361	31988	31428	
1137	0	31608	28180	31462	
1138	0	31758	31572	31476	
1139	0	31888	33860	31492	
1140	0	32128	33648	31472	
1141	0	32440	34796	31444	
1142	0	32756	37929	31414	
1143	0	33144	39816	31424	
1144	0	33117	34628	31497	
1145	0	32908	33468	31604	
1146	0	32952	33224	31677	
1147	0	32960	31323	31725	
1148	0	33044	31746	31751	
1149	0	33088	32336	31765	
1150	0	32979	32274	31800	
1151	0	32708	30092	31844	
1152	0	32422	32096	31865	
1153	0	32380	33820	31888	
1154	0	32257	37776	31908	
1155	0	32165	38972	31908	
1156	0	32040	30356	31912	
1157	0	32157	27589	31912	
1158	0	32264	32052	31904	
1159	0	32409	33548	31908	
1160	0	32628	34756	31900	
1161	0	32740	33248	31882	
1162	0	32922	32153	31864	
1163	0	33039	32142	31828	
1164	0	33140	33462	31808	
1165	0	33360	33668	31788	
1166	0	33472	32976	31777	
1167	0	33436	31533	31792	
1168	0	33284	30117	31798	
1169	0	33288	31984	31809	
1170	0	33256	32524	31812	
1171	0	33045	30180	31800	
1172	0	32861	32068	31801	
1173	0	32604	36320	31818	
1174	0	32380	36704	31824	
1175	0	32196	32818	31792	
1176	0	32096	33618	31752	
1177	0	32044	36694	31716	
1178	0	32160	34826	31684	
1179	0	32352	32336	31656	
1180	0	32528	29032	31636	
1181	0	32692	27972	31620	
1182	0	32846	33352	31600	
1183	0	33100	36124	31560	
1184	0	33204	40044	31488	
1185	0	33216	36896	31407	
1186	0	33456	31840	31311	
1187	0	33380	31069	31184	
1188	0	33016	32540	31089	
1189	0	33244	31072	30986	
1190	0	33045	30448	30894	
1191	0	33214	33068	30832	
1192	0	33201	35293	30784	
1193	0	32904	35798	30751	
1194	0	32621	33121	30712	
1195	0	32398	26388	30664	
1196	0	32224	30462	30628	
1197	0	31831	32821	30608	
1198	0	31372	32508	30596	
1199	0	31756	33504	30572	
1200	0	32420	32344	30538	
1201	0	32756	33008	30510	
1202	0	32640	35024	30505	
1203	0	32834	33991	30500	
1204	0	33248	34832	30476	
1205	0	33144	34524	30473	
1206	0	33756	32489	30455	
1207	0	34288	30634	30408	
1208	0	33364	28932	30368	
1209	0	33108	29366	30370	
1210	0	33076	33665	30330	
1211	0	32940	35876	30310	
1212	0	32824	34992	30284	
1213	0	32672	32504	30286	
1214	0	32182	33897	30276	
1215	0	31854	32180	30264	
1216	0	32072	32928	30268	
1217	0	32128	35253	30265	
1218	0	32308	34975	30281	
1219	0	32432	31692	30316	
1220	0	32596	28252	30336	
1221	0	32716	28448	30372	
1222	0	32852	34556	30412	
1223	0	32977	34488	30468	
1224	0	33268	32944	30484	
1225	0	33477	32788	30521	
1226	0	33184	31828	30532	
1227	0	32908	32625	30532	
1228	0	33060	32752	30521	
1229	0	33120	34940	30530	
1230	0	33156	34129	30520	
1231	0	33217	30137	30520	
1232	0	33392	29868	30546	
1233	0	32720	34119	30548	
1234	0	32410	34713	30561	
1235	0	32341	32592	30574	
1236	0	32124	33080	30620	
1237	0	32012	33118	30632	
1238	0	32200	31969	30657	
1239	0	32352	32424	30700	
1240	0	32536	31032	30824	
1241	0	32720	31836	30948	
1242	0	32844	32206	31056	
1243	0	33112	35336	31136	
1244	0	33252	34716	31200	
1245	0	33380	33042	31224	
1246	0	33261	34276	31252	
1247	0	33024	31104	31233	
1248	0	33108	29392	31252	
1249	0	32764	29720	31268	
1250	0	32320	30612	31270	
1251	0	32376	35532	31260	
1252	0	32732	35588	31297	
1253	0	32910	33838	31329	
1254	0	32716	31772	31352	
1255	0	33832	34667	31396	
1256	0	33200	36068	31440	
1257	0	32472	34432	31472	
1258	0	32321	30820	31476	
1259	0	32280	32292	31493	
1260	0	32256	34325	31516	
1261	0	32174	32200	31532	
1262	0	32572	30696	31542	
1263	0	33000	32153	31572	
1264	0	33144	32229	31604	
1265	0	33244	34581	31632	
1266	0	33204	33944	31648	
1267	0	33272	32378	31664	
1268	0	33168	32696	31688	
1269	0	33216	32668	31717	
1270	0	33088	33340	31737	
1271	0	32800	28939	31768	
1272	0	32656	28224	31764	
1273	0	32494	29753	31746	
1274	0	32428	34988	31716	
1275	0	32348	39716	31696	
1276	0	32212	36740	31655	
1277	0	32032	34412	31616	
1278	0	31982	33392	31584	
1279	0	32132	33209	31534	
1280	0	32096	33556	31542	
1281	0	32772	32740	31524	
1282	0	33372	32452	31505	
1283	0	33152	31202	31481	
1284	0	33220	29564	31453	
1285	0	33826	31312	31428	
1286	0	33980	33044	31396	
1287	0	33728	31668	31369	
1288	0	33288	34816	31308	
1289	0	32958	36734	31248	
1290	0	32940	37852	31196	
1291	0	33160	37580	31141	
1292	0	32752	35372	31090	
1293	0	32316	32612	31076	
1294	0	32180	32229	31057	
1295	0	32056	31956	31028	
1296	0	32172	29256	31012	
1297	0	32406	30252	30984	
1298	0	32389	31117	30974	
1299	0	32494	33932	30973	
1300	0	32489	32988	30946	
1301	0	32772	32216	30940	
1302	0	32884	31683	30924	
1303	0	33013	34224	30932	
1304	0	32868	35660	30924	
1305	0	32660	31106	30896	
1306	0	32920	30908	30857	
1307	0	33316	31485	30844	
1308	0	33396	34888	30826	
1309	0	33332	32568	30788	
1310	0	33160	32250	30804	
1311	0	32976	33516	30792	
1312	0	32740	32300	30796	
1313	0	32356	32508	30796	
1314	0	32328	32596	30800	
1315	0	32288	31022	30822	
1316	0	32220	30021	30829	
1317	0	32252	32736	30848	
1318	0	32380	35075	30872	
1319	0	32610	35372	30885	
1320	0	32620	33814	30887	
1321	0	32704	32874	30888	
1322	0	32856	33000	30912	
1323	0	33104	33648	30901	
1324	0	33436	34493	30868	
1325	0	33076	33654	30861	
1326	0	32876	31268	30860	
1327	0	32968	30703	30880	
1328	0	32954	31425	30872	
1329	0	32866	31596	30888	
1330	0	32970	33180	30918	
1331	0	33505	34018	30928	
1332	0	33316	31962	30941	
1333	0	32992	34054	30936	
1334	0	33300	33481	30960	
1335	0	32780	29184	30992	
1336	0	32240	34501	31020	
1337	0	31998	34704	31024	
1338	0	31824	35914	31026	
1339	0	31928	35404	31052	
1340	0	31812	32557	31064	
1341	0	31772	29484	31080	
1342	0	32072	34308	31088	
1343	0	32761	31468	31080	
1344	0	33336	32182	31084	
1345	0	34455	32984	31080	
1346	0	35052	32736	31082	
1347	0	34224	33817	31068	
1348	0	33381	30565	31058	
1349	0	32616	32274	31043	
1350	0	32854	32156	31034	
1351	0	32624	31212	31048	
1352	0	32644	32984	31045	
1353	0	32540	32312	31040	
1354	0	32172	33685	31059	
1355	0	32148	33157	31050	
1356	0	32037	34948	31072	
1357	0	32044	33780	31042	
1358	0	32240	31520	31033	
1359	0	32396	30535	31023	
1360	0	32540	33433	31006	
1361	0	32660	34399	31008	
1362	0	32836	31450	31010	
1363	0	33088	28600	31016	
1364	0	33248	30740	31000	
1365	0	33523	34148	31004	
1366	0	33460	33324	30989	
1367	0	33168	31792	30945	
1368	0	33232	32344	30917	
1369	0	33200	27196	30896	
1370	0	33058	27673	30884	
1371	0	32657	35928	30900	
1372	0	32448	44360	30912	
1373	0	32336	41492	30914	
1374	0	32480	36808	30932	
1375	0	32356	30016	30929	
1376	0	32264	29469	30933	
1377	0	32288	33072	30924	
1378	0	32408	35109	30952	
1379	0	32540	36764	30956	
1380	0	32632	36346	30980	
1381	0	32840	33464	30960	
1382	0	32996	32849	30975	
1383	0	33164	31144	30983	
1384	0	32872	29852	30982	
1385	0	32700	31601	31013	
1386	0	32808	31976	31034	
1387	0	32932	31631	31040	
1388	0	33112	31216	31062	
1389	0	33508	31204	31084	
1390	0	33968	32788	31104	
1391	0	33189	33334	31126	
1392	0	32688	32272	31132	
1393	0	32708	29930	31108	
1394	0	32812	30436	31082	
1395	0	32445	32328	31100	
1396	0	32236	32528	31133	
1397	0	32224	33036	31160	
1398	0	32304	34848	31168	
1399	0	32404	32304	31178	
1400	0	32448	30954	31198	
1401	0	32624	32720	31196	
1402	0	32776	31816	31165	
1403	0	32993	32516	31140	
1404	0	33048	33486	31140	
1405	0	33281	33270	31141	
1406	0	33164	32099	31155	
1407	0	33173	31604	31168	
1408	0	33092	34062	31152	
1409	0	33000	35207	31192	
1410	0	32620	33130	31201	
1411	0	32504	33028	31196	
1412	0	32756	34214	31164	
1413	0	33146	34486	31149	
1414	0	32894	32030	31111	
1415	0	32644	34261	31085	
1416	0	32488	32815	31045	
1417	0	32368	32440	31018	
1418	0	32204	28336	30996	
1419	0	32132	29904	30986	
1420	0	32288	31456	30997	
1421	0	32714	33223	31005	
1422	0	32944	33866	31016	
1423	0	32793	33012	31024	
1424	0	32750	35640	30998	
1425	0	32632	33412	30992	
1426	0	32926	34492	30962	
1427	0	33205	35652	30992	
1428	0	33920	33996	30942	
1429	0	33520	33317	30960	
1430	0	33186	31940	30972	
1431	0	33485	31989	30968	
1432	0	33188	31966	30972	
1433	0	32404	32532	30989	
1434	0	32236	32253	30991	
1435	0	32305	32408	31004	
1436	0	32208	33592	30992	
1437	0	32229	33112	30997	
1438	0	32296	32208	31004	
1439	0	32438	32597	30993	
1440	0	32612	32730	31004	
1441	0	32624	32519	30997	
1442	0	32564	30796	30996	
1443	0	32796	31874	30956	
1444	0	33072	31405	30947	
1445	0	33200	31732	30956	
1446	0	33500	31454	30957	
1447	0	33576	34952	30972	
1448	0	33482	35772	30959	
1449	0	33268	32788	30960	
1450	0	33032	30564	30966	
1451	0	32844	31372	30989	
1452	0	32632	32008	31006	
1453	0	32440	34172	31016	
1454	0	32268	34804	30997	
1455	0	32252	33900	31004	
1456	0	32121	35280	31024	
1457	0	32112	34657	31026	
1458	0	32046	33394	31021	
1459	0	32012	31544	31024	
1460	0	32220	29532	31005	
1461	0	32676	28472	31001	
1462	0	33344	31355	31008	
1463	0	33684	32732	31001	
1464	0	33636	36496	30988	
1465	0	34156	38973	30970	
1466	0	33532	35368	30972	
1467	0	33040	34608	30948	
1468	0	32948	33308	30918	
1469	0	32905	31356	30887	
1470	0	32937	30960	30865	
1471	0	32960	27492	30850	
1472	0	32676	28566	30860	
1473	0	32460	32780	30864	
1474	0	32304	32818	30858	
1475	0	32089	33097	30840	
1476	0	32064	32410	30839	
1477	0	32192	33765	30838	
1478	0	32316	37112	30821	
1479	0	32484	37612	30824	
1480	0	32633	34124	30829	
1481	0	32668	33639	30816	
1482	0	32621	31373	30826	
1483	0	32644	30265	30812	
1484	0	32980	30852	30832	
1485	0	32889	32769	30848	
1486	0	32996	34792	30865	
1487	0	34004	31508	30892	
1488	0	33940	34126	30906	
1489	0	33348	33301	30889	
1490	0	33300	31998	30900	
1491	0	33504	31021	30908	
1492	0	32920	33088	30916	
1493	0	32030	32272	30933	
1494	0	31744	31640	31189	
1495	0	32120	32737	31111	
1496	0	32384	33164	30700	
1497	0	32488	32900	30773	
1498	0	32380	34223	31060	
1499	0	32456	30948	31092	
1500	0	32580	28908	31016	
1501	0	32668	30717	30964	
1502	0	32708	35196	30960	
1503	0	32920	32884	30990	
1504	0	32992	35565	31040	
1505	0	33100	36532	31021	
1506	0	33372	35348	31020	
1507	0	33448	33956	30989	
1508	0	33296	32900	30981	
1509	0	33080	32856	30983	
1510	0	32941	30629	30980	
1511	0	32806	30501	30984	
1512	0	32708	31809	30992	
1513	0	32665	30575	31025	
1514	0	32620	33264	31040	
1515	0	32552	34880	31056	
1516	0	32334	35660	31062	
1517	0	32332	32732	31068	
1518	0	32252	32692	31072	
1519	0	32156	31742	31052	
1520	0	32477	32164	31048	
1521	0	32748	33252	31060	
1522	0	32748	33066	31076	
1523	0	32936	31900	31087	
1524	0	33104	32740	31057	
1525	0	32957	33700	31040	
1526	0	32676	33472	31012	
1527	0	32774	33125	31016	
1528	0	33114	32516	31024	
1529	0	33276	32029	31046	
1530	0	33604	31404	31052	
1531	0	34288	32264	31060	
1532	0	33465	32284	31044	
1533	0	32528	32846	31044	
1534	0	32196	32795	31072	
1535	0	32176	34248	31076	
1536	0	32012	31698	31077	
1537	0	32096	31012	31088	
1538	0	32204	30696	31077	
1539	0	32476	32024	31064	
1540	0	32788	34586	31028	
1541	0	33000	35239	31032	
1542	0	33300	33444	31034	
1543	0	33020	33359	31028	
1544	0	32488	32921	31017	
1545	0	32180	33217	31017	
1546	0	32352	33216	31016	
1547	0	32904	32824	30997	
1548	0	33184	31732	30980	
1549	0	34272	31751	30980	
1550	0	33668	30800	30980	
1551	0	33604	29809	30983	
1552	0	32901	34181	30984	
1553	0	32368	34000	30972	
1554	0	32368	33040	30976	
1555	0	32168	34950	30976	
1556	0	32116	33848	30988	
1557	0	32133	33676	30994	
1558	0	32240	31245	30985	
1559	0	32377	32129	30961	
1560	0	32600	34044	30976	
1561	0	32693	32420	30977	
1562	0	32780	35024	30980	
1563	0	33048	33833	30968	
1564	0	33205	30980	30944	
1565	0	33136	30772	30937	
1566	0	33112	32336	30928	
1567	0	33212	34500	30912	
1568	0	33324	35754	30921	
1569	0	33212	33784	30925	
1570	0	33077	33181	30937	
1571	0	32660	32336	30944	
1572	0	32526	28608	30946	
1573	0	32468	32520	30960	
1574	0	32216	33768	30960	
1575	0	32320	34928	30980	
1576	0	32972	34704	30980	
1577	0	32524	31584	30980	
1578	0	32249	31876	30960	
1579	0	32285	32208	30933	
1580	0	32578	31577	30953	
1581	0	32614	32613	30948	
1582	0	32596	32372	30925	
1583	0	32804	33610	30920	
1584	0	33278	31712	30913	
1585	0	33788	30744	30932	
1586	0	33601	35740	30933	
1587	0	33356	34976	30928	
1588	0	33148	29588	30912	
1589	0	32950	29988	30916	
1590	0	32740	33216	30912	
1591	0	32508	35125	30916	
1592	0	32350	34324	30922	
1593	0	32304	33616	30916	
1594	0	32280	32688	30920	
1595	0	31860	33765	30936	
1596	0	32040	31576	30920	
1597	0	32906	31157	30908	
1598	0	33280	30372	30904	
1599	0	33784	31760	30880	
1600	0	34008	32116	30852	
1601	0	33936	33316	30837	
1602	0	33024	35696	30832	
1603	0	32192	33453	30824	
1604	0	32436	35264	30788	
1605	0	32692	35900	30773	
1606	0	32820	34584	30758	
1607	0	32832	32172	30740	
1608	0	32896	32716	30701	
1609	0	33052	30791	30704	
1610	0	33116	31668	30722	
1611	0	33124	31336	30720	
1612	0	32720	30596	30730	
1613	0	32377	31020	30754	
1614	0	32164	32854	30772	
1615	0	31924	33086	30790	
1616	0	31908	31592	30800	
1617	0	32234	33448	30809	
1618	0	32312	35389	30804	
1619	0	32385	33228	30792	
1620	0	32536	33048	30791	
1621	0	32713	34573	30804	
1622	0	32868	34814	30833	
1623	0	33060	33700	30836	
1624	0	33204	30420	30837	
1625	0	33360	30172	30850	
1626	0	33348	32088	30864	
1627	0	33256	32844	30880	
1628	0	33374	34160	30892	
1629	0	33413	33121	30889	
1630	0	33189	32992	30886	
1631	0	32828	32604	30878	
1632	0	32608	32383	30900	
1633	0	32580	33445	30928	
1634	0	32420	35101	30956	
1635	0	32257	34688	30972	
1636	0	32360	33136	30981	
1637	0	32545	32192	30988	
1638	0	32516	31572	30973	
1639	0	32312	31844	30969	
1640	0	32236	32900	30992	
1641	0	32436	33422	31001	
1642	0	32576	33671	31024	
1643	0	32724	32564	31012	
1644	0	33068	31341	31016	
1645	0	33160	32068	31005	
1646	0	33309	29940	31029	
1647	0	33365	33072	31024	
1648	0	33709	33700	31032	
1649	0	33380	32149	31033	
1650	0	33084	33568	31044	
1651	0	32628	35500	31068	
1652	0	32736	35620	31064	
1653	0	32204	35388	31080	
1654	0	31806	32344	31094	
1655	0	32524	31076	31094	
1656	0	32404	30889	31092	
1657	0	32285	33920	31104	
1658	0	34000	33948	31140	
1659	0	33252	31953	31160	
1660	0	32732	28140	31140	
1661	0	32508	32225	31144	
1662	0	32689	33812	31146	
1663	0	32744	32992	31133	
1664	0	32824	32084	31152	
1665	0	32896	29364	31168	
1666	0	32956	30484	31157	
1667	0	33020	37428	31140	
1668	0	32713	37095	31128	
1669	0	32968	34860	31118	
1670	0	33117	30872	31117	
1671	0	33158	32724	31097	
1672	0	33068	34116	31089	
1673	0	32824	32816	31082	
1674	0	32616	31460	31076	
1675	0	32468	31020	31076	
1676	0	32112	29909	31062	
1677	0	32144	34688	31088	
1678	0	32272	35150	31088	
1679	0	32353	34690	31085	
1680	0	32458	32728	31084	
1681	0	32576	30212	31105	
1682	0	32772	32093	31078	
1683	0	32982	32286	31060	
1684	0	32968	33317	31052	
1685	0	33120	35184	31044	
1686	0	33412	35064	31040	
1687	0	33480	33304	31028	
1688	0	33276	30550	31020	
1689	0	33436	32864	31016	
1690	0	33264	31822	30988	
1691	0	32788	33564	30982	
1692	0	32586	33388	30994	
1693	0	32600	32104	31012	
1694	0	32484	28820	30992	
1695	0	32292	28857	31009	
1696	0	32220	34096	30992	
1697	0	32169	36022	30977	
1698	0	32138	35685	30976	
1699	0	32292	33700	30960	
1700	0	32516	32568	30960	
1701	0	32613	33132	30944	
1702	0	32856	35004	30927	
1703	0	32972	33168	30934	
1704	0	32946	32450	30950	
1705	0	32984	31156	30960	
1706	0	33576	30740	30968	
1707	0	33892	29856	30972	
1708	0	33348	35109	30956	
1709	0	33472	34140	30968	
1710	0	33549	34900	30950	
1711	0	32748	35617	30968	
1712	0	31748	30564	30936	
1713	0	31404	27606	30926	
1714	0	31504	30964	30906	
1715	0	32068	33148	30885	
1716	0	33336	34712	30884	
1717	0	34032	34034	30874	
1718	0	33504	35137	30864	
1719	0	33060	35529	30850	
1720	0	32488	33124	30836	
1721	0	32344	31775	30836	
1722	0	32500	31952	30830	
1723	0	32677	32666	30841	
1724	0	32868	32872	30797	
1725	0	32888	33168	30812	
1726	0	33052	34201	30824	
1727	0	33132	33966	30849	
1728	0	33249	33372	30840	
1729	0	33048	30688	30850	
1730	0	33040	29536	30873	
1731	0	32932	29058	30876	
1732	0	32656	30026	30887	
1733	0	32436	33433	30896	
1734	0	32301	35520	30905	
1735	0	32420	35366	30912	
1736	0	32240	33428	30908	
1737	0	31984	32821	30893	
1738	0	31840	32216	30895	
1739	0	31566	32324	30872	
1740	0	31936	34750	30855	
1741	0	31820	34745	30825	
1742	0	32960	32532	30811	
1743	0	33938	31736	30805	
1744	0	34484	31734	30794	
1745	0	34918	32576	30792	
1746	0	35264	32263	30784	
1747	0	34488	33665	30760	
1748	0	32816	32024	30741	
1749	0	32358	30208	30748	
1750	0	32085	36162	30762	
1751	0	31873	34212	30760	
1752	0	31928	33828	30792	
1753	0	32756	32610	30832	
1754	0	32960	31708	30853	
1755	0	32640	33272	30901	
1756	0	32557	34024	30920	
1757	0	32368	33765	30920	
1758	0	32134	31556	30901	
1759	0	32160	30069	30869	
1760	0	32232	30092	30856	
1761	0	32482	32933	30841	
1762	0	32648	33697	30808	
1763	0	32776	31124	30796	
1764	0	33048	30684	30836	
1765	0	33336	34576	30873	
1766	0	33464	33097	30904	
1767	0	33568	35183	30916	
1768	0	33484	31097	30932	
1769	0	32997	31616	30958	
1770	0	32800	35552	30980	
1771	0	32848	35324	30994	
1772	0	32893	34712	31008	
1773	0	32588	35142	31012	
1774	0	32112	35284	31028	
1775	0	31880	34220	31032	
1776	0	31881	30996	31004	
1777	0	32040	31222	31015	
1778	0	32540	32320	31016	
1779	0	33412	32752	31012	
1780	0	32132	32200	31015	
1781	0	31684	31428	31028	
1782	0	31783	32012	31008	
1783	0	32364	32385	30978	
1784	0	33377	32441	30977	
1785	0	34308	32832	30957	
1786	0	34820	33016	30964	
1787	0	34823	32630	30952	
1788	0	34584	33048	30975	
1789	0	32744	32892	30976	
1790	0	32388	32946	30983	
1791	0	33528	33792	30976	
1792	0	32666	31780	30988	
1793	0	32104	31456	30969	
1794	0	32228	34216	30984	
1795	0	32404	36436	30970	
1796	0	32060	31077	30984	
1797	0	31810	29600	30992	
1798	0	31810	36092	31020	
1799	0	31688	33864	31025	
1800	0	31964	32044	31038	
1801	0	32241	32837	31068	
1802	0	32940	32108	31084	
1803	0	33676	33244	31085	
1804	0	34048	34941	31088	
1805	0	33696	33092	31085	
1806	0	33478	32953	31040	
1807	0	33290	32152	31056	
1808	0	33184	32096	31040	
1809	0	33069	33606	31044	
1810	0	33076	31808	31032	
1811	0	33084	30846	31036	
1812	0	32852	29036	31012	
1813	0	32384	30692	31009	
1814	0	31918	35720	31000	
1815	0	32140	37516	31012	
1816	0	32158	33348	31013	
1817	0	31992	32852	31010	
1818	0	32064	32848	31024	
1819	0	32164	31157	31008	
1820	0	32556	32200	30996	
1821	0	32836	34296	31009	
1822	0	33168	34047	31032	
1823	0	33272	32733	31049	
1824	0	33232	31140	31058	
1825	0	33432	30549	31052	
1826	0	33354	30974	31044	
1827	0	33328	31572	31048	
1828	0	33272	35765	31038	
1829	0	33068	35838	31044	
1830	0	33012	35408	31022	
1831	0	32904	33524	31020	
1832	0	32640	32544	31029	
1833	0	32538	32481	31024	
1834	0	32476	34368	31029	
1835	0	32388	34952	31020	
1836	0	32290	33510	31028	
1837	0	32010	32748	31012	
1838	0	32052	30405	31020	
1839	0	31856	31164	31000	
1840	0	31848	33532	30987	
1841	0	31980	34570	30984	
1842	0	32680	28576	30980	
1843	0	34704	30572	30972	
1844	0	34512	34344	30964	
1845	0	33164	32680	30960	
1846	0	32828	32070	30950	
1847	0	32896	33716	30952	
1848	0	33096	32542	30950	
1849	0	33517	30192	30952	
1850	0	33381	33006	30952	
1851	0	33172	36690	30969	
1852	0	32933	34152	30952	
1853	0	32604	30956	30960	
1854	0	32172	30106	30964	
1855	0	32736	33604	30976	
1856	0	32346	35401	30972	
1857	0	31988	32509	30976	
1858	0	31946	33026	30968	
1859	0	32048	34188	30984	
1860	0	32348	35356	31001	
1861	0	32584	32648	31004	
1862	0	32904	31432	30990	
1863	0	33201	32044	31014	
1864	0	33088	30648	30998	
1865	0	32820	32736	30978	
1866	0	32404	32889	31000	
1867	0	32273	31880	31013	
1868	0	32344	30968	31012	
1869	0	32688	32112	30978	
1870	0	33712	36782	30952	
1871	0	34412	35262	30954	
1872	0	34277	32172	30942	
1873	0	33956	31241	30944	
1874	0	33732	31908	30960	
1875	0	32160	31925	30949	
1876	0	31784	31708	30958	
1877	0	31848	32177	30948	
1878	0	31701	31480	30944	
1879	0	31848	31189	30956	
1880	0	32144	33444	30968	
1881	0	33168	34389	30964	
1882	0	33152	33860	30980	
1883	0	32908	34468	30972	
1884	0	33068	32628	30992	
1885	0	33012	31044	31005	
1886	0	32765	32692	30988	
1887	0	32752	32190	30974	
1888	0	32624	33508	30970	
1889	0	32408	31836	30976	
1890	0	32373	31296	30968	
1891	0	32788	29957	30964	
1892	0	33512	37208	30972	
1893	0	34052	34912	30938	
1894	0	34656	33901	30943	
1895	0	33084	32984	30933	
1896	0	32048	32555	30912	
1897	0	31602	33076	30887	
1898	0	31751	33287	30870	
1899	0	32048	32196	30896	
1900	0	32208	32536	30896	
1901	0	32428	33348	30884	
1902	0	32600	29578	30884	
1903	0	32857	33892	30916	
1904	0	32996	33711	30944	
1905	0	33156	31464	30941	
1906	0	33320	31876	30924	
1907	0	33264	33041	30936	
1908	0	33144	31342	30944	
1909	0	33072	34544	30948	
1910	0	33024	33161	30964	
1911	0	32828	32230	30956	
1912	0	33260	32577	30952	
1913	0	33060	33232	30952	
1914	0	32310	33693	30958	
1915	0	31904	33208	30968	
1916	0	31630	32900	30976	
1917	0	31256	32245	30982	
1918	0	32428	32203	30985	
1919	0	33401	32344	31001	
1920	0	33924	31524	31009	
1921	0	33536	32129	31017	
1922	0	32945	33332	31024	
1923	0	32868	33372	31032	
1924	0	32801	30006	31008	
1925	0	32988	32056	31016	
1926	0	33124	36516	31004	
1927	0	33172	35512	30996	
1928	0	32997	31420	30992	
1929	0	33164	27798	30982	
1930	0	33158	32876	30976	
1931	0	32989	38496	30984	
1932	0	32704	38016	30992	
1933	0	32500	32056	30993	
1934	0	32224	32532	30996	
1935	0	32184	32994	31012	
1936	0	32100	33160	31020	
1937	0	32248	29277	31020	
1938	0	32484	31856	31014	
1939	0	32268	32193	31008	
1940	0	31917	32804	31020	
1941	0	31896	32828	31034	
1942	0	31876	32268	31040	
1943	0	31914	34024	31029	
1944	0	33064	32746	31024	
1945	0	34724	31668	31012	
1946	0	34676	31808	30996	
1947	0	34860	32952	30992	
1948	0	34942	33644	30980	
1949	0	33788	33365	30984	
1950	0	32481	31104	30986	
1951	0	32580	31509	30972	
1952	0	32588	33281	30983	
1953	0	32480	33977	30976	
1954	0	32244	33733	30976	
1955	0	32040	33484	30980	
1956	0	32060	33120	31004	
1957	0	31696	30464	31012	
1958	0	31554	31072	31008	
1959	0	31896	36424	31012	
1960	0	32202	36701	31012	
1961	0	32632	33136	30980	
1962	0	33964	33409	30969	
1963	0	33796	31304	30964	
1964	0	33028	32826	30970	
1965	0	32820	31580	30952	
1966	0	32984	31540	30940	
1967	0	33201	30856	30961	
1968	0	33260	30687	30956	
1969	0	33053	31908	30960	
1970	0	32972	34559	30951	
1971	0	32742	33702	30954	
1972	0	32960	33020	30952	
1973	0	32760	31381	30940	
1974	0	32908	32416	30934	
1975	0	32588	36386	30928	
1976	0	31929	34631	30942	
1977	0	31848	33159	30932	
1978	0	32096	32341	30945	
1979	0	32312	32981	30933	
1980	0	32498	34216	30952	
1981	0	32657	29416	30964	
1982	0	32820	26720	30986	
1983	0	32944	29844	30969	
1984	0	33160	37592	30988	
1985	0	33240	36676	31013	
1986	0	33428	36849	31013	
1987	0	33388	34472	31016	
1988	0	33120	31252	31040	
1989	0	32737	32422	31044	
1990	0	32408	31776	31056	
1991	0	32350	31921	31040	
1992	0	32460	32958	31048	
1993	0	32668	32746	31037	
1994	0	33848	32212	31030	
1995	0	33737	32100	31024	
1996	0	32860	34310	31022	
1997	0	32592	34285	31024	
1998	0	32122	31592	31032	
1999	0	31892	32225	31037	
2000	0	32068	31040	31048	
2001	0	32540	31128	31042	
2002	0	32872	32728	31032	
2003	0	33064	33437	31040	
2004	0	33039	34724	31036	
2005	0	33048	33616	31036	
2006	0	33298	32641	31048	
2007	0	33480	32665	31064	
2008	0	33200	32284	31064	
2009	0	33035	33935	31080	
2010	0	32776	31549	31076	
2011	0	32728	29696	31084	
2012	0	33304	32410	31106	
2013	0	32800	33128	31108	
2014	0	32432	35100	31101	
2015	0	32518	34800	31116	
2016	0	31868	34024	31140	
2017	0	31404	31270	31110	
2018	0	31432	32128	31099	
2019	0	31633	31520	31084	
2020	0	31692	36016	31064	
2021	0	32796	34264	31064	
2022	0	33785	32026	31073	
2023	0	33889	31920	31056	
2024	0	34348	33092	31028	
2025	0	34921	32556	31024	
2026	0	34954	32128	31020	
2027	0	33660	31365	31016	
2028	0	32801	32154	31020	
2029	0	32784	33127	31012	
2030	0	32599	33406	31020	
2031	0	32468	33548	31040	
2032	0	32408	33125	31041	
2033	0	32122	31244	31040	
2034	0	32061	27621	31034	
2035	0	32084	29790	31045	
2036	0	31996	33700	31044	
2037	0	31976	37764	31054	
2038	0	32230	33208	31062	
2039	0	32325	35552	31032	
2040	0	32461	36316	31014	
2041	0	32612	34744	31004	
2042	0	32716	33614	30976	
2043	0	32852	33206	30980	
2044	0	33036	34652	30976	
2045	0	33164	32756	30989	
2046	0	33238	31158	31005	
2047	0	33304	32548	31010	
2048	0	33156	29654	30984	
2049	0	33220	30082	30996	
2050	0	33136	32084	31000	
2051	0	32900	31770	31004	
2052	0	32736	34428	30996	
2053	0	32561	32532	31004	
2054	0	32176	34053	31004	
2055	0	33168	34485	31008	
2056	0	33264	33380	31009	
2057	0	32232	33900	31029	
2058	0	32824	32440	31032	
2059	0	32732	32602	31032	
2060	0	31888	32012	31026	
2061	0	32020	30234	31012	
2062	0	32496	32048	31008	
2063	0	32900	32925	31000	
2064	0	33164	32564	31008	
2065	0	33644	32632	31012	
2066	0	33620	33456	31008	
2067	0	33240	32104	31008	
2068	0	33120	30653	31016	
2069	0	33124	32022	31028	
2070	0	33032	36494	31028	
2071	0	32976	35729	31028	
2072	0	32536	33245	31048	
2073	0	32396	32177	31052	
2074	0	32224	32520	31066	
2075	0	32104	29428	31078	
2076	0	32036	30181	31056	
2077	0	32728	33200	31077	
2078	0	32612	35028	31089	
2079	0	32399	35025	31057	
2080	0	32496	32814	31045	
2081	0	32752	32684	31049	
2082	0	33036	33576	31040	
2083	0	32968	33016	31032	
2084	0	32868	35078	31058	
2085	0	32936	34704	31063	
2086	0	32940	30584	31060	
2087	0	33182	33676	31048	
2088	0	33300	32916	31040	
2089	0	33208	32620	31040	
2090	0	33980	33028	31040	
2091	0	33310	31596	31060	
2092	0	32720	32272	31076	
2093	0	32572	33502	31092	
2094	0	32436	32146	31100	
2095	0	32256	26428	31086	
2096	0	32065	29020	31076	
2097	0	32218	38436	31060	
2098	0	32319	35940	31076	
2099	0	32408	33517	31088	
2100	0	32136	34071	31088	
2101	0	31712	35184	31105	
2102	0	31508	34032	31084	
2103	0	31824	32054	31072	
2104	0	32776	31808	31092	
2105	0	33936	32208	31092	
2106	0	34616	32082	31084	
2107	0	35132	33933	31072	
2108	0	35144	32512	31076	
2109	0	33864	32160	31068	
2110	0	32620	34128	31065	
2111	0	32528	32180	31055	
2112	0	32460	33548	31065	
2113	0	32407	31868	31082	
2114	0	32492	30674	31087	
2115	0	32608	33880	31092	
2116	0	32536	34420	31092	
2117	0	31982	33356	31079	
2118	0	31908	31488	31082	
2119	0	31712	28137	31070	
2120	0	31628	30470	31052	
2121	0	32437	32532	31024	
2122	0	32782	34792	31020	
2123	0	32992	31400	31008	
2124	0	33314	33088	31004	
2125	0	33526	33508	31008	
2126	0	33525	32004	30996	
2127	0	33260	33736	31008	
2128	0	33050	32036	31004	
2129	0	32900	33868	30998	
2130	0	33457	35389	30997	
2131	0	33377	33672	31008	
2132	0	32684	32973	30998	
2133	0	32258	30756	31015	
2134	0	32044	34908	31032	
2135	0	32844	35756	31014	
2136	0	32208	34912	31013	
2137	0	32580	29442	31002	
2138	0	32708	31725	31020	
2139	0	32196	34508	31028	
2140	0	32200	33072	31020	
2141	0	32540	32933	31022	
2142	0	32680	34725	31014	
2143	0	32880	33148	31037	
2144	0	33182	30380	31041	
2145	0	33234	31364	31022	
2146	0	33504	32244	31020	
2147	0	33417	32036	31009	
2148	0	33040	32212	31000	
2149	0	32780	32829	30996	
2150	0	32796	33266	31012	
2151	0	32885	31818	31020	
2152	0	32692	30880	31020	
2153	0	33592	31949	31033	
2154	0	33400	34604	31021	
2155	0	32228	34388	31023	
2156	0	31864	33460	31026	
2157	0	31900	33968	31044	
2158	0	32180	32092	31032	
2159	0	32440	32232	31028	
2160	0	32486	34692	31017	
2161	0	32700	32540	31021	
2162	0	32748	31728	31010	
2163	0	32844	31654	31014	
2164	0	33112	31636	31004	
2165	0	33142	32052	30998	
2166	0	33329	33054	31000	
2167	0	33850	33057	30984	
2168	0	33492	33876	31000	
2169	0	33401	32770	31009	
2170	0	33040	33255	31020	
2171	0	32608	31932	31022	
2172	0	32668	29246	31020	
2173	0	32452	31057	31024	
2174	0	32424	34858	31020	
2175	0	32584	36829	31044	
2176	0	32560	35960	31064	
2177	0	32156	32900	31054	
2178	0	32072	32636	31068	
2179	0	32273	33012	31076	
2180	0	32336	32832	31076	
2181	0	32538	32230	31065	
2182	0	32785	33469	31077	
2183	0	32884	32100	31064	
2184	0	33140	30968	31069	
2185	0	33236	31622	31078	
2186	0	33260	31380	31073	
2187	0	33368	35130	31060	
2188	0	33360	33676	31072	
2189	0	33270	31716	31080	
2190	0	33216	32670	31072	
2191	0	32988	29652	31076	
2192	0	32832	33085	31061	
2193	0	32724	36752	31052	
2194	0	32385	34197	31066	
2195	0	32048	33617	31061	
2196	0	31972	32142	31080	
2197	0	31792	33477	31072	
2198	0	31812	32208	31068	
2199	0	32442	32864	31056	
2200	0	33356	34252	31044	
2201	0	33956	32724	31040	
2202	0	32577	31704	31064	
2203	0	32424	31217	31063	
2204	0	32325	31588	31056	
2205	0	32240	32284	31026	
2206	0	32120	33517	31024	
2207	0	33272	34162	31024	
2208	0	34392	33140	31004	
2209	0	34652	32353	31026	
2210	0	34541	31982	31009	
2211	0	34352	33856	31001	
2212	0	32444	33844	30998	
2213	0	31654	33756	31008	
2214	0	31768	34060	31000	
2215	0	32096	33444	30999	
2216	0	33317	29776	31004	
2217	0	33112	29871	31026	
2218	0	32320	30445	31012	
2219	0	31958	34588	31024	
2220	0	32016	34008	31024	
2221	0	32101	33410	31016	
2222	0	32140	33777	31044	
2223	0	32492	35172	31024	
2224	0	32816	35554	31013	
2225	0	33392	31494	31014	
2226	0	33884	30080	31016	
2227	0	34018	32081	30996	
2228	0	33636	32548	30988	
2229	0	33188	30472	30972	
2230	0	32844	33236	30980	
2231	0	32641	34832	30970	
2232	0	32504	33525	30972	
2233	0	32464	32820	30993	
2234	0	32420	32779	31000	
2235	0	32454	29612	31012	
2236	0	32392	31202	31032	
2237	0	32156	33364	31037	
2238	0	32052	32828	31028	
2239	0	32008	35604	31040	
2240	0	32208	34852	31053	
2241	0	32592	34204	31044	
2242	0	32765	31868	31029	
2243	0	33216	31252	31038	
2244	0	33652	32239	31049	
2245	0	33476	35143	31084	
2246	0	33128	33684	31075	
2247	0	33208	32241	31068	
2248	0	33232	33456	31080	
2249	0	33320	31950	31076	
2250	0	33226	31772	31068	
2251	0	33056	31864	31066	
2252	0	32772	31377	31066	
2253	0	32636	31905	31072	
2254	0	32464	33428	31066	
2255	0	32258	33188	31054	
2256	0	32141	33704	31048	
2257	0	32112	33721	31060	
2258	0	32240	32844	31053	
2259	0	32328	32762	31068	
2260	0	32468	33576	31076	
2261	0	32616	33085	31076	
2262	0	32766	32596	31082	
2263	0	32940	31230	31089	
2264	0	33066	33273	31098	
2265	0	33016	33832	31100	
2266	0	33100	32959	31092	
2267	0	33124	33122	31084	
2268	0	33321	31968	31074	
2269	0	33898	32456	31072	
2270	0	33612	34276	31064	
2271	0	32712	32012	31061	
2272	0	32353	30852	31073	
2273	0	32588	32116	31060	
2274	0	33372	34358	31064	
2275	0	32649	32396	31042	
2276	0	32472	30608	31037	
2277	0	32156	29510	31023	
2278	0	32288	33812	31033	
2279	0	32452	35616	31036	
2280	0	32437	35397	31054	
2281	0	32380	33846	31044	
2282	0	32572	34508	31024	
2283	0	32676	30816	31024	
2284	0	32800	27433	31020	
2285	0	32524	35013	31008	
2286	0	32588	38124	31012	
2287	0	32873	31253	31008	
2288	0	33244	30132	31010	
2289	0	33932	31596	30992	
2290	0	34920	29984	31018	
2291	0	33760	34340	31028	
2292	0	32762	37668	31038	
2293	0	32334	33648	31024	
2294	0	32196	31532	31046	
2295	0	32313	33172	31068	
2296	0	32388	32868	31072	
2297	0	32461	33223	31056	
2298	0	32357	33356	31064	
2299	0	32080	33792	31052	
2300	0	31408	34212	31049	
2301	0	31324	32900	31028	
2302	0	31632	30744	31004	
2303	0	32556	30562	30997	
2304	0	33652	32412	30998	
2305	0	34352	32496	30994	
2306	0	34853	32528	31000	
2307	0	35136	31796	30996	
2308	0	34209	31493	30989	
2309	0	32788	34652	31014	
2310	0	32676	35132	31014	
2311	0	32676	33788	30993	
2312	0	32548	33028	31014	
2313	0	32404	32148	31006	
2314	0	31980	31970	31032	
2315	0	32040	33072	31028	
2316	0	32113	32724	31020	
2317	0	32185	32285	31040	
2318	0	32478	33953	31032	
2319	0	32552	32824	31044	
2320	0	32208	32664	31042	
2321	0	32170	32652	31067	
2322	0	32440	32918	31057	
2323	0	32780	33721	31033	
2324	0	33112	34072	31023	
2325	0	33364	31920	31017	
2326	0	33441	31828	31015	
2327	0	33336	32580	31020	
2328	0	33273	32412	31016	
2329	0	32976	34844	31023	
2330	0	33056	32488	31020	
2331	0	33052	29368	31008	
2332	0	33052	33028	31036	
2333	0	33092	34116	31060	
2334	0	32484	33488	31092	
2335	0	31998	32192	31108	
2336	0	31616	33154	31092	
2337	0	31712	33020	31109	
2338	0	32160	32688	31118	
2339	0	32741	33936	31124	
2340	0	33532	31946	31120	
2341	0	32992	32580	31120	
2342	0	32800	32200	31135	
2343	0	32751	31824	31134	
2344	0	32805	31306	31116	
2345	0	33084	30504	31132	
2346	0	33432	32108	31132	
2347	0	32868	36136	31126	
2348	0	32888	35512	31144	
2349	0	33389	34182	31129	
2350	0	33749	32844	31142	
2351	0	33674	33549	31161	
2352	0	33380	31322	31161	
2353	0	32409	32092	31164	
2354	0	32492	33237	31160	
2355	0	32685	34500	31160	
2356	0	32327	35024	31158	
2357	0	32164	33085	31145	
2358	0	32028	32966	31152	
2359	0	31800	32176	31148	
2360	0	32020	32732	31140	
2361	0	32226	32932	31151	
2362	0	32684	30520	31133	
2363	0	32920	31260	31118	
2364	0	33168	32785	31112	
2365	0	33276	33296	31100	
2366	0	33576	33266	31092	
2367	0	33612	33260	31092	
2368	0	33344	33029	31076	
2369	0	33232	32528	31077	
2370	0	33156	29297	31066	
2371	0	33032	33920	31072	
2372	0	32752	34823	31068	
2373	0	32665	33477	31056	
2374	0	32489	33284	31056	
2375	0	32332	32216	31044	
2376	0	32325	32156	31022	
2377	0	32008	33060	31012	
2378	0	31733	34044	31008	
2379	0	31676	33108	31010	
2380	0	31440	32672	30997	
2381	0	31388	31712	30992	
2382	0	32100	32666	31024	
2383	0	33356	32364	31004	
2384	0	34248	32369	30997	
2385	0	34780	32566	30996	
2386	0	35164	33113	31020	
2387	0	34870	34986	31020	
2388	0	32872	30929	31008	
2389	0	32068	34489	31000	
2390	0	32310	35468	31032	
2391	0	32528	32404	31017	
2392	0	33148	30014	31024	
2393	0	33924	28957	31021	
2394	0	33100	34172	31016	
2395	0	32540	32153	31022	
2396	0	31912	32772	31012	
2397	0	31854	33812	31004	
2398	0	31892	32708	30998	
2399	0	31956	35664	30977	
2400	0	32128	34205	30984	
2401	0	32376	29126	30988	
2402	0	32548	31660	30987	
2403	0	32648	33845	30993	
2404	0	32934	33940	30984	
2405	0	32948	33652	30964	
2406	0	32780	33084	30960	
2407	0	32884	31598	30944	
2408	0	33074	30502	30948	
2409	0	33420	30716	30952	
2410	0	34588	32903	30964	
2411	0	33688	33836	30980	
2412	0	32996	34037	30988	
2413	0	32392	34278	31009	
2414	0	32004	34632	31008	
2415	0	32220	33172	31009	
2416	0	32268	31549	31033	
2417	0	32644	32488	31025	
2418	0	32940	36248	31028	
2419	0	32356	35377	31042	
2420	0	32064	33816	31050	
2421	0	32208	32206	31032	
2422	0	32704	31628	31032	
2423	0	33050	31008	31001	
2424	0	32996	30464	30985	
2425	0	33392	31376	31012	
2426	0	33417	32812	31021	
2427	0	33292	33097	31032	
2428	0	33136	33944	31040	
2429	0	33173	33692	31048	
2430	0	33204	32949	31060	
2431	0	33037	31272	31057	
2432	0	32728	34388	31056	
2433	0	32556	31424	31046	
2434	0	32112	32284	31030	
2435	0	31937	33548	31040	
2436	0	31980	30366	31037	
2437	0	32120	36392	31020	
2438	0	32120	33504	31004	
2439	0	32920	31112	31000	
2440	0	33200	32492	31024	
2441	0	32780	29689	31004	
2442	0	32545	33602	30994	
2443	0	32824	33433	30992	
2444	0	33097	32908	30992	
2445	0	33328	33217	30993	
2446	0	33412	33145	30976	
2447	0	33414	32394	30982	
2448	0	33312	31157	30978	
2449	0	33122	32457	30969	
2450	0	32868	32633	30991	
2451	0	33190	32428	30984	
2452	0	33160	35180	30996	
2453	0	32972	36093	30997	
2454	0	33092	32916	31020	
2455	0	32245	33877	31018	
2456	0	31776	33147	31020	
2457	0	31780	33124	31014	
2458	0	32008	32912	31018	
2459	0	32196	34129	31012	
2460	0	32372	33000	30996	
2461	0	32432	32316	31030	
2462	0	32700	30524	31052	
2463	0	33032	30530	31062	
2464	0	33021	33777	31064	
2465	0	32957	30586	31068	
2466	0	32685	31480	31053	
2467	0	32388	30484	31054	
2468	0	32504	31106	31062	
2469	0	32860	35024	31052	
2470	0	33696	35348	31072	
2471	0	34232	35402	31072	
2472	0	34308	33452	31085	
2473	0	34372	32824	31078	
2474	0	33780	33053	31080	
2475	0	31952	33208	31060	
2476	0	31700	32828	31072	
2477	0	31905	32996	31072	
2478	0	31952	33437	31058	
2479	0	32004	32702	31054	
2480	0	31948	31960	31084	
2481	0	32196	32894	31100	
2482	0	32124	31809	31117	
2483	0	32340	32180	31110	
2484	0	33120	34264	31100	
2485	0	33216	35092	31094	
2486	0	34052	33861	31079	
2487	0	34092	26944	31064	
2488	0	33152	29272	31064	
2489	0	33007	32000	31076	
2490	0	33080	35524	31084	
2491	0	32996	34276	31076	
2492	0	32912	34292	31076	
2493	0	32752	33998	31067	
2494	0	32568	32614	31072	
2495	0	32448	32856	31080	
2496	0	32188	32908	31064	
2497	0	31988	31817	31064	
2498	0	32028	32906	31072	
2499	0	32000	32096	31053	
2500	0	32100	32224	31044	
2501	0	32289	32580	31041	
2502	0	32456	34411	31024	
2503	0	33642	34405	31014	
2504	0	33588	32622	30998	
2505	0	33096	32038	30996	
2506	0	33250	32356	30976	
2507	0	33334	32232	30972	
2508	0	33228	33265	30975	
2509	0	33104	33026	31014	
2510	0	33082	31780	30990	
2511	0	32860	31757	30993	
2512	0	32502	33121	30993	
2513	0	32440	34057	30992	
2514	0	32570	31356	30984	
2515	0	33212	32328	30978	
2516	0	33080	34405	30960	
2517	0	33277	33513	30965	
2518	0	32708	33632	30976	
2519	0	32141	33276	30980	
2520	0	31920	33452	30980	
2521	0	32068	33708	30985	
2522	0	32366	32484	30973	
2523	0	32750	32596	30964	
2524	0	32973	33629	30959	
2525	0	33072	28928	30996	
2526	0	33216	30244	31020	
2527	0	33332	34705	31044	
2528	0	33333	33550	31076	
2529	0	33264	32960	31071	
2530	0	33060	31721	31072	
2531	0	32910	31556	31072	
2532	0	32809	32016	31072	
2533	0	32508	34980	31061	
2534	0	32232	35408	31059	
2535	0	32310	36096	31056	
2536	0	31632	33477	31050	
2537	0	31340	31236	31036	
2538	0	31704	34176	31040	
2539	0	32652	33996	31056	
2540	0	33220	31460	31052	
2541	0	34106	33008	31040	
2542	0	34780	32300	31040	
2543	0	33989	31016	31020	
2544	0	32592	32394	31022	
2545	0	32616	33389	31032	
2546	0	32796	33042	31016	
2547	0	33058	31405	31032	
2548	0	33396	34641	31046	
2549	0	33164	28608	31008	
2550	0	32948	29590	31008	
2551	0	32904	34760	31008	
2552	0	32684	33728	31018	
2553	0	32497	31784	31033	
2554	0	32096	32204	31028	
2555	0	31928	32712	31032	
2556	0	31892	34500	31036	
2557	0	31794	34436	31046	
2558	0	32332	33912	31052	
2559	0	33248	32185	31080	
2560	0	32792	32312	31069	
2561	0	32784	32524	31060	
2562	0	32832	33070	31040	
2563	0	32868	31040	31040	
2564	0	32940	30776	31036	
2565	0	32936	33856	31034	
2566	0	33030	35196	31017	
2567	0	32992	35335	31013	
2568	0	33072	33632	31032	
2569	0	33108	30382	31013	
2570	0	33210	30128	31004	
2571	0	33588	33546	31004	
2572	0	33680	34972	30992	
2573	0	33056	35360	31016	
2574	0	32704	34189	31008	
2575	0	32280	29556	30984	
2576	0	32140	32632	30972	
2577	0	32080	33845	31000	
2578	0	31812	34006	30988	
2579	0	31892	32492	30976	
2580	0	32174	32917	30974	
2581	0	32464	32901	30976	
2582	0	32732	33216	30982	
2583	0	33028	31216	30988	
2584	0	33144	31545	31002	
2585	0	32984	30980	30989	
2586	0	33180	31112	30994	
2587	0	33381	33324	30998	
2588	0	33159	35068	30983	
2589	0	33117	33148	30976	
2590	0	33468	33089	30985	
2591	0	33168	34200	30980	
2592	0	32928	33220	30981	
2593	0	33541	31964	30970	
2594	0	32772	32524	30981	
2595	0	32318	32629	30986	
2596	0	32088	32428	30962	
2597	0	32036	35749	30961	
2598	0	31993	30656	30956	
2599	0	32044	28850	30948	
2600	0	31792	33892	30948	
2601	0	31857	31145	30952	
2602	0	32276	34388	30944	
2603	0	32782	36002	30934	
2604	0	34356	34248	30940	
2605	0	34188	32812	30944	
2606	0	33740	32764	30950	
2607	0	33704	33420	30957	
2608	0	33552	32096	30964	
2609	0	32993	29094	30978	
2610	0	32969	27244	30985	
2611	0	32860	34064	30980	
2612	0	32632	36473	30982	
2613	0	32516	36845	30992	
2614	0	32484	35758	30984	
2615	0	32452	31784	30984	
2616	0	32052	31391	30964	
2617	0	31628	32775	30960	
2618	0	31620	33468	30924	
2619	0	31928	32692	30920	
2620	0	32317	31836	30924	
2621	0	33056	31988	30920	
2622	0	33904	31778	30937	
2623	0	33517	32352	30957	
2624	0	33236	32722	30956	
2625	0	33253	35084	30948	
2626	0	33142	32320	30940	
2627	0	33072	30976	30944	
2628	0	33124	34514	30932	
2629	0	33005	34529	30948	
2630	0	33076	33844	30940	
2631	0	33004	32877	30978	
2632	0	32892	31882	30970	
2633	0	32740	31477	30964	
2634	0	32528	31690	30956	
2635	0	32364	33212	30956	
2636	0	32129	33145	30960	
2637	0	31900	32182	30976	
2638	0	31905	34937	31004	
2639	0	32152	35399	31020	
2640	0	32336	30448	31020	
2641	0	33088	30592	31038	
2642	0	33360	31188	31038	
2643	0	33016	32868	31023	
2644	0	32864	32304	31018	
2645	0	32844	31851	31012	
2646	0	32996	33989	31018	
2647	0	33180	34920	31006	
2648	0	33192	33700	31017	
2649	0	33304	33868	31028	
2650	0	33480	32320	31021	
2651	0	33480	31676	31044	
2652	0	33348	32798	31022	
2653	0	32808	32585	31040	
2654	0	32532	33680	31039	
2655	0	32144	31138	31048	
2656	0	32084	33648	31044	
2657	0	32092	35276	31038	
2658	0	32184	31064	31004	
2659	0	32252	31908	31009	
2660	0	32468	32715	30996	
2661	0	32572	33245	31001	
2662	0	32636	33536	30982	
2663	0	32646	32518	30959	
2664	0	32848	31028	30968	
2665	0	33088	31251	30972	
2666	0	33209	32101	30974	
2667	0	33392	31268	30968	
2668	0	33452	33508	30977	
2669	0	33240	35607	30972	
2670	0	33028	33592	30982	
2671	0	33236	34954	30972	
2672	0	33608	33912	30964	
2673	0	32708	31336	30962	
2674	0	32292	31528	30966	
2675	0	32180	33676	30998	
2676	0	32281	35185	31005	
2677	0	32012	33684	30990	
2678	0	32016	32360	30969	
2679	0	32416	32288	30969	
2680	0	32380	29472	30954	
2681	0	32564	31920	30935	
2682	0	32684	34486	30912	
2683	0	32960	36282	30900	
2684	0	32872	32710	30870	
2685	0	33436	31325	30880	
2686	0	33652	30868	30912	
2687	0	33468	29758	30916	
2688	0	33224	32476	30912	
2689	0	33383	33814	30924	
2690	0	33436	35799	30914	
2691	0	32961	34028	30904	
2692	0	32400	31814	30912	
2693	0	32280	32044	30907	
2694	0	32238	32018	30908	
2695	0	32381	31621	30932	
2696	0	33221	32920	30937	
2697	0	32528	34977	30924	
2698	0	32388	33681	30916	
2699	0	32580	35882	30917	
2700	0	32244	30148	30912	
2701	0	32128	28208	30936	
2702	0	32028	30624	30924	
2703	0	32276	35952	30909	
2704	0	32580	36717	30917	
2705	0	33512	34048	30936	
2706	0	34204	32177	30945	
2707	0	33896	32200	30932	
2708	0	33504	32353	30934	
2709	0	33165	32569	30944	
2710	0	33096	33184	30958	
2711	0	32976	32128	30975	
2712	0	32804	32354	30983	
2713	0	32668	30492	30985	
2714	0	32456	32808	31008	
2715	0	32228	33069	31006	
2716	0	32044	33684	30999	
2717	0	31918	33786	31010	
2718	0	31984	33673	31004	
2719	0	32328	34796	31013	
2720	0	32792	32840	31020	
2721	0	32741	31098	31016	
2722	0	32728	32359	31024	
2723	0	32968	33516	31013	
2724	0	33032	33160	30996	
2725	0	33192	32264	30988	
2726	0	33104	31236	30989	
2727	0	33096	32160	30985	
2728	0	33360	32916	31000	
2729	0	33280	32380	31000	
2730	0	33300	34768	31004	
2731	0	33188	33813	31008	
2732	0	32884	32801	31022	
2733	0	32516	32937	31016	
2734	0	32240	33080	31008	
2735	0	31852	30373	31020	
2736	0	32388	32940	31016	
2737	0	32340	33808	31005	
2738	0	32664	33448	30992	
2739	0	32508	33109	30976	
2740	0	32598	32073	30989	
2741	0	32676	32908	30992	
2742	0	33036	33676	30987	
2743	0	33082	32382	30980	
2744	0	32897	32421	30960	
2745	0	33052	32792	30935	
2746	0	33060	32940	30945	
2747	0	32877	31904	30948	
2748	0	33092	34778	30952	
2749	0	33198	32657	30992	
2750	0	33424	31948	30996	
2751	0	33484	33452	30992	
2752	0	33312	34504	30992	
2753	0	32958	31704	30984	
2754	0	32693	31556	30993	
2755	0	32486	31596	31007	
2756	0	32050	31961	30983	
2757	0	31932	32736	30973	
2758	0	31992	32952	30980	
2759	0	32156	32456	30976	
2760	0	32180	33889	30973	
2761	0	32285	32877	30960	
2762	0	32284	33692	30964	
2763	0	32640	29724	30962	
2764	0	33088	30749	30973	
2765	0	34180	33828	30980	
2766	0	33512	32278	30950	
2767	0	33296	33945	30936	
2768	0	33264	32550	30940	
2769	0	33026	34593	30942	
2770	0	32929	36452	30930	
2771	0	32772	35476	30944	
2772	0	32688	33044	30952	
2773	0	33640	29496	30970	
2774	0	33124	29306	30960	
2775	0	32270	32512	30996	
2776	0	32104	34463	30980	
2777	0	31908	34444	30966	
2778	0	31996	33287	30948	
2779	0	32192	34596	30944	
2780	0	32424	34340	30946	
2781	0	32568	31249	30932	
2782	0	32692	32612	30936	
2783	0	32804	32456	30932	
2784	0	32976	31231	30929	
2785	0	33156	31407	30939	
2786	0	33132	34828	30945	
2787	0	33114	34689	30960	
2788	0	33352	34020	30956	
2789	0	33736	34200	30956	
2790	0	33612	30420	30972	
2791	0	33172	30384	30964	
2792	0	33076	31708	30956	
2793	0	32850	32068	30965	
2794	0	32424	31833	30964	
2795	0	32354	33480	30960	
2796	0	32422	34888	30961	
2797	0	32156	32896	30972	
2798	0	31960	31582	30988	
2799	0	31837	33726	30976	
2800	0	32024	33215	30970	
2801	0	32160	33668	30966	
2802	0	33104	32576	30971	
2803	0	33396	29208	30977	
2804	0	32800	31600	30988	
2805	0	32780	34420	31000	
2806	0	33156	34556	31000	
2807	0	33092	33228	31008	
2808	0	33542	32248	31004	
2809	0	34404	32524	31009	
2810	0	34409	32613	31004	
2811	0	33240	33084	30996	
2812	0	32400	33640	31001	
2813	0	32104	34068	31004	
2814	0	32256	32765	31004	
2815	0	32268	33868	31020	
2816	0	32108	32641	31040	
2817	0	31921	33117	31040	
2818	0	31740	33245	31026	
2819	0	32188	32896	31036	
2820	0	32408	31624	31018	
2821	0	32389	31676	31013	
2822	0	33180	32893	30988	
2823	0	33836	32816	30996	
2824	0	33108	34520	31006	
2825	0	33024	30826	31009	
2826	0	33176	32409	31008	
2827	0	33025	33617	30994	
2828	0	33180	32488	31008	
2829	0	33228	29980	31024	
2830	0	33120	30657	31048	
2831	0	33004	31696	31030	
2832	0	32992	34264	31017	
2833	0	32768	37244	31022	
2834	0	32520	34874	31025	
2835	0	33348	33212	31028	
2836	0	32741	33820	31013	
2837	0	31908	33228	31016	
2838	0	31840	32740	31024	
2839	0	31988	29260	31010	
2840	0	32224	30236	31020	
2841	0	32452	33300	31012	
2842	0	32621	32736	30983	
2843	0	32752	33381	30976	
2844	0	32804	33680	30980	
2845	0	32886	33636	30979	
2846	0	32996	34184	30992	
2847	0	33165	32732	30992	
2848	0	33694	32565	31000	
2849	0	33820	32518	30980	
2850	0	33744	32192	30983	
2851	0	33252	33073	31008	
2852	0	32852	32032	31026	
2853	0	32624	31612	31055	
2854	0	32519	31288	31058	
2855	0	32484	30903	31068	
2856	0	32272	35724	31048	
2857	0	32684	37689	31064	
2858	0	32840	32250	31036	
2859	0	32080	32672	31016	
2860	0	32048	32710	31010	
2861	0	32200	31783	31021	
2862	0	32525	33541	31012	
2863	0	32852	32952	31014	
2864	0	33004	32518	31004	
2865	0	33076	33376	30983	
2866	0	33172	33213	30990	
2867	0	33228	32124	31018	
2868	0	33190	30564	31012	
2869	0	33116	31920	31022	
2870	0	33080	34905	31036	
2871	0	33030	31520	31021	
2872	0	32788	32588	31032	
2873	0	32488	35334	31020	
2874	0	32932	35468	31036	
2875	0	32758	33136	31033	
2876	0	32196	32870	31044	
2877	0	32184	30422	31069	
2878	0	32468	30901	31076	
2879	0	32664	33992	31068	
2880	0	32378	33006	31086	
2881	0	32616	32101	31104	
2882	0	32424	32472	31118	
2883	0	32480	31316	31095	
2884	0	32632	31329	31097	
2885	0	32681	35280	31117	
2886	0	33321	35752	31092	
2887	0	33636	29852	31084	
2888	0	33157	29608	31068	
2889	0	33212	33597	31048	
2890	0	33396	36230	31032	
2891	0	33220	36636	31022	
2892	0	33348	31760	31028	
2893	0	33364	30690	31028	
2894	0	32560	31204	31064	
2895	0	32008	33508	31084	
2896	0	31504	34892	31096	
2897	0	30804	33616	31080	
2898	0	30484	32408	31085	
2899	0	31254	33263	31076	
2900	0	32508	33056	31068	
2901	0	34188	33160	31068	
2902	0	34252	32980	31050	
2903	0	34549	34084	31052	
2904	0	34436	31832	31036	
2905	0	33264	31032	31030	
2906	0	32116	32232	31028	
2907	0	32873	32836	31012	
2908	0	34220	32184	31004	
2909	0	34288	34796	31012	
2910	0	34084	32312	30993	
2911	0	33928	31289	31008	
2912	0	32364	31034	31020	
2913	0	31613	32365	31013	
2914	0	31852	32754	31004	
2915	0	32480	34332	31040	
2916	0	31796	34516	31057	
2917	0	31588	34894	31058	
2918	0	32120	32308	31056	
2919	0	32428	32652	31038	
2920	0	32468	33365	31058	
2921	0	32349	32692	31061	
2922	0	32406	31833	31068	
2923	0	32540	31925	31053	
2924	0	32748	32396	31030	
2925	0	33064	32828	31017	
2926	0	33144	34229	30996	
2927	0	33294	33060	30993	
2928	0	33457	29586	31000	
2929	0	33368	34858	30994	
2930	0	33224	32025	31008	
2931	0	33180	32212	31026	
2932	0	32996	32784	31040	
2933	0	32752	33428	31078	
2934	0	32516	33380	31104	
2935	0	32260	33252	31106	
2936	0	32216	32820	31089	
2937	0	32144	32944	31080	
2938	0	32248	32996	31071	
2939	0	32416	33697	31037	
2940	0	32552	33364	31046	
2941	0	32502	33505	31052	
2942	0	32705	31592	31059	
2943	0	33056	30620	31071	
2944	0	33088	31841	31060	
2945	0	33143	35356	31050	
2946	0	33181	31908	31024	
2947	0	33252	32168	31000	
2948	0	33312	33124	31009	
2949	0	33018	34578	31000	
2950	0	32796	33391	31018	
2951	0	32972	32454	31036	
2952	0	32948	32676	31048	
2953	0	32938	31973	31064	
2954	0	33732	33716	31060	
2955	0	32720	32064	31064	
2956	0	31912	29892	31044	
2957	0	31548	28740	31034	
2958	0	31852	34207	31008	
2959	0	32284	36936	31016	
2960	0	32606	36036	31036	
2961	0	32820	34256	31040	
2962	0	33020	33016	31026	
2963	0	32904	28912	31034	
2964	0	33030	33404	31030	
2965	0	33152	33660	31010	
2966	0	33468	33228	31002	
2967	0	33423	32312	31010	
2968	0	33172	33080	30989	
2969	0	33192	33269	30964	
2970	0	33229	32692	30964	
2971	0	33204	31973	30964	
2972	0	32818	32825	30972	
2973	0	32524	31953	30972	
2974	0	32368	33129	30956	
2975	0	32320	32612	30965	
2976	0	32312	32980	30975	
2977	0	32164	32503	30972	
2978	0	32088	32680	30983	
2979	0	32126	32496	30992	
2980	0	32108	33152	30988	
2981	0	32174	35108	31004	
2982	0	32216	33764	31009	
2983	0	32418	30494	31016	
2984	0	33512	31704	31020	
2985	0	33520	31125	31004	
2986	0	34232	33316	31025	
2987	0	33842	35037	31024	
2988	0	33343	32044	31025	
2989	0	33164	31976	31040	
2990	0	33089	33277	31036	
2991	0	32780	35348	31028	
2992	0	32268	33992	31034	
2993	0	31944	32516	31028	
2994	0	31846	31956	31012	
2995	0	31816	32516	31024	
2996	0	32336	34112	31044	
2997	0	32980	31425	31063	
2998	0	33360	30772	31060	
2999	0	33856	33737	31040	
3000	0	34076	33901	31044	
3001	0	32624	32744	31045	
3002	0	31866	31842	31057	
3003	0	32144	33988	31048	
3004	0	32424	34751	31068	
3005	0	32768	34308	31060	
3006	0	32964	31872	31074	
3007	0	33216	31894	31088	
3008	0	33285	31646	31085	
3009	0	33488	29068	31096	
3010	0	33400	31246	31073	
3011	0	33072	34785	31076	
3012	0	32704	31560	31066	
3013	0	32762	31672	31084	
3014	0	32748	38452	31061	
3015	0	32525	36268	31061	
3016	0	32368	32248	31037	
3017	0	31853	32544	31017	
3018	0	31604	32585	31016	
3019	0	31892	32576	31004	
3020	0	32212	32529	31014	
3021	0	32044	32036	31004	
3022	0	31954	31620	31012	
3023	0	32606	31961	31004	
3024	0	33120	32829	31015	
3025	0	33580	32322	30996	
3026	0	35360	33993	31000	
3027	0	34552	32781	30981	
3028	0	33668	31292	30996	
3029	0	33053	32528	31015	
3030	0	32920	31972	31017	
3031	0	32841	33000	31040	
3032	0	32748	33397	31042	
3033	0	32548	32985	31042	
3034	0	32352	32862	31044	
3035	0	32180	35324	31020	
3036	0	31958	34574	31036	
3037	0	31904	33464	31048	
3038	0	31900	30884	31040	
3039	0	32150	29172	31017	
3040	0	32450	32941	31038	
3041	0	32597	32225	31048	
3042	0	32860	34756	31022	
3043	0	32912	34023	31028	
3044	0	32888	33252	31044	
3045	0	32996	32548	31064	
3046	0	33084	31728	31046	
3047	0	33305	32332	31049	
3048	0	33856	32224	31032	
3049	0	33726	32392	31030	
3050	0	33568	33270	31028	
3051	0	33144	32836	31032	
3052	0	32774	33828	31036	
3053	0	32840	33392	31039	
3054	0	33004	32874	31053	
3055	0	32264	33662	31062	
3056	0	31896	32696	31074	
3057	0	31804	31656	31070	
3058	0	31860	31869	31068	
3059	0	32072	30644	31056	
3060	0	32516	33951	31048	
3061	0	32688	34189	31040	
3062	0	32644	35449	31032	
3063	0	33056	37249	31048	
3064	0	33057	33517	31060	
3065	0	32744	28472	31052	
3066	0	32724	30892	31044	
3067	0	33330	31877	31008	
3068	0	33588	33949	31012	
3069	0	33400	33068	30993	
3070	0	33360	35764	30992	
3071	0	33088	31454	30961	
3072	0	32344	29829	30976	
3073	0	31648	30396	30976	
3074	0	31652	31852	31005	
3075	0	33180	34120	31004	
3076	0	33616	37371	31012	
3077	0	33464	33216	31017	
3078	0	33616	33202	31032	
3079	0	33644	35108	31024	
3080	0	32312	35340	31040	
3081	0	31733	30882	31024	
3082	0	32016	29606	31030	
3083	0	32380	31808	31024	
3084	0	32600	31688	31004	
3085	0	32984	33036	31003	
3086	0	33200	33076	31028	
3087	0	33216	32452	31016	
3088	0	33060	31930	30992	
3089	0	32672	32016	31001	
3090	0	32926	34342	30986	
3091	0	33024	32096	30988	
3092	0	33110	32134	30978	
3093	0	34180	32216	30972	
3094	0	32860	33084	30984	
3095	0	32100	33126	30961	
3096	0	31844	33242	30984	
3097	0	31980	33158	30991	
3098	0	32069	33341	30992	
3099	0	32176	34720	30992	
3100	0	32056	32854	30998	
3101	0	32421	31208	30980	
3102	0	32560	32720	30965	
3103	0	32554	32908	30968	
3104	0	33324	31317	30969	
3105	0	34097	27788	30965	
3106	0	33776	31537	30973	
3107	0	33236	36392	30996	
3108	0	33244	36696	31006	
3109	0	33096	32039	31017	
3110	0	32868	31335	31020	
3111	0	32676	33328	31020	
3112	0	32457	37284	31000	
3113	0	32532	35937	31020	
3114	0	32996	34644	31028	
3115	0	33342	33198	31036	
3116	0	32956	31900	31036	
3117	0	32520	31204	31024	
3118	0	32168	31508	31008	
3119	0	32018	30849	31006	
3120	0	32072	33220	30984	
3121	0	32204	33364	30996	
3122	0	32364	31413	31003	
3123	0	32324	32748	31012	
3124	0	32688	32273	30980	
3125	0	33000	30540	31004	
3126	0	33220	33400	31000	
3127	0	33437	33414	30994	
3128	0	33592	32784	31002	
3129	0	33732	32428	30988	
3130	0	33396	32196	30988	
3131	0	32984	31565	31021	
3132	0	33144	32663	31020	
3133	0	32869	33812	30996	
3134	0	32588	36052	31004	
3135	0	32420	33988	31004	
3136	0	32780	32584	30984	
3137	0	32486	32279	30972	
3138	0	31953	34388	30976	
3139	0	32040	31620	30946	
3140	0	32392	33497	30945	
3141	0	32521	33352	30945	
3142	0	32282	31836	30949	
3143	0	32488	29542	30948	
3144	0	32701	31318	30949	
3145	0	32992	35414	30970	
3146	0	33184	34496	30972	
3147	0	33296	33736	30957	
3148	0	33476	33361	30948	
3149	0	33406	32669	30944	
3150	0	33284	33066	30948	
3151	0	33295	32688	30934	
3152	0	33204	32249	30929	
3153	0	32760	31512	30942	
3154	0	32158	30926	30961	
3155	0	31468	33136	30964	
3156	0	31044	33911	30964	
3157	0	32072	33140	30968	
3158	0	31672	32924	30966	
3159	0	32120	33388	30940	
3160	0	33508	34336	30940	
3161	0	33780	32197	30952	
3162	0	34334	29881	30936	
3163	0	34804	32336	30938	
3164	0	33548	29492	30924	
3165	0	32508	34192	30936	
3166	0	32548	34708	30944	
3167	0	32792	34316	30932	
3168	0	33030	34328	30924	
3169	0	33064	34612	30936	
3170	0	33212	32783	30930	
3171	0	33168	33852	30938	
3172	0	33048	31524	30948	
3173	0	32684	30220	30956	
3174	0	32356	33257	30960	
3175	0	32161	33641	30972	
3176	0	32096	31324	30992	
3177	0	31704	32658	30992	
3178	0	31725	34043	30977	
3179	0	31928	35208	30970	
3180	0	32210	31117	30958	
3181	0	32980	29514	30950	
3182	0	33317	33981	30940	
3183	0	32877	33904	30945	
3184	0	32708	33776	30952	
3185	0	32673	33573	30944	
3186	0	32911	31940	30928	
3187	0	33156	31565	30930	
3188	0	33948	32325	30929	
3189	0	34276	33528	30932	
3190	0	33828	33725	30948	
3191	0	33460	33078	30964	
3192	0	32892	35236	30968	
3193	0	32400	32165	30989	
3194	0	32342	31540	30980	
3195	0	32302	31796	30972	
3196	0	32149	31828	30968	
3197	0	32288	32201	30964	
3198	0	32292	36428	30956	
3199	0	32168	33476	30943	
3200	0	32152	32013	30953	
3201	0	32304	32414	30948	
3202	0	32396	32920	30980	
3203	0	32548	31652	30980	
3204	0	32678	31764	30961	
3205	0	32700	31705	30965	
3206	0	33556	31544	30964	
3207	0	33893	34044	30965	
3208	0	33932	33359	30968	
3209	0	33684	30892	30969	
3210	0	33217	30633	30960	
3211	0	33260	37332	30956	
3212	0	33197	35332	30970	
3213	0	32632	31892	30985	
3214	0	32428	33910	30956	
3215	0	32216	35384	30974	
3216	0	32181	32737	30972	
3217	0	31949	31612	30968	
3218	0	31998	31672	30969	
3219	0	32032	29678	30946	
3220	0	32204	31532	30945	
3221	0	32588	33968	30946	
3222	0	32481	32368	30948	
3223	0	32580	33608	30964	
3224	0	32940	34562	30969	
3225	0	33312	34202	30961	
3226	0	33374	33602	30962	
3227	0	33645	31432	30957	
3228	0	33906	33194	30956	
3229	0	33873	34952	30964	
3230	0	33341	29728	30945	
3231	0	32988	32244	30924	
3232	0	32774	33471	30925	
3233	0	32677	33486	30920	
3234	0	32640	33296	30908	
3235	0	32490	31352	30932	
3236	0	31856	31604	30924	
3237	0	31468	32809	30932	
3238	0	30900	36488	30916	
3239	0	30624	32812	30916	
3240	0	31072	30055	30900	
3241	0	32225	30164	30892	
3242	0	33960	33692	30873	
3243	0	35432	35956	30878	
3244	0	35180	34054	30865	
3245	0	34929	32166	30860	
3246	0	34092	32477	30853	
3247	0	33105	31792	30872	
3248	0	32740	31160	30880	
3249	0	32772	31260	30896	
3250	0	32797	35132	30880	
3251	0	32740	34364	30866	
3252	0	32682	31165	30888	
3253	0	32672	33636	30892	
3254	0	32384	32545	30906	
3255	0	31844	35308	30932	
3256	0	31609	33657	30916	
3257	0	31596	32292	30932	
3258	0	31709	32193	30948	
3259	0	32184	32009	30925	
3260	0	32676	32181	30920	
3261	0	33277	32640	30930	
3262	0	33024	33704	30929	
3263	0	32876	32972	30951	
3264	0	33289	33582	30976	
3265	0	33438	34244	30980	
3266	0	33320	33910	30964	
3267	0	33116	29190	30980	
3268	0	33032	29628	30981	
3269	0	33056	34472	30973	
3270	0	32976	31740	30972	
3271	0	32864	31508	30976	
3272	0	32608	32870	30980	
3273	0	32772	32877	30972	
3274	0	32964	32714	30976	
3275	0	32744	33744	31012	
3276	0	32982	33110	31026	
3277	0	32605	32852	31030	
3278	0	31904	34469	31028	
3279	0	31992	33428	31028	
3280	0	32028	32118	31000	
3281	0	32216	32540	30984	
3282	0	32536	34039	30990	
3283	0	32712	31528	31008	
3284	0	32964	31864	30997	
3285	0	33208	34728	30992	
3286	0	33176	32188	30999	
3287	0	33332	32790	31008	
3288	0	33495	35775	30980	
3289	0	33380	33784	30980	
3290	0	33344	32958	30964	
3291	0	33240	30440	30960	
3292	0	33064	30708	30958	
3293	0	32656	33772	30944	
3294	0	32484	35000	30964	
3295	0	32449	33029	30964	
3296	0	32344	32496	30960	
3297	0	32118	32452	30974	
3298	0	32068	32501	30960	
3299	0	32084	32596	30964	
3300	0	32100	34480	30956	
3301	0	32284	35116	30916	
3302	0	32760	30727	30922	
3303	0	33248	30030	30926	
3304	0	34230	31300	30942	
3305	0	33272	33540	30932	
3306	0	33020	32692	30932	
3307	0	33106	32570	30933	
3308	0	33176	30758	30904	
3309	0	33236	31904	30912	
3310	0	33152	34268	30912	
3311	0	33088	34468	30928	
3312	0	32932	34753	30924	
3313	0	32620	32636	30908	
3314	0	32176	34376	30892	
3315	0	31912	34188	30913	
3316	0	31908	31704	30921	
3317	0	32033	32783	30942	
3318	0	32584	33324	30936	
3319	0	33552	32196	30914	
3320	0	32656	31332	30912	
3321	0	31968	32458	30912	
3322	0	31736	32260	30904	
3323	0	32101	34600	30892	
3324	0	32241	34568	30895	
3325	0	32500	32828	30892	
3326	0	33556	31496	30888	
3327	0	34088	32096	30896	
3328	0	34468	31672	30920	
3329	0	34940	33974	30916	
3330	0	34968	33252	30934	
3331	0	33380	32572	30921	
3332	0	32636	31773	30944	
3333	0	32378	31044	30950	
3334	0	32384	32852	30945	
3335	0	32264	33218	30928	
3336	0	32241	32420	30937	
3337	0	32222	35881	30944	
3338	0	32022	34445	30948	
3339	0	31936	34044	30956	
3340	0	31994	33660	30964	
3341	0	32008	32044	30969	
3342	0	32164	32652	30948	
3343	0	32560	32721	30962	
3344	0	32729	32264	30936	
3345	0	33084	32068	30949	
3346	0	33200	31504	30934	
3347	0	33308	31136	30919	
3348	0	33360	33092	30904	
3349	0	33424	35496	30920	
3350	0	33340	36758	30924	
3351	0	33252	31401	30928	
3352	0	33036	29264	30938	
3353	0	32864	28349	30940	
3354	0	32660	32766	30938	
3355	0	32408	32956	30952	
3356	0	32332	31078	30942	
3357	0	32216	38084	30960	
3358	0	32160	36716	30976	
3359	0	32278	32380	30984	
3360	0	32352	32775	30985	
3361	0	32436	32786	30946	
3362	0	32502	33796	30958	
3363	0	32520	34404	30952	
3364	0	32652	29388	30968	
3365	0	32889	29497	30970	
3366	0	33224	31972	30983	
3367	0	33152	33488	31004	
3368	0	33045	33264	31012	
3369	0	33576	32252	31004	
3370	0	33760	33789	31004	
3371	0	34244	34776	31028	
3372	0	33508	32263	31024	
3373	0	33560	32164	31032	
3374	0	33090	32652	31064	
3375	0	32360	31572	31064	
3376	0	32236	32572	31064	
3377	0	32004	34412	31052	
3378	0	31812	34349	31032	
3379	0	31824	34957	31056	
3380	0	31980	34542	31062	
3381	0	32152	32004	31060	
3382	0	32456	31828	31024	
3383	0	32726	34072	31025	
3384	0	32908	32780	31014	
3385	0	33336	31804	31044	
3386	0	33212	31998	31041	
3387	0	33272	33308	31053	
3388	0	33000	30806	31052	
3389	0	32620	32036	31060	
3390	0	32817	31788	31076	
3391	0	32948	30096	31055	
3392	0	33300	33868	31056	
3393	0	34996	35392	31069	
3394	0	33944	35048	31072	
3395	0	32340	33680	31086	
3396	0	31825	32680	31076	
3397	0	31648	32928	31076	
3398	0	31744	33560	31068	
3399	0	31742	32772	31045	
3400	0	32256	32453	31013	
3401	0	32954	33089	31012	
3402	0	32653	33770	31008	
3403	0	32366	32036	31012	
3404	0	32624	33964	31000	
3405	0	33088	35544	31018	
3406	0	33412	30256	31012	
3407	0	33512	27172	30996	
3408	0	33564	29492	31004	
3409	0	33592	33023	31028	
3410	0	33264	36140	31012	
3411	0	33036	33772	30998	
3412	0	32953	32172	31016	
3413	0	32896	34860	31007	
3414	0	32886	33912	30980	
3415	0	32533	32473	30964	
3416	0	32254	28676	30970	
3417	0	31894	32216	30974	
3418	0	31664	35365	30980	
3419	0	32068	34016	30980	
3420	0	32253	32836	30980	
3421	0	32208	32440	30978	
3422	0	32408	33460	30976	
3423	0	32488	32433	30965	
3424	0	32324	33621	30988	
3425	0	32340	33903	30993	
3426	0	33141	32476	30968	
3427	0	34033	30404	30956	
3428	0	34476	35412	30957	
3429	0	34884	34986	30953	
3430	0	35096	32640	30928	
3431	0	33521	31020	30906	
3432	0	32580	30758	30924	
3433	0	32452	32454	30944	
3434	0	32473	33031	30956	
3435	0	32284	33528	30952	
3436	0	32216	33000	30962	
3437	0	32012	33096	30970	
3438	0	31853	33442	30936	
3439	0	31880	32736	30914	
3440	0	32038	32652	30920	
3441	0	32160	32448	30913	
3442	0	32292	32760	30917	
3443	0	32448	32586	30934	
3444	0	32736	33104	30933	
3445	0	33041	33493	30916	
3446	0	33504	32260	30936	
3447	0	33776	33381	30934	
3448	0	33748	33360	30948	
3449	0	33245	32900	30946	
3450	0	33072	32356	30926	
3451	0	33136	31840	30928	
3452	0	32876	32952	30948	
3453	0	32664	31472	30959	
3454	0	32726	34224	30977	
3455	0	32260	33566	30976	
3456	0	32108	33185	30982	
3457	0	32456	33064	30988	
3458	0	31989	32604	30977	
3459	0	32140	30660	30978	
3460	0	33632	32196	30984	
3461	0	32660	35033	30977	
3462	0	31990	31366	30978	
3463	0	32208	35756	30998	
3464	0	32916	34748	31000	
3465	0	33076	32340	31005	
3466	0	33124	32430	31004	
3467	0	33304	28808	31004	
3468	0	33640	29020	30992	
3469	0	34012	32121	30972	
3470	0	33850	34436	30976	
3471	0	33456	34340	30961	
3472	0	32804	38303	30968	
3473	0	32796	34372	30985	
3474	0	32577	32580	31000	
3475	0	32376	32236	31006	
3476	0	32336	32254	31020	
3477	0	32204	32397	31015	
3478	0	31996	32648	31016	
3479	0	32056	32880	31034	
3480	0	32104	33536	31014	
3481	0	32201	33474	30996	
3482	0	32460	32725	31008	
3483	0	32716	30596	30994	
3484	0	32826	33452	30964	
3485	0	33224	33400	30964	
3486	0	33332	31666	30938	
3487	0	33460	32848	30948	
3488	0	33316	33080	30936	
3489	0	33030	32584	30902	
3490	0	33016	30479	30884	
3491	0	33268	31631	30892	
3492	0	33089	32665	30886	
3493	0	33302	33080	30884	
3494	0	33112	34418	30872	
3495	0	32570	33605	30884	
3496	0	32247	32976	30889	
3497	0	32192	32446	30912	
3498	0	32342	32371	30940	
3499	0	32140	34140	30926	
3500	0	31940	32526	30908	
3501	0	31772	34072	30920	
3502	0	31660	33636	30928	
3503	0	31768	33061	30917	
3504	0	31936	33148	30893	
3505	0	33160	32932	30920	
3506	0	34453	33222	30944	
3507	0	34804	32732	30973	
3508	0	35080	32156	30964	
3509	0	35428	31324	30961	
3510	0	33884	31704	30928	
3511	0	32660	31304	30926	
3512	0	32504	33156	30917	
3513	0	32360	32188	30927	
3514	0	32253	31053	30948	
3515	0	32052	34042	30954	
3516	0	31912	36396	30964	
3517	0	31756	33956	30965	
3518	0	31716	32972	30960	
3519	0	31788	33705	30973	
3520	0	31860	31932	30972	
3521	0	32500	34164	30977	
3522	0	32713	32775	30974	
3523	0	32564	31076	30968	
3524	0	33710	31524	30970	
3525	0	34036	32612	30958	
3526	0	33312	33172	30976	
3527	0	32974	33736	30972	
3528	0	33220	33370	31005	
3529	0	33336	34425	30996	
3530	0	32929	37541	31007	
3531	0	32780	30745	30992	
3532	0	32724	29116	30993	
3533	0	32840	31300	31005	
3534	0	33092	32248	31000	
3535	0	33524	33862	31012	
3536	0	33012	33608	31012	
3537	0	31764	30645	31024	
3538	0	31588	30340	31032	
3539	0	32264	33494	31034	
3540	0	32336	34177	31016	
3541	0	32300	33581	31034	
3542	0	32404	34252	31020	
3543	0	32648	32847	30994	
3544	0	32776	33876	31005	
3545	0	33024	30892	31012	
3546	0	33220	32484	31026	
3547	0	33188	30496	31021	
3548	0	33356	32660	31029	
3549	0	33420	35116	31058	
3550	0	33256	34540	31052	
3551	0	33253	32308	31037	
3552	0	33074	31676	31012	
3553	0	32857	28248	31032	
3554	0	32748	31397	31048	
3555	0	32596	36772	31040	
3556	0	32292	36252	31056	
3557	0	32066	33286	31076	
3558	0	31980	33264	31098	
3559	0	31905	33287	31094	
3560	0	32244	32701	31093	
3561	0	32660	32340	31116	
3562	0	32753	32012	31100	
3563	0	32976	31528	31068	
3564	0	33072	31761	31012	
3565	0	33060	31960	30968	
3566	0	33224	32424	30918	
3567	0	33300	33904	30900	
3568	0	33440	34889	30890	
3569	0	33576	34948	30878	
3570	0	33308	33308	30868	
3571	0	33200	32700	30869	
3572	0	33152	31260	30840	
3573	0	33046	30908	30839	
3574	0	32752	33360	30885	
3575	0	32372	33137	30918	
3576	0	31944	33732	30944	
3577	0	31744	31598	30952	
3578	0	31850	31590	30980	
3579	0	32020	34541	30976	
3580	0	31952	30238	30992	
3581	0	32736	32599	30993	
3582	0	32900	34532	30980	
3583	0	32094	36732	30988	
3584	0	31872	34537	30992	
3585	0	32662	33028	30988	
3586	0	33776	30464	30974	
3587	0	33312	32660	30950	
3588	0	33320	32775	30942	
3589	0	33748	32741	30949	
3590	0	34236	32639	30930	
3591	0	34712	32356	30896	
3592	0	35530	31248	30922	
3593	0	33580	32284	30908	
3594	0	32164	34820	30924	
3595	0	31712	34066	30928	
3596	0	31426	31144	30925	
3597	0	31492	32840	30937	
3598	0	31436	32256	30940	
3599	0	31864	31944	30948	
3600	0	31768	32156	30964	
3601	0	32042	32460	30967	
3602	0	32504	34830	30964	
3603	0	32924	33834	30980	
3604	0	33096	33940	30996	
3605	0	33312	32374	31013	
3606	0	33448	32580	30972	
3607	0	33652	32612	30932	
3608	0	33393	32401	30887	
3609	0	33224	32740	30868	
3610	0	33022	32775	30856	
3611	0	32836	33889	30864	
3612	0	32677	31480	30826	
3613	0	32592	31284	30834	
3614	0	32496	34839	30831	
3615	0	32348	33097	30836	
3616	0	32296	32272	30840	
3617	0	32384	32950	30862	
3618	0	32525	32960	30864	
3619	0	32402	30184	30862	
3620	0	32536	32692	30884	
3621	0	32872	32197	30882	
3622	0	32880	29921	30894	
3623	0	32648	34078	30908	
3624	0	32901	35684	30916	
3625	0	34190	35196	30912	
3626	0	33160	32364	30904	
3627	0	32844	33570	30917	
3628	0	33060	34266	30904	
3629	0	33129	32853	30896	
3630	0	33132	34644	30916	
3631	0	33048	33257	30924	
3632	0	33020	30217	30904	
3633	0	32846	30160	30912	
3634	0	32656	31332	30934	
3635	0	32438	32021	30932	
3636	0	32352	31800	30928	
3637	0	32180	34536	30952	
3638	0	31936	34485	30956	
3639	0	31940	32800	30961	
3640	0	31948	33852	30972	
3641	0	31600	33265	30965	
3642	0	31782	32844	30965	
3643	0	32356	33182	30964	
3644	0	33124	33328	30950	
3645	0	32628	32844	30948	
3646	0	33156	32012	30940	
3647	0	34072	27940	30934	
3648	0	34693	31329	30933	
3649	0	35384	32765	30940	
3650	0	35412	35236	30928	
3651	0	33612	35712	30944	
3652	0	32680	33656	30964	
3653	0	32372	32512	30975	
3654	0	32128	31804	30977	
3655	0	32017	31652	31016	
3656	0	31800	32599	31022	
3657	0	31761	33048	31032	
3658	0	31716	33572	31042	
3659	0	32004	33189	31036	
3660	0	32456	32879	31012	
3661	0	32233	32510	31028	
3662	0	31936	32292	31012	
3663	0	32146	32364	31021	
3664	0	32508	34348	30988	
3665	0	32852	35402	31005	
3666	0	33132	33000	31016	
3667	0	34261	32453	30996	
3668	0	34114	31374	31000	
3669	0	33580	31060	31001	
3670	0	33060	30868	30998	
3671	0	32657	32374	30980	
3672	0	32700	33594	31000	
3673	0	32516	32509	30999	
3674	0	32388	33360	30988	
3675	0	33508	36728	30972	
3676	0	32656	34164	30984	
3677	0	31316	32796	30982	
3678	0	31124	32735	30972	
3679	0	32144	32446	30965	
3680	0	33992	32924	30980	
3681	0	34464	32844	30998	
3682	0	34204	32514	31005	
3683	0	33688	32524	31016	
3684	0	31741	32644	31013	
3685	0	31932	32208	31010	
3686	0	32490	32886	31021	
3687	0	32544	33767	31006	
3688	0	32980	32913	30960	
3689	0	33106	32386	30962	
3690	0	33388	29188	30976	
3691	0	33456	30874	30976	
3692	0	33024	32870	30968	
3693	0	32878	35204	30988	
3694	0	33124	33670	30996	
3695	0	32920	32090	31004	
3696	0	32680	32927	31016	
3697	0	32226	33543	31020	
3698	0	31904	34672	31012	
3699	0	31904	33844	31008	
3700	0	32066	33137	31016	
3701	0	32200	33057	31013	
3702	0	32324	32884	30990	
3703	0	32654	32132	30983	
3704	0	32816	33401	30972	
3705	0	33096	32836	30980	
3706	0	33052	32092	30978	
3707	0	33120	31268	30957	
3708	0	33173	31088	30948	
3709	0	33120	34276	30944	
3710	0	33258	32504	30958	
3711	0	33704	33372	30949	
3712	0	33292	31140	30936	
3713	0	33204	31968	30930	
3714	0	33154	33530	30924	
3715	0	31840	33248	30936	
3716	0	31561	33632	30914	
3717	0	31876	35036	30936	
3718	0	32388	33314	30916	
3719	0	32608	32124	30913	
3720	0	32856	31896	30916	
3721	0	33217	31524	30912	
3722	0	33304	31732	30916	
3723	0	32809	35742	30918	
3724	0	32488	36131	30916	
3725	0	32636	34352	30900	
3726	0	32728	29364	30880	
3727	0	33048	28783	30880	
3728	0	33242	30876	30874	
3729	0	33244	32596	30860	
3730	0	33292	32748	30844	
3731	0	33322	35697	30881	
3732	0	32660	32924	30852	
3733	0	32196	31238	30852	
3734	0	32056	31720	30849	
3735	0	32348	35352	30871	
3736	0	32488	35076	30865	
3737	0	31848	31440	30878	
3738	0	31965	31818	30896	
3739	0	32472	33864	30908	
3740	0	33284	34205	30924	
3741	0	34341	32912	30932	
3742	0	34992	32537	30948	
3743	0	33372	32513	30944	
3744	0	32524	32401	30949	
3745	0	32824	32404	30952	
3746	0	32864	32214	30940	
3747	0	32685	32020	30949	
3748	0	32798	32124	30956	
3749	0	32924	31716	30960	
3750	0	32984	31664	30946	
3751	0	33016	35609	30952	
3752	0	32873	34324	30964	
3753	0	32669	33080	30958	
3754	0	32548	32452	30976	
3755	0	32364	33174	30976	
3756	0	32232	34317	31004	
3757	0	32168	31868	30993	
3758	0	32000	32428	31017	
3759	0	31956	32992	31034	
3760	0	32096	32880	31025	
3761	0	32484	33030	31024	
3762	0	32836	32835	31044	
3763	0	33248	32172	31057	
3764	0	32941	32432	31069	
3765	0	32866	32573	31111	
3766	0	33137	32181	31124	
3767	0	33204	33368	31108	
3768	0	33304	34680	31114	
3769	0	33384	32528	31116	
3770	0	33182	30552	31118	
3771	0	33068	32312	31120	
3772	0	32916	34272	31108	
3773	0	32808	32453	31113	
3774	0	32644	33000	31125	
3775	0	33340	34634	31108	
3776	0	32880	34272	31108	
3777	0	32400	31812	31084	
3778	0	32092	32893	31104	
3779	0	31880	32470	31102	
3780	0	31898	31403	31092	
3781	0	32348	31692	31076	
3782	0	32704	31356	31072	
3783	0	32752	30424	31057	
3784	0	33040	36420	31048	
3785	0	33180	37176	31032	
3786	0	33173	33342	31040	
3787	0	33176	32236	31030	
3788	0	33323	31373	31036	
3789	0	33380	31868	31040	
3790	0	33292	32568	31024	
3791	0	33264	32120	31024	
3792	0	33080	30617	31032	
3793	0	32849	31054	31044	
3794	0	32580	35344	31032	
3795	0	32410	35172	31045	
3796	0	32340	33729	31064	
3797	0	32196	32710	31074	
3798	0	32164	32319	31052	
3799	0	32284	32160	31025	
3800	0	32336	33060	31034	
3801	0	32256	34508	31044	
3802	0	32176	33620	31012	
3803	0	32544	32237	31036	
3804	0	32716	32052	31024	
3805	0	32724	32016	31021	
3806	0	33092	32788	31009	
3807	0	33260	32868	30994	
3808	0	33285	35396	30961	
3809	0	33864	30756	30950	
3810	0	33944	31504	30948	
3811	0	33816	32438	30928	
3812	0	33022	31572	30912	
3813	0	32112	33008	30884	
3814	0	31784	32536	30884	
3815	0	32014	32476	30876	
3816	0	32492	33940	30872	
3817	0	32984	33072	30880	
3818	0	33456	33172	30892	
3819	0	33812	32476	30888	
3820	0	33796	32888	30886	
3821	0	32232	33876	30886	
3822	0	31844	33098	30874	
3823	0	31931	32508	30860	
3824	0	32324	30393	30876	
3825	0	32652	31685	30884	
3826	0	32864	34773	30868	
3827	0	33072	36761	30876	
3828	0	33200	34009	30878	
3829	0	33192	30175	30876	
3830	0	33232	30840	30868	
3831	0	33152	32727	30864	
3832	0	33020	32173	30860	
3833	0	32805	32453	30860	
3834	0	32564	32772	30876	
3835	0	32068	32988	30868	
3836	0	31980	33373	30884	
3837	0	31808	33276	30910	
3838	0	31876	32364	30900	
3839	0	33423	32361	30888	
3840	0	33056	34375	30892	
3841	0	32425	33780	30908	
3842	0	32426	33112	30917	
3843	0	32606	32442	30896	
3844	0	32792	32541	30879	
3845	0	33128	33688	30898	
3846	0	33392	32460	30905	
3847	0	33717	32036	30897	
3848	0	33372	31534	30880	
3849	0	33214	30509	30876	
3850	0	33164	32985	30885	
3851	0	33212	34512	30888	
3852	0	33104	33464	30886	
3853	0	32800	31904	30892	
3854	0	32592	31401	30892	
3855	0	32452	32801	30900	
3856	0	32340	34380	30916	
3857	0	32374	33352	30932	
3858	0	32132	36344	30944	
3859	0	32252	35342	30941	
3860	0	32076	35316	30936	
3861	0	32284	30308	30916	
3862	0	32628	29466	30906	
3863	0	32980	32776	30918	
3864	0	32860	33227	30941	
3865	0	32648	31094	30928	
3866	0	32752	28644	30932	
3867	0	32898	30856	30916	
3868	0	32960	31980	30916	
3869	0	33276	36040	30920	
3870	0	33608	34428	30924	
3871	0	34052	35897	30920	
3872	0	34084	34414	30924	
3873	0	33340	31721	30936	
3874	0	32772	32112	30932	
3875	0	32438	30912	30952	
3876	0	32238	35744	30957	
3877	0	32157	36888	30978	
3878	0	31938	29226	30994	
3879	0	31968	31564	30996	
3880	0	32116	29925	31002	
3881	0	32244	34144	31012	
3882	0	32420	36444	31018	
3883	0	32476	33483	31005	
3884	0	32341	30649	31008	
3885	0	32492	30436	31007	
3886	0	32925	30885	31026	
3887	0	33676	32460	31050	
3888	0	34280	33668	31040	
3889	0	33812	33373	30997	
3890	0	33301	34676	31012	
3891	0	32774	33460	31000	
3892	0	31956	30044	30996	
3893	0	31744	29472	31005	
3894	0	32020	32772	31008	
3895	0	32552	34697	31017	
3896	0	33324	32010	31012	
3897	0	33948	33948	31017	
3898	0	34749	38204	31032	
3899	0	34340	33905	31029	
3900	0	32360	33854	31028	
3901	0	31750	34798	31060	
3902	0	31888	31111	31066	
3903	0	31944	32508	31060	
3904	0	32108	33756	31072	
3905	0	32568	32424	31049	
3906	0	32804	31452	31048	
3907	0	32852	32756	31050	
3908	0	32936	32840	31036	
3909	0	33315	33336	31044	
3910	0	33056	32278	31048	
3911	0	33074	32278	31044	
3912	0	33205	32438	31024	
3913	0	32840	32512	31016	
3914	0	32729	33161	31021	
3915	0	32356	32928	31056	
3916	0	32246	32192	31062	
3917	0	32000	30426	31060	
3918	0	31996	31589	31066	
3919	0	32456	36012	31052	
3920	0	33260	35684	31044	
3921	0	32284	29300	31040	
3922	0	32916	28448	31021	
3923	0	32992	32457	31018	
3924	0	33296	35274	31023	
3925	0	33649	33104	30997	
3926	0	33000	34260	30965	
3927	0	32902	34512	30976	
3928	0	32892	33869	30976	
3929	0	33012	33570	30992	
3930	0	33020	33070	31001	
3931	0	33044	32041	30993	
3932	0	33078	31884	30980	
3933	0	33056	32436	30942	
3934	0	32964	32264	30940	
3935	0	32388	30424	30940	
3936	0	32128	31608	30932	
3937	0	32076	35585	30928	
3938	0	32122	34400	30914	
3939	0	32310	33929	30889	
3940	0	32608	35516	30908	
3941	0	32916	32076	30904	
3942	0	32738	30300	30913	
3943	0	32584	31220	30909	
3944	0	32642	33644	30916	
3945	0	32826	34728	30897	
3946	0	33109	29106	30880	
3947	0	33208	33068	30872	
3948	0	33324	33408	30880	
3949	0	33269	33232	30864	
3950	0	33301	30885	30864	
3951	0	33392	32528	30888	
3952	0	33036	35328	30868	
3953	0	32356	32288	30880	
3954	0	31944	31608	30882	
3955	0	31800	32054	30861	
3956	0	32374	37296	30882	
3957	0	32185	34768	30884	
3958	0	32480	32306	30866	
3959	0	33052	32472	30860	
3960	0	33284	30328	30837	
3961	0	33736	31128	30828	
3962	0	34232	35300	30844	
3963	0	32964	35328	30840	
3964	0	32078	33600	30852	
3965	0	32296	32145	30846	
3966	0	32448	31452	30838	
3967	0	32576	30746	30852	
3968	0	33492	30860	30864	
3969	0	32992	32472	30861	
3970	0	32841	35644	30862	
3971	0	33548	35109	30873	
3972	0	33364	34746	30881	
3973	0	33016	31284	30869	
3974	0	33472	31740	30874	
3975	0	32920	33942	30868	
3976	0	32306	33164	30889	
3977	0	31988	32548	30928	
3978	0	31896	34856	30932	
3979	0	31916	33596	30908	
3980	0	31996	30628	30888	
3981	0	32172	33072	30880	
3982	0	32364	29087	30868	
3983	0	32596	31012	30873	
3984	0	32884	33436	30881	
3985	0	33000	33686	30872	
3986	0	33084	33119	30900	
3987	0	33216	31966	30920	
3988	0	33332	32361	30918	
3989	0	33636	32151	30905	
3990	0	33402	32868	30930	
3991	0	33288	31344	30936	
3992	0	33102	30334	30944	
3993	0	32864	35372	30968	
3994	0	32577	35116	30964	
3995	0	32489	34756	30960	
3996	0	32412	35544	30956	
3997	0	32256	32671	30924	
3998	0	32152	33268	30932	
3999	0	32592	32624	30916	
4000	0	32612	32676	30877	
4001	0	32576	32532	30869	
4002	0	32485	32548	30848	
4003	0	32592	32471	30848	
4004	0	32768	32373	30836	
4005	0	32742	32444	30844	
4006	0	33232	32454	30856	
4007	0	33216	32538	30868	
4008	0	33260	31692	30880	
4009	0	33277	30400	30872	
4010	0	33224	31860	30896	
4011	0	33117	31449	30928	
4012	0	33008	33216	30928	
4013	0	32890	35260	30932	
4014	0	32740	35656	30949	
4015	0	32636	34926	30944	
4016	0	32529	33948	30928	
4017	0	32368	33050	30940	
4018	0	32084	32829	30935	
4019	0	31944	32793	30920	
4020	0	31748	32177	30906	
4021	0	31949	33077	30912	
4022	0	32992	31780	30898	
4023	0	32853	32052	30894	
4024	0	33208	32160	30884	
4025	0	33732	30644	30892	
4026	0	33356	33096	30856	
4027	0	33190	34460	30885	
4028	0	33280	32934	30882	
4029	0	32960	31980	30864	
4030	0	33164	30172	30876	
4031	0	33968	32684	30892	
4032	0	32856	35306	30890	
4033	0	32124	33576	30904	
4034	0	31876	31573	30906	
4035	0	31640	34126	30897	
4036	0	32556	34553	30876	
4037	0	32220	34370	30888	
4038	0	32628	33464	30888	
4039	0	32936	32742	30906	
4040	0	33320	32424	30912	
4041	0	34040	32796	30913	
4042	0	33813	34486	30901	
4043	0	32320	31334	30918	
4044	0	32228	31700	30945	
4045	0	32352	31132	30958	
4046	0	32609	33010	30928	
4047	0	32708	35240	30948	
4048	0	32705	33570	30948	
4049	0	33484	30308	30976	
4050	0	33932	28470	30956	
4051	0	33432	33184	30932	
4052	0	33324	36940	30942	
4053	0	32996	32592	30952	
4054	0	32569	32145	30964	
4055	0	32338	32644	30968	
4056	0	32248	31852	30936	
4057	0	32065	32968	30946	
4058	0	32021	33613	30952	
4059	0	32008	33538	30949	
4060	0	32090	32696	30953	
4061	0	32232	32744	30962	
4062	0	32364	34452	30976	
4063	0	32589	36756	31012	
4064	0	32794	33648	30996	
4065	0	32856	30888	31008	
4066	0	33344	31232	31004	
4067	0	33568	30684	31004	
4068	0	33408	30256	30989	
4069	0	33216	31900	30990	
4070	0	33382	32285	30988	
4071	0	33280	32121	30982	
4072	0	33018	32656	30992	
4073	0	32952	32992	30988	
4074	0	32700	31952	30962	
4075	0	32532	31975	30978	
4076	0	32418	34168	30988	
4077	0	32412	32928	30992	
4078	0	32272	34177	30990	
4079	0	32200	35939	30988	
4080	0	32264	33956	31012	
4081	0	32504	33160	31000	
4082	0	32689	32957	30992	
4083	0	32840	31061	30968	
4084	0	32972	31656	30956	
4085	0	32848	34500	30940	
4086	0	32770	35836	30936	
4087	0	32860	34152	30929	
4088	0	33060	31941	30940	
4089	0	33177	32138	30914	
4090	0	33532	31852	30908	
4091	0	33984	33750	30892	
4092	0	33152	32464	30888	
4093	0	32852	29672	30880	
4094	0	32580	30113	30873	
4095	0	32317	28644	30888	
4096	0	32756	31938	30888	
4097	0	32348	37636	30886	
4098	0	32196	37404	30868	
4099	0	32172	35040	30876	
4100	0	32280	31736	30872	
4101	0	32240	31254	30852	
4102	0	32208	34020	30852	
4103	0	32852	33109	30860	
4104	0	33092	32597	30873	
4105	0	32585	33616	30872	
4106	0	33060	31916	30872	
4107	0	33312	29868	30850	
4108	0	33160	31757	30868	
4109	0	33020	37074	30870	
4110	0	32864	32792	30864	
4111	0	32788	31316	30852	
4112	0	32780	29948	30837	
4113	0	33280	30668	30824	
4114	0	33532	34832	30833	
4115	0	33892	34332	30845	
4116	0	33948	33552	30836	
4117	0	33240	31928	30849	
4118	0	31804	33280	30853	
4119	0	31740	36076	30876	
4120	0	31904	34672	30857	
4121	0	32236	31500	30848	
4122	0	32476	30756	30854	
4123	0	32244	31878	30870	
4124	0	32368	32448	30861	
4125	0	32610	33004	30857	
4126	0	32842	32014	30842	
4127	0	33076	32281	30854	
4128	0	33344	33918	30852	
4129	0	33556	33008	30848	
4130	0	33414	31596	30860	
4131	0	33052	33084	30846	
4132	0	32657	33872	30868	
4133	0	32544	33992	30878	
4134	0	32384	32478	30864	
4135	0	32712	30940	30865	
4136	0	33904	32448	30869	
4137	0	32540	33992	30874	
4138	0	32149	34917	30852	
4139	0	32408	32984	30857	
4140	0	32284	31360	30880	
4141	0	32208	32590	30865	
4142	0	32368	34996	30888	
4143	0	32390	33268	30879	
4144	0	32496	31028	30854	
4145	0	32746	31964	30878	
4146	0	32960	33937	30861	
4147	0	33336	32600	30874	
4148	0	33528	32456	30884	
4149	0	33744	32144	30900	
4150	0	33590	33020	30888	
4151	0	33480	33001	30888	
4152	0	33088	33080	30866	
4153	0	32696	33185	30876	
4154	0	32494	33266	30876	
4155	0	32396	32678	30852	
4156	0	32228	32554	30856	
4157	0	32200	33108	30860	
4158	0	32469	33298	30860	
4159	0	32496	31761	30868	
4160	0	32516	33380	30884	
4161	0	32544	37032	30904	
4162	0	32548	35948	30896	
4163	0	32526	30490	30904	
4164	0	32666	29194	30912	
4165	0	32812	24961	30896	
4166	0	32740	33320	30880	
4167	0	32729	34473	30888	
4168	0	32984	33826	30884	
4169	0	33000	32416	30896	
4170	0	33545	32804	30868	
4171	0	34916	33616	30884	
4172	0	33620	32376	30911	
4173	0	32792	33964	30916	
4174	0	32381	33145	30920	
4175	0	32300	31562	30948	
4176	0	32250	33064	30956	
4177	0	31972	34054	30972	
4178	0	32208	33240	30966	
4179	0	32661	34844	30948	
4180	0	32616	32822	30940	
4181	0	32332	31284	30930	
4182	0	32141	32244	30925	
4183	0	32624	33686	30905	
4184	0	32820	32621	30916	
4185	0	32988	32332	30922	
4186	0	33310	32112	30910	
4187	0	33148	33572	30910	
4188	0	32974	32966	30900	
4189	0	33010	34376	30908	
4190	0	33204	35513	30904	
4191	0	33289	32120	30912	
4192	0	33444	30309	30928	
4193	0	33416	31807	30926	
4194	0	33312	32204	30920	
4195	0	32669	30146	30936	
4196	0	32280	31216	30944	
4197	0	32208	35822	30936	
4198	0	32064	35884	30934	
4199	0	31948	33423	30936	
4200	0	32290	33210	30914	
4201	0	32380	32685	30924	
4202	0	32504	32508	30920	
4203	0	32728	32461	30929	
4204	0	33112	32519	30930	
4205	0	32911	32775	30905	
4206	0	32817	32048	30909	
4207	0	32772	30778	30916	
4208	0	32821	32324	30916	
4209	0	32876	34800	30922	
4210	0	32932	36468	30944	
4211	0	32749	30176	30936	
4212	0	33052	29532	30928	
4213	0	33082	33272	30948	
4214	0	32860	35148	30956	
4215	0	33257	33488	30958	
4216	0	33408	34549	30936	
4217	0	33665	32145	30940	
4218	0	33912	29981	30930	
4219	0	33084	33016	30920	
4220	0	31681	33848	30910	
4221	0	31688	32604	30917	
4222	0	32072	32768	30930	
4223	0	32224	32848	30920	
4224	0	32520	33064	30916	
4225	0	32668	35894	30913	
4226	0	32837	31341	30904	
4227	0	33010	28759	30885	
4228	0	33200	32486	30906	
4229	0	32960	31384	30918	
4230	0	32804	33264	30932	
4231	0	33088	33501	30920	
4232	0	33300	32596	30928	
4233	0	33572	33604	30928	
4234	0	33824	31436	30908	
4235	0	32432	35508	30901	
4236	0	31988	34700	30908	
4237	0	31912	33912	30911	
4238	0	31920	33230	30897	
4239	0	32000	33193	30892	
4240	0	32824	30258	30888	
4241	0	32320	33884	30889	
4242	0	32144	35500	30895	
4243	0	32396	29717	30884	
4244	0	32717	32055	30893	
4245	0	33056	32324	30896	
4246	0	33408	31836	30900	
4247	0	33444	34204	30884	
4248	0	32956	34092	30904	
4249	0	32808	32248	30900	
4250	0	32976	31748	30894	
4251	0	33120	32236	30873	
4252	0	33696	33176	30881	
4253	0	34137	33292	30884	
4254	0	33428	33220	30904	
4255	0	32872	32112	30900	
4256	0	32344	32253	30924	
4257	0	32442	33556	30908	
4258	0	32416	32156	30926	
4259	0	31784	34708	30922	
4260	0	31468	36344	30920	
4261	0	31773	31384	30917	
4262	0	32544	32084	30928	
4263	0	32992	32544	30903	
4264	0	33213	33138	30900	
4265	0	33194	31153	30892	
4266	0	33018	30113	30861	
4267	0	32888	29968	30871	
4268	0	33036	32052	30904	
4269	0	33264	34196	30900	
4270	0	33248	35024	30904	
4271	0	33204	35255	30892	
4272	0	33152	33276	30898	
4273	0	32940	31434	30894	
4274	0	32720	32284	30912	
4275	0	32737	33972	30892	
4276	0	32544	32000	30924	
4277	0	32292	31444	30916	
4278	0	32156	31536	30921	
4279	0	32032	35281	30927	
4280	0	32180	38830	30924	
4281	0	32370	33752	30920	
4282	0	32546	31746	30940	
4283	0	32620	32752	30944	
4284	0	32560	29280	30933	
4285	0	32864	30100	30924	
4286	0	33188	32928	30926	
4287	0	33192	32991	30928	
4288	0	33296	33264	30921	
4289	0	33394	32896	30910	
4290	0	33324	32900	30920	
4291	0	33224	31948	30908	
4292	0	33282	34537	30919	
4293	0	33100	33992	30906	
4294	0	32628	32076	30901	
4295	0	32776	31936	30916	
4296	0	32660	31524	30908	
4297	0	31817	33908	30908	
4298	0	31520	33201	30917	
4299	0	31881	32390	30921	
4300	0	32153	32292	30894	
4301	0	31856	32038	30904	
4302	0	32280	31196	30906	
4303	0	33004	32120	30908	
4304	0	33700	33456	30888	
4305	0	34312	33976	30886	
4306	0	34596	33377	30896	
4307	0	34128	33312	30881	
4308	0	32633	33989	30884	
4309	0	32232	34903	30893	
4310	0	33084	32844	30900	
4311	0	33376	28594	30889	
4312	0	32752	37220	30905	
4313	0	32924	33300	30928	
4314	0	33564	28668	30904	
4315	0	32741	30768	30908	
4316	0	32384	35484	30920	
4317	0	32572	35176	30952	
4318	0	32072	34072	30948	
4319	0	31784	33018	30937	
4320	0	31868	33028	30946	
4321	0	31976	32712	30916	
4322	0	32192	30741	30925	
4323	0	32708	32015	30940	
4324	0	32832	34788	30952	
4325	0	32772	32844	30936	
4326	0	32876	32676	30957	
4327	0	33116	32196	30944	
4328	0	33116	31596	30944	
4329	0	33121	31694	30924	
4330	0	33220	32286	30916	
4331	0	33384	34288	30916	
4332	0	33328	36108	30914	
4333	0	33413	30949	30900	
4334	0	33328	30780	30904	
4335	0	33188	32332	30921	
4336	0	32424	32492	30920	
4337	0	31948	32720	30902	
4338	0	31848	33860	30903	
4339	0	31828	31988	30900	
4340	0	32669	32360	30913	
4341	0	33184	33152	30896	
4342	0	32432	33864	30877	
4343	0	32497	31756	30884	
4344	0	32672	32584	30882	
4345	0	32720	33366	30889	
4346	0	32836	33689	30886	
4347	0	32981	35152	30885	
4348	0	33093	35264	30900	
4349	0	33380	32201	30904	
4350	0	33352	30583	30900	
4351	0	33320	31668	30908	
4352	0	33183	33094	30916	
4353	0	32816	32354	30920	
4354	0	32652	32789	30918	
4355	0	32584	32679	30906	
4356	0	32405	32777	30908	
4357	0	32194	32916	30910	
4358	0	32416	33169	30904	
4359	0	32568	34834	30912	
4360	0	32508	31301	30902	
4361	0	32576	31260	30889	
4362	0	32572	32876	30892	
4363	0	32760	34452	30908	
4364	0	32784	33862	30900	
4365	0	32708	32308	30885	
4366	0	32948	32524	30920	
4367	0	33114	32408	30945	
4368	0	33252	31776	30926	
4369	0	33303	31012	30919	
4370	0	33324	31040	30940	
4371	0	33025	34704	30961	
4372	0	32562	34480	30998	
4373	0	32482	33592	30994	
4374	0	32324	32948	30999	
4375	0	32352	32656	31024	
4376	0	33600	32364	31016	
4377	0	33424	32849	31016	
4378	0	32936	33508	31010	
4379	0	32932	34420	31012	
4380	0	32036	33144	31012	
4381	0	31757	33540	30996	
4382	0	32070	34396	30989	
4383	0	32280	34662	31006	
4384	0	32461	34404	30997	
4385	0	32654	32360	31000	
4386	0	33104	29972	30986	
4387	0	33368	29309	30992	
4388	0	33769	29888	30985	
4389	0	33808	28133	30988	
4390	0	33414	34780	30996	
4391	0	33128	35132	31014	
4392	0	33136	35060	31016	
4393	0	32876	32794	31016	
4394	0	32752	32452	31000	
4395	0	32612	33221	31011	
4396	0	32364	32519	31012	
4397	0	32060	32612	31008	
4398	0	31956	33824	30976	
4399	0	31868	33758	30965	
4400	0	32276	34116	30979	
4401	0	32792	32692	30966	
4402	0	32564	31448	30964	
4403	0	32500	36292	30968	
4404	0	32720	30444	30932	
4405	0	32984	28295	30948	
4406	0	33080	29568	30943	
4407	0	33168	34924	30953	
4408	0	33204	36112	30968	
4409	0	33236	34545	30976	
4410	0	33221	31876	30950	
4411	0	33440	31716	30928	
4412	0	33480	32744	30934	
4413	0	33416	33083	30916	
4414	0	32920	32526	30908	
4415	0	32852	32652	30916	
4416	0	32744	34172	30932	
4417	0	32320	32928	30953	
4418	0	31920	31180	30982	
4419	0	31812	34422	31004	
4420	0	32060	35008	30992	
4421	0	32016	32070	30982	
4422	0	31884	32364	30989	
4423	0	31896	33276	31007	
4424	0	31884	32952	30988	
4425	0	32940	32189	30968	
4426	0	33105	29500	30948	
4427	0	32868	32368	30928	
4428	0	34016	34608	30887	
4429	0	34552	34247	30888	
4430	0	34756	33640	30876	
4431	0	34783	31016	30849	
4432	0	34456	31908	30856	
4433	0	32828	33028	30852	
4434	0	32246	32588	30849	
4435	0	32228	33036	30856	
4436	0	32189	33272	30869	
4437	0	32060	33236	30893	
4438	0	31764	33193	30895	
4439	0	31492	33198	30936	
4440	0	31593	33089	30944	
4441	0	31869	33540	30943	
4442	0	32125	34000	30956	
4443	0	32408	32068	30960	
4444	0	32376	32135	30980	
4445	0	32896	32264	30970	
4446	0	33666	31861	30933	
4447	0	33581	32085	30925	
4448	0	34152	33818	30914	
4449	0	34324	32009	30892	
4450	0	33944	30724	30905	
4451	0	33073	32556	30897	
4452	0	32846	35064	30882	
4453	0	32704	35364	30876	
4454	0	32732	33296	30884	
4455	0	32686	31280	30896	
4456	0	32328	32596	30908	
4457	0	31966	34605	30937	
4458	0	31870	30465	30924	
4459	0	31836	32672	30917	
4460	0	32060	33471	30908	
4461	0	32453	33764	30894	
4462	0	32868	33844	30897	
4463	0	32860	32976	30900	
4464	0	32796	32504	30892	
4465	0	32888	32541	30875	
4466	0	32948	33204	30885	
4467	0	33121	33726	30894	
4468	0	33273	33188	30902	
4469	0	33280	32356	30892	
4470	0	33260	35392	30882	
4471	0	33328	29272	30876	
4472	0	33272	29078	30876	
4473	0	33036	31146	30877	
4474	0	33052	32846	30885	
4475	0	33088	37463	30903	
4476	0	32740	32482	30892	
4477	0	32264	30664	30884	
4478	0	32036	32304	30884	
4479	0	31870	33038	30886	
4480	0	32046	34536	30864	
4481	0	32196	33396	30885	
4482	0	32436	33930	30902	
4483	0	32560	34690	30896	
4484	0	32708	33804	30908	
4485	0	32820	32308	30904	
4486	0	33032	30690	30880	
4487	0	33152	31186	30880	
4488	0	33072	32753	30892	
4489	0	33164	33302	30904	
4490	0	33221	33456	30910	
4491	0	33112	32704	30916	
4492	0	33772	32610	30906	
4493	0	34168	32468	30904	
4494	0	33464	32753	30916	
4495	0	32668	32817	30912	
4496	0	31936	32581	30892	
4497	0	31794	34628	30928	
4498	0	32296	32206	30922	
4499	0	32180	32524	30928	
4500	0	32052	34516	30935	
4501	0	32216	33444	30936	
4502	0	32384	32569	30948	
4503	0	32404	33252	30951	
4504	0	32548	32166	30953	
4505	0	32772	32512	30949	
4506	0	33005	32378	30952	
4507	0	33220	32227	30958	
4508	0	33332	31746	30956	
4509	0	33532	31184	30956	
4510	0	33632	35248	30960	
4511	0	33582	34837	30957	
4512	0	33448	31253	30944	
4513	0	33292	32760	30941	
4514	0	32732	32990	30977	
4515	0	32368	32768	30978	
4516	0	32148	30938	30992	
4517	0	31900	32244	30976	
4518	0	31768	33811	30956	
4519	0	32484	33460	30946	
4520	0	33104	33673	30949	
4521	0	32996	33921	30948	
4522	0	32344	32862	30972	
4523	0	31976	31718	30964	
4524	0	32073	30848	30972	
4525	0	32100	34404	30999	
4526	0	32214	35614	30992	
4527	0	33772	31844	30984	
4528	0	33864	31028	30972	
4529	0	33348	31140	30978	
4530	0	32976	32232	30980	
4531	0	33292	33136	30961	
4532	0	33749	33069	30956	
4533	0	33901	32676	30954	
4534	0	34244	32597	30942	
4535	0	34364	33146	30928	
4536	0	32822	34196	30920	
4537	0	31628	33890	30950	
4538	0	31613	32616	30925	
4539	0	31628	32878	30926	
4540	0	31752	33176	30918	
4541	0	31912	32957	30912	
4542	0	32180	33046	30928	
4543	0	32370	32708	30932	
4544	0	32472	32655	30916	
4545	0	32500	32861	30937	
4546	0	32732	32728	30920	
4547	0	32964	32836	30928	
4548	0	33250	31196	30966	
4549	0	33468	31221	30956	
4550	0	33948	35328	30970	
4551	0	34005	33688	30970	
4552	0	33574	31128	30952	
4553	0	32976	32113	30968	
4554	0	32640	33021	30961	
4555	0	32124	35516	30962	
4556	0	32476	31668	30946	
4557	0	32364	27348	30945	
4558	0	32358	31496	30956	
4559	0	32456	35617	30940	
4560	0	32360	36580	30960	
4561	0	32228	37500	30929	
4562	0	32184	36572	30948	
4563	0	32297	34385	30932	
4564	0	32464	31278	30940	
4565	0	32740	31724	30944	
4566	0	32944	33252	30944	
4567	0	33212	31836	30924	
4568	0	33421	29792	30920	
4569	0	33500	29624	30916	
4570	0	33526	32564	30920	
4571	0	33540	31606	30913	
4572	0	33444	32600	30896	
4573	0	33060	31364	30901	
4574	0	32664	32926	30916	
4575	0	32730	33820	30915	
4576	0	32528	34196	30924	
4577	0	32272	34396	30936	
4578	0	32193	32474	30934	
4579	0	32676	32636	30932	
4580	0	32312	33484	30916	
4581	0	32166	32971	30927	
4582	0	32174	32870	30935	
4583	0	32440	32924	30922	
4584	0	32580	32688	30902	
4585	0	32616	32560	30883	
4586	0	32750	34199	30871	
4587	0	32848	30024	30884	
4588	0	33012	32204	30897	
4589	0	33301	34921	30894	
4590	0	33848	35812	30889	
4591	0	33736	32732	30884	
4592	0	33764	30852	30868	
4593	0	33552	30988	30862	
4594	0	33712	31696	30889	
4595	0	32873	32177	30885	
4596	0	32180	31696	30874	
4597	0	31888	31840	30896	
4598	0	31780	34960	30892	
4599	0	31725	35232	30924	
4600	0	31796	33796	30928	
4601	0	32260	32900	30948	
4602	0	32588	32903	30944	
4603	0	32781	32852	30940	
4604	0	32844	32844	30944	
4605	0	32844	32724	30958	
4606	0	33088	32346	30958	
4607	0	33144	32212	30967	
4608	0	33268	33172	30948	
4609	0	33332	35700	30953	
4610	0	33528	31836	30942	
4611	0	33480	30684	30932	
4612	0	33240	30908	30938	
4613	0	33017	30972	30948	
4614	0	32873	31426	30936	
4615	0	32822	34712	30924	
4616	0	32716	33972	30938	
4617	0	32228	31869	30902	
4618	0	32006	33140	30885	
4619	0	31726	34817	30902	
4620	0	31900	34733	30908	
4621	0	32100	34316	30920	
4622	0	32436	33188	30936	
4623	0	33628	32628	30932	
4624	0	32892	32676	30925	
4625	0	32696	30704	30936	
4626	0	33032	29216	30948	
4627	0	32964	31345	30929	
4628	0	33240	34540	30928	
4629	0	33292	36116	30930	
4630	0	33390	33636	30932	
4631	0	33344	32820	30942	
4632	0	33256	32664	30938	
