# OpenSignals Text File Format
# {"00:07:80:4D:2E:99": {"sensor": ["ECG", "XYZ", "XYZ", "XYZ", "SpO2", "SpO2"], "device name": "00:07:80:4D:2E:99", "column": ["nSeq", "DI", "ECG", "XYZ", "XYZ", "XYZ", "SpO2", "SpO2"], "sync interval": 2, "time": "15:22:33", "comments": "", "keywords": "", "device connection": "BTH00:07:80:4D:2E:99", "channels": [1, 2, 3, 4, 9, 10], "date": "2020-09-11", "mode": 0, "digital IO": [0, 1], "firmware version": 775, "device": "biosignalsplux", "position": 0, "sampling rate": 100, "label": ["ECG", "XYZ", "XYZ", "XYZ", "SpO2", "SpO2"], "resolution": [16, 16, 16, 16, 16, 16], "special": [{}, {}, {}, {}, {}, {}], "sleeve color": ["UNKNOWN", "UNKNOWN", "UNKNOWN", "UNKNOWN", "UNKNOWN", "UNKNOWN"]}, "internal sensors": {"sensor": ["xAcc", "yAcc", "zAcc", "xGyr", "yGyr", "zGyr", "xMag", "yMag", "zMag"], "device name": "internal sensors", "column": ["nSeq", "xAcc", "yAcc", "zAcc", "xGyr", "yGyr", "zGyr", "xMag", "yMag", "zMag"], "sync interval": 2, "time": "15:22:35", "comments": "", "keywords": "", "device connection": "UNKNOWNinternal sensors", "channels": [0, 1, 2, 3, 4, 5, 6, 7, 8], "date": "2020-09-11", "mode": 0, "digital IO": [], "firmware version": 0, "device": "android", "position": 0, "sampling rate": 100, "label": ["xAcc", "yAcc", "zAcc", "xGyr", "yGyr", "zGyr", "xMag", "yMag", "zMag"], "resolution": [1, 1, 1, 1, 1, 1, 1, 1, 1], "special": [{}, {}, {}, {}, {}, {}, {}, {}, {}], "sleeve color": ["UNKNOWN", "UNKNOWN", "UNKNOWN", "UNKNOWN", "UNKNOWN", "UNKNOWN", "UNKNOWN", "UNKNOWN", "UNKNOWN"]}}
# EndOfHeader
0.0	0.0	-0.07439221203385674	-1.44157755	-2.282988119	10.575491359	0.311151123046875	0.4033447265625	99.85	8.4287869	-0.205901339	-5.187038	-4.2714179e-05	0.0010201493	0.0015515983	-28.0	-22.0	8.300003	
0.01	0.0	-0.06055597936089304	-1.416080259	-2.31436939	10.50684481	0.31116943359375	0.4033447265625	99.859	8.440758	-0.228646259	-5.1942205	0.00056815149	0.00224187969	0.0015515983	-28.0	-22.0	8.300003	
0.02	0.0	-0.06055597936089304	-1.445500209	-2.345750679	10.54018742	0.31116943359375	0.40330810546875	99.87	8.440758	-0.228646259	-5.1942205	0.00056815149	0.001631014	0.00094073309	-28.0	-22.0	8.300003	
0.03	0.0	-0.05480585669160943	-1.447461539	-2.361441319	10.46173422	0.31116943359375	0.403271484375	99.879	8.4599109	-0.23104046	-5.2181625	-4.2714179e-05	0.00040928368	-0.000280997249	-28.0	-22.0	8.300003	
0.04	0.0	-0.04779789468842002	-1.435693559	-2.375170629	10.46369555	0.31116943359375	0.403253173828125	99.89	8.461109	-0.208295549	-5.2061915	-0.0012644455	-0.0008124467	-0.000891862439	-28.0	-21.8999939	8.300003	
0.05	0.0	-0.031086600680814525	-1.4513842	-2.435971859	10.481347519	0.31122436523437497	0.403289794921875	99.9	8.4539259	-0.174776719	-5.1942205	-0.00248617679	-0.0014233124	-0.00333532339	-28.0	-21.8999939	8.300003	
0.06	0.0	-0.027447851179158492	-1.435693559	-2.424203879	10.50488348	0.3112060546875	0.403216552734375	99.909	8.445546	-0.16160862	-5.17626429	-0.003707908	-0.0020341769	-0.003946189	-28.0	-21.8999939	8.3999939	
0.07	0.0	-0.00880487533734053	-1.44942287	-2.43204919	10.528419439	0.3112060546875	0.403289794921875	99.92	8.4323789	-0.16519992	-5.149928	-0.00187531109	-0.0014233124	-0.00333532339	-28.0	-21.8999939	8.3999939	
0.08	0.0	0.0012578393339057901	-1.42000292	-2.494811759	10.410739639	0.3112060546875	0.403271484375	99.93	8.423999	-0.15562311	-5.161899	0.00056815149	0.00040928368	-0.00150272759	-28.0999979	-22.0	8.3999939	
0.09	0.0	0.008984566670755643	-1.398428289	-2.455585159	10.418584959	0.311260986328125	0.40330810546875	99.939	8.4251959	-0.16759412	-5.183447	0.0017898828	-0.0008124467	-0.000891862439	-28.0999979	-22.0	8.3999939	
0.1	0.0	0.015273763340284595	-1.433732229	-2.40851324	10.410739639	0.31122436523437497	0.403253173828125	99.95	8.4180139	-0.156820209	-5.199009	0.00056815149	-0.00325590739	-0.000891862439	-28.0999979	-22.0	8.3999939	
0.11	0.0	0.023180182010549562	-1.443538879	-2.43989452	10.418584959	0.3112060546875	0.403253173828125	99.96	8.4263929	-0.18315643	-5.18464369	0.00117901709	-0.0038667729	-0.000280997249	-28.0999979	-22.0	8.3999939	
0.12	0.0	0.013297158672718353	-1.445500209	-2.410474569	10.485270179	0.31131591796874997	0.403253173828125	99.969	8.437167	-0.18315643	-5.1906295	0.00056815149	-0.0014233124	0.00094073309	-28.0	-22.0	8.3999939	
0.13	0.0	0.006828270669774289	-1.435693559	-2.40851324	10.45977289	0.311334228515625	0.40330810546875	99.98	8.433576	-0.190339029	-5.199009	-4.2714179e-05	0.0010201493	0.0015515983	-28.0	-22.0	8.3999939	
0.14	0.0	-0.0017969133341511287	-1.425886909	-2.40066792	10.50488348	0.311370849609375	0.403289794921875	99.99	8.433576	-0.18794483	-5.2217539	-0.0012644455	0.001631014	0.00094073309	-28.0999979	-22.0	8.3999939	
0.15	0.0	-0.00035938266683022574	-1.48080415	-2.337905359	10.50488348	0.311279296875	0.40323486328124997	100.0	8.4323789	-0.201112939	-5.21576829	-0.00187531109	0.00040928368	0.00032986794	-28.0999979	-22.0	8.3999939	
0.16	0.0	0.0007187653336604515	-1.42000292	-2.365363979	10.536264759	0.31138916015625	0.403271484375	100.01	8.4287869	-0.197521639	-5.187038	-0.0030970424	-0.0008124467	0.00094073309	-28.0999979	-22.0	8.5	
0.17	0.0	0.0039532093351324835	-1.44157755	-2.35947999	10.481347519	0.3113525390625	0.403253173828125	100.019	8.4287869	-0.185550629	-5.17985529	-0.00248617679	-0.0008124467	0.00032986794	-28.0999979	-22.0	8.5	
0.18	0.0	-0.0008984566670755643	-1.433732229	-2.33398269	10.481347519	0.311370849609375	0.403216552734375	100.03	8.4287869	-0.18794483	-5.1810527	-0.00187531109	-0.00020158105	0.00032986794	-28.0999979	-22.0	8.5	
0.19	0.0	0.00017969133341511287	-1.4317709	-2.35163467	10.444082249	0.3113525390625	0.40330810546875	100.04	8.4299839	-0.202310039	-5.17985529	-4.2714179e-05	-0.00020158105	0.00032986794	-28.0999979	-22.0	8.5	
0.2	0.0	-0.004132900668547596	-1.443538879	-2.384977279	10.497038159	0.311370849609375	0.403253173828125	100.049	8.435969	-0.19871874	-5.189432	-4.2714179e-05	-0.00020158105	-0.000280997249	-28.0999979	-22.0	8.3999939	
0.21	0.0	-0.0033242896681795883	-1.42000292	-2.449701169	10.426430279	0.31138916015625	0.403363037109375	100.06	8.433576	-0.202310039	-5.1930237	-0.00187531109	0.00040928368	0.00032986794	-28.0999979	-22.0	8.3999939	
0.22	0.0	-0.0034141353348871445	-1.44157755	-2.39282259	10.426430279	0.31140747070312497	0.403363037109375	100.07	8.4323789	-0.18794483	-5.1978119	-0.000653579829	-0.00020158105	0.00032986794	-28.0999979	-22.0	8.3999939	
0.23	0.0	0.003099675501410697	-1.4513842	-2.384977279	10.43427559	0.31140747070312497	0.4033447265625	100.079	8.4323789	-0.18794483	-5.1978119	-0.000653579829	-0.00020158105	-0.00150272759	-28.0999979	-22.0	8.3999939	
0.24	0.0	0.005211048669038273	-1.433732229	-2.39282259	10.4735022	0.31140747070312497	0.40330810546875	100.09	8.4299839	-0.17836803	-5.1930237	-0.00145382429	0.00106290909	-0.0019669866	-28.0999979	-22.0	8.3999939	
0.25	0.0	0.005570431335868499	-1.388621639	-2.39282259	10.442120919	0.311444091796875	0.403417968749	100.1	8.4299839	-0.16639702	-5.17267269	-0.0008429587	0.00228463949	-0.0019669866	-28.0999979	-22.0	8.3999939	
0.26	0.0	0.006468888002944063	-1.41019627	-2.424203879	10.449966239	0.31149902343749997	0.4033447265625	100.109	8.437167	-0.164002819	-5.18464369	-0.00145382429	0.00228463949	-0.00135612119	-28.0999979	-22.0	8.3999939	
0.27	0.0	0.010961171338321885	-1.433732229	-2.386938609	10.46173422	0.31153564453125	0.403363037109375	100.12	8.420407	-0.180762229	-5.17985529	-0.0008429587	0.00289550469	-0.00135612119	-28.0999979	-22.0	8.3999939	
0.28	0.0	0.012758084672473014	-1.404312279	-2.39282259	10.50488348	0.311553955078125	0.403472900390625	100.129	8.420407	-0.180762229	-5.17985529	-0.00023209304	0.003506369	-0.00074525597	-28.0999979	-22.0	8.3999939	
0.29	0.0	0.014644843673331699	-1.44157755	-2.367325309	10.497038159	0.311444091796875	0.40338134765625	100.14	8.4323789	-0.19393034	-5.18823529	-0.00023209304	0.003506369	-0.00074525597	-28.0999979	-22.0	8.3999939	
0.3	0.0	0.015273763340284595	-1.45922952	-2.345750679	10.524496779	0.31149902343749997	0.403417968749	100.15	8.4323789	-0.19393034	-5.18823529	-0.0008429587	0.00228463949	-0.000134390779	-28.0999979	-22.0	8.5	
0.31	0.0	0.015453454673699707	-1.445500209	-2.337905359	10.51272879	0.31149902343749997	0.403417968749	100.159	8.435969	-0.185550629	-5.2014029	-0.00023209304	0.0004520435	-0.000134390779	-28.0999979	-22.0	8.5	
0.32	0.0	0.015498377507053485	-1.472958829	-2.36928664	10.54607141	0.311517333984375	0.403436279296875	100.17	8.42759	-0.17717093	-5.2014029	-0.00145382429	-0.000158821229	-0.000134390779	-28.0999979	-22.100006	8.5	
0.33	0.0	0.01617222000736016	-1.445500209	-2.390861269	10.481347519	0.31159057617187497	0.403417968749	100.18	8.4383639	-0.18914193	-5.187038	-0.00206469	-0.00138055249	0.00047647439	-28.0999979	-22.100006	8.5	
0.34	0.0	0.014420229506562809	-1.423925579	-2.39282259	10.451927569	0.31160888671875	0.403472900390625	100.189	8.431181	-0.18315643	-5.1810527	-0.00145382429	-0.00076968689	0.00047647439	-28.0999979	-22.0	8.5	
0.35	0.0	0.013656541339548578	-1.423925579	-2.36928664	10.520574119	0.311627197265625	0.403472900390625	100.2	8.446744	-0.196324539	-5.1822495	-0.00145382429	-0.00076968689	0.0010873396	-28.0999979	-22.0	8.5	
0.36	0.0	0.014914380673454368	-1.445500209	-2.377131959	10.489192839	0.31159057617187497	0.403582763671875	100.21	8.444349	-0.18674773	-5.1906295	-0.00206469	-0.00076968689	-0.000134390779	-28.0999979	-22.100006	8.5	
0.37	0.0	0.016262065674067714	-1.467074839	-2.36928664	10.451927569	0.311627197265625	0.403546142578125	100.219	8.444349	-0.18674773	-5.1906295	-0.00145382429	-0.00076968689	-0.000134390779	-28.0999979	-22.100006	8.5	
0.38	0.0	0.013297158672718353	-1.43961622	-2.422242549	10.43819826	0.311572265625	0.40352783203125	100.23	8.4395609	-0.17238252	-5.19182629	-0.0008429587	-0.00076968689	-0.000134390779	-28.0999979	-22.0	8.3999939	
0.39	0.0	0.01284793033918057	-1.445500209	-2.40066792	10.475463529	0.31160888671875	0.403619384765625	100.24	8.4395609	-0.17238252	-5.19182629	-0.0008429587	0.0004520435	-0.000134390779	-28.0999979	-22.0	8.3999939	
0.4	0.0	0.010287328838015211	-1.443538879	-2.414397229	10.50488348	0.31168212890624997	0.40367431640625	100.25	8.431181	-0.174776719	-5.1786585	0.00037877262	0.0016737739	-0.00074525597	-28.200005	-22.100006	8.3999939	
0.41	0.0	0.013297158672718353	-1.433732229	-2.396745259	10.50488348	0.311663818359375	0.403619384765625	100.26	8.422802	-0.18195933	-5.183447	0.00037877262	0.0016737739	-0.00074525597	-28.200005	-22.100006	8.3999939	
0.42	0.0	0.009927946171184986	-1.463152179	-2.36928664	10.442120919	0.311700439453125	0.403546142578125	100.269	8.421604	-0.17597382	-5.189432	-0.00023209304	0.00106290909	-0.00074525597	-28.200005	-22.0	8.5	
0.43	0.0	0.008984566670755643	-1.445500209	-2.36928664	10.46565688	0.311663818359375	0.4036376953125	100.28	8.435969	-0.196324539	-5.1942205	-0.00023209304	0.00106290909	-0.000134390779	-28.200005	-22.0	8.5	
0.44	0.0	0.008625184003925418	-1.418041589	-2.39282259	10.51272879	0.311700439453125	0.403729248046875	100.29	8.42759	-0.18674773	-5.1930237	-0.00023209304	0.00106290909	0.0010873396	-28.200005	-22.0	8.3999939	
0.45	0.0	0.012129165005520118	-1.435693559	-2.36928664	10.442120919	0.311737060546875	0.40371093749	100.29	8.42759	-0.18674773	-5.1930237	-0.00023209304	0.0004520435	0.00047647439	-28.200005	-22.0	8.3999939	
0.46	0.0	0.008625184003925418	-1.4317709	-2.384977279	10.489192839	0.31175537109375	0.403729248046875	100.31	8.437167	-0.185550629	-5.1942205	-0.0008429587	0.0004520435	0.00047647439	-28.200005	-22.100006	8.5	
0.47	0.0	0.009703332004416095	-1.467074839	-2.377131959	10.481347519	0.31175537109375	0.40378417968749997	100.32	8.4431519	-0.18794483	-5.1858409	-0.00145382429	0.0004520435	-0.000134390779	-28.200005	-22.100006	8.5	
0.48	0.0	0.004851666002208047	-1.48080415	-2.38105462	10.42839161	0.31175537109375	0.40378417968749997	100.329	8.4323789	-0.185550629	-5.18823529	-0.00206469	-0.000158821229	0.00047647439	-28.200005	-22.100006	8.5	
0.49	0.0	0.0044922833353778216	-1.445500209	-2.384977279	10.451927569	0.3117919921875	0.403857421875	100.34	8.4299839	-0.19273324	-5.187038	-0.00206469	-0.000158821229	0.00047647439	-28.200005	-22.100006	8.5	
0.5	0.0	0.0019766046675662417	-1.445500209	-2.361441319	10.489192839	0.311737060546875	0.40382080078125	100.35	8.4299839	-0.19273324	-5.187038	-0.00145382429	0.0004520435	-0.000134390779	-28.200005	-22.100006	8.3999939	
0.51	0.0	-0.0008984566670755643	-1.42000292	-2.386938609	10.50488348	0.31177368164062497	0.403857421875	100.359	8.4323789	-0.185550629	-5.1822495	-0.0008429587	0.0004520435	-0.000134390779	-28.200005	-22.100006	8.3999939	
0.52	0.0	-0.0017969133341511287	-1.44942287	-2.3535959	10.50488348	0.311810302734375	0.403802490234375	100.37	8.433576	-0.179565129	-5.183447	-0.00145382429	0.00106290909	-0.000134390779	-28.200005	-22.100006	8.3999939	
0.53	0.0	0.0017969133341511287	-1.463152179	-2.367325309	10.483308849	0.31186523437499997	0.40387573242187497	100.379	8.4323789	-0.173579619	-5.195418	-0.00145382429	0.00106290909	-0.00074525597	-28.200005	-22.100006	8.3999939	
0.54	0.0	0.0023359873343964674	-1.465113509	-2.377131959	10.477424859	0.3117919921875	0.40396728515624997	100.39	8.4323789	-0.184353529	-5.189432	-0.00145382429	0.0004520435	-0.000134390779	-28.200005	-22.0	8.3999939	
0.55	0.0	0.00754703600343474	-1.433732229	-2.365363979	10.489192839	0.311810302734375	0.4039306640625	100.4	8.4383639	-0.18195933	-5.189432	-0.0008429587	0.0004520435	0.0010873396	-28.200005	-22.0	8.3999939	
0.56	0.0	0.0044922833353778216	-1.42000292	-2.39870659	10.50292215	0.311846923828125	0.40387573242187497	100.409	8.4323789	-0.190339029	-5.1906295	-0.00145382429	0.0004520435	0.00047647439	-28.200005	-22.0	8.300003	
0.57	0.0	0.014285461006501474	-1.4317709	-2.365363979	10.489192839	0.31195678710937497	0.403948974609375	100.42	8.437167	-0.185550629	-5.1930237	-0.0008429587	0.0004520435	-0.000134390779	-28.200005	-22.0	8.300003	
0.58	0.0	0.01513899484022326	-1.447461539	-2.383015949	10.50488348	0.31186523437499997	0.404022216796875	100.43	8.4395609	-0.190339029	-5.1930237	-0.00023209304	-0.000158821229	-0.000134390779	-28.200005	-22.0	8.300003	
0.59	0.0	0.018508207341756625	-1.457268189	-2.367325309	10.446043579	0.31190185546875	0.403985595703125	100.439	8.4395609	-0.17597382	-5.1822495	-0.00023209304	-0.000158821229	0.00047647439	-28.200005	-22.0	8.300003	
0.6	0.0	0.009748254837769874	-1.453345529	-2.35947999	10.4735022	0.31190185546875	0.4040771484375	100.45	8.444349	-0.19393034	-5.183447	-0.00023209304	0.0004520435	-0.000134390779	-28.200005	-22.0	8.1999969	
0.61	0.0	0.012219010672227675	-1.425886909	-2.35163467	10.481347519	0.31197509765625	0.40404052734375	100.46	8.437167	-0.201112939	-5.177461	-0.00023209304	-0.000158821229	-0.000134390779	-28.200005	-22.0	8.1999969	
0.62	0.0	0.014554998006624143	-1.435693559	-2.36928664	10.402894319	0.31201171875	0.404095458984375	100.469	8.437167	-0.201112939	-5.177461	-0.00145382429	-0.000158821229	-0.00074525597	-28.200005	-22.0	8.100006	
0.63	0.0	0.015273763340284595	-1.435693559	-2.367325309	10.46565688	0.311993408203125	0.404168701171875	100.48	8.4383639	-0.185550629	-5.18464369	-0.0008429587	-0.00076968689	0.00047647439	-28.200005	-22.0	8.100006	
0.64	0.0	-0.018328516008341515	-1.445500209	-2.361441319	10.481347519	0.311993408203125	0.40404052734375	100.49	8.4383639	-0.185550629	-5.18464369	-0.0008429587	-0.00076968689	0.00047647439	-28.200005	-22.0	8.100006	
0.65	0.0	-0.15561269473748776	-1.414118929	-2.39282259	10.481347519	0.311993408203125	0.40415039062499997	100.5	8.437167	-0.19273324	-5.1810527	-0.0008429587	-0.00076968689	-0.00074525597	-28.200005	-22.0	8.100006	
0.66	0.0	-0.06648579336359177	-1.435693559	-2.361441319	10.528419439	0.311993408203125	0.40418701171875	100.51	8.4395609	-0.184353529	-5.183447	-0.00206469	-0.00076968689	-0.000134390779	-28.200005	-21.8999939	8.0	
0.67	0.0	0.42209494219210014	-1.45922952	-2.384977279	10.50880614	0.312066650390625	0.4042236328125	100.519	8.435969	-0.18674773	-5.189432	-0.00206469	-0.000158821229	0.00047647439	-28.200005	-21.8999939	8.0	
0.68	0.0	0.5529102329183023	-1.467074839	-2.3535959	10.528419439	0.312066650390625	0.4042236328125	100.53	8.43477249	-0.179565129	-5.189432	-0.0008429587	-0.000158821229	0.00047647439	-28.200005	-21.8999939	8.0	
0.69	0.0	0.2416848434433268	-1.433732229	-2.40066792	10.481347519	0.31204833984374997	0.40426025390625	100.54	8.42759	-0.18195933	-5.195418	-0.00145382429	0.00106290909	0.00047647439	-28.200005	-21.8999939	8.0	
0.7	0.0	0.07331406403336606	-1.447461539	-2.3535959	10.528419439	0.3120849609375	0.40426025390625	100.549	8.422802	-0.180762229	-5.1942205	-0.00145382429	-0.000158821229	-0.000134390779	-28.200005	-21.8999939	8.0	
0.71	0.0	-0.01936174117547841	-1.433732229	-2.326137379	10.253833239	0.3120849609375	0.404296875	100.56	8.4323789	-0.179565129	-5.187038	-0.0008429587	0.00106290909	-0.000134390779	-28.200005	-21.8999939	8.0	
0.72	0.0	-0.07771650170203631	-1.482765479	-2.406551909	10.416623629	0.312103271484375	0.40433349609374997	100.57	8.4251959	-0.19273324	-5.1906295	-0.00023209304	0.0004520435	-0.000134390779	-28.200005	-21.8999939	8.0	
0.73	0.0	-0.08445492670510305	-1.4317709	-2.384977279	10.481347519	0.312066650390625	0.404351806640625	100.579	8.4251959	-0.19273324	-5.1906295	-0.00145382429	0.00106290909	0.00047647439	-28.200005	-21.8999939	8.0	
0.74	0.0	-0.0837361613714426	-1.42980957	-2.40066792	10.42839161	0.312158203125	0.40440673828125	100.59	8.4287869	-0.18914193	-5.183447	-0.00145382429	0.00106290909	0.00047647439	-28.200005	-21.8999939	8.0	
0.75	0.0	-0.07942356936947989	-1.53768272	-2.361441319	10.449966239	0.312213134765625	0.404443359375	100.6	8.43477249	-0.185550629	-5.195418	-0.00145382429	0.0004520435	-0.000134390779	-28.200005	-21.8999939	8.0	
0.76	0.0	-0.07511097736751718	-1.482765479	-2.426165209	10.371513039	0.31213989257812497	0.404461669921875	100.609	8.437167	-0.18914193	-5.199009	-0.0008429587	0.00106290909	-0.00074525597	-28.200005	-21.8999939	7.800003	
0.77	0.0	-0.07273006719976693	-1.367047009	-2.406551909	10.395049	0.31219482421875	0.40447998046875	100.62	8.4395609	-0.18674773	-5.18823529	-0.0008429587	0.0016737739	-0.00074525597	-28.200005	-21.8999939	7.800003	
0.78	0.0	-0.06877685786463446	-1.325859079	-2.375170629	10.520574119	0.312158203125	0.404571533203125	100.629	8.4395609	-0.18674773	-5.18823529	-0.00023209304	0.0016737739	-0.000134390779	-28.200005	-21.8999939	7.800003	
0.79	0.0	-0.06271227536187439	-1.396466959	-2.34967334	10.58333668	0.312176513671875	0.404534912109375	100.64	8.431181	-0.174776719	-5.1906295	-0.00206469	0.00106290909	-0.000134390779	-28.200005	-21.8999939	7.800003	
0.8	0.0	-0.06397011469578018	-1.418041589	-2.33006004	10.5519554	0.31219482421875	0.404534912109375	100.65	8.422802	-0.16519992	-5.19182629	-0.00206469	-0.000158821229	0.0010873396	-28.200005	-21.8999939	7.899994	
0.81	0.0	-0.06235289269504417	-1.42000292	-2.322214719	10.5519554	0.312176513671875	0.404461669921875	100.659	8.4287869	-0.16519992	-5.1786585	-0.00145382429	-0.000158821229	0.0010873396	-28.200005	-21.8999939	7.899994	
0.82	0.0	-0.059837214027232584	-1.418041589	-2.28102679	10.477424859	0.312213134765625	0.40447998046875	100.67	8.4251959	-0.18315643	-5.17985529	-0.0008429587	0.00106290909	0.0016982048	-28.200005	-21.8999939	7.899994	
0.83	0.0	-0.05498554802502454	-1.404312279	-2.277104129	10.520574119	0.31219482421875	0.404534912109375	100.68	8.4251959	-0.18315643	-5.17985529	-0.00023209304	0.0016737739	0.0023090704	-28.200005	-21.8999939	7.899994	
0.84	0.0	-0.04869635135549559	-1.445500209	-2.320253389	10.522535449	0.312158203125	0.404461669921875	100.689	8.444349	-0.23104046	-5.2049947	-0.0008429587	0.00228463949	0.0016982048	-28.200005	-21.8999939	7.899994	
0.85	0.0	-0.04159854368559863	-1.4709975	-2.33006004	10.489192839	0.31213989257812497	0.40440673828125	100.7	8.444349	-0.23104046	-5.2049947	-0.00023209304	0.0004520435	0.0016982048	-28.200005	-21.8999939	7.899994	
0.86	0.0	-0.03719610601692837	-1.4513842	-2.3535959	10.54607141	0.31213989257812497	0.404351806640625	100.71	8.4623059	-0.219069449	-5.2049947	-0.00206469	-0.00076968689	0.00047647439	-28.2999949	-21.8999939	7.899994	
0.87	0.0	-0.023000490677134448	-1.457268189	-2.3535959	10.4735022	0.31213989257812497	0.40426025390625	100.719	8.4623059	-0.201112939	-5.2049947	-0.00328642129	-0.00076968689	-0.00074525597	-28.2999949	-21.8999939	7.899994	
0.88	0.0	-0.009883023337831209	-1.445500209	-2.40066792	10.410739639	0.31219482421875	0.404296875	100.73	8.4299839	-0.169988319	-5.1547165	-0.00328642129	-0.0019914173	-0.0025778518	-28.2999949	-21.8999939	7.899994	
0.89	0.0	0.0039532093351324835	-1.4709975	-2.42028122	10.398971659	0.312158203125	0.40426025390625	100.74	8.4299839	-0.169988319	-5.1547165	-0.003897287	-0.0026022829	-0.0025778518	-28.2999949	-21.8999939	7.899994	
0.9	0.0	0.02066450334273798	-1.45922952	-2.38889994	10.43427559	0.31219482421875	0.4042236328125	100.75	8.423999	-0.147243409	-5.195418	-0.00328642129	-0.00138055249	-0.0025778518	-28.2999949	-21.800003	7.800003	
0.91	0.0	0.03126629201422964	-1.467074839	-2.384977279	10.481347519	0.312066650390625	0.40415039062499997	100.76	8.423999	-0.147243409	-5.195418	-0.00023209304	-0.000158821229	-0.0019669866	-28.2999949	-21.800003	7.800003	
0.92	0.0	0.034321044682286556	-1.445500209	-2.42812654	10.436236929	0.31212158203125	0.40424194335937497	100.769	8.435969	-0.1592144	-5.207389	0.00160050389	-0.000158821229	-0.00074525597	-28.200005	-21.800003	7.800003	
0.93	0.0	0.03611795801643769	-1.482765479	-2.375170629	10.481347519	0.312103271484375	0.40418701171875	100.78	8.435969	-0.1592144	-5.207389	0.00037877262	-0.0032131476	-0.000134390779	-28.200005	-21.800003	7.800003	
0.94	0.0	0.02749277401251227	-1.474920159	-2.40851324	10.475463529	0.31219482421875	0.4042236328125	100.79	8.433576	-0.16759412	-5.1858409	-0.0008429587	-0.00382401329	0.00047647439	-28.2999949	-21.800003	7.800003	
0.95	0.0	0.016262065674067714	-1.45922952	-2.38889994	10.46565688	0.31213989257812497	0.404095458984375	100.79	8.431181	-0.180762229	-5.1810527	-0.00023209304	-0.00138055249	0.00047647439	-28.2999949	-21.800003	7.800003	
0.96	0.0	0.009029489504109423	-1.465113509	-2.357518659	10.497038159	0.31212158203125	0.404095458984375	100.81	8.435969	-0.18195933	-5.2133739	-0.00023209304	0.0016737739	0.0010873396	-28.2999949	-21.800003	7.800003	
0.97	0.0	0.00017969133341511287	-1.443538879	-2.355557329	10.528419439	0.312103271484375	0.404095458984375	100.82	8.435969	-0.184353529	-5.207389	-0.0008429587	0.00228463949	0.0010873396	-28.2999949	-21.800003	7.800003	
0.98	0.0	0.001437530667320903	-1.445500209	-2.32809871	10.497038159	0.3120849609375	0.4040771484375	100.829	8.420407	-0.19273324	-5.1978119	-0.00206469	0.0004520435	0.0010873396	-28.2999949	-21.800003	7.800003	
0.99	0.0	-0.001437530667320903	-1.4513842	-2.33006004	10.51272879	0.312103271484375	0.404022216796875	100.84	8.420407	-0.19273324	-5.1978119	-0.002675	-0.00076968689	0.0016982048	-28.2999949	-21.800003	7.800003	
1.0	0.0	-0.003503981001594701	-1.433732229	-2.322214719	10.567646039	0.31213989257812497	0.404003906249	100.85	8.422802	-0.185550629	-5.1822495	-0.002675	-0.00138055249	0.0016982048	-28.200005	-21.800003	7.800003	
1.01	0.0	-0.001437530667320903	-1.435693559	-2.31436939	10.42839161	0.312066650390625	0.40396728515624997	100.859	8.431181	-0.190339029	-5.1810527	-0.0008429587	0.0004520435	0.0023090704	-28.200005	-21.800003	7.800003	
1.02	0.0	-0.0017969133341511287	-1.465113509	-2.355557329	10.54018742	0.31212158203125	0.4039306640625	100.87	8.433576	-0.19991584	-5.189432	-0.0008429587	0.0004520435	0.0016982048	-28.200005	-21.800003	7.800003	
1.03	0.0	0.00017969133341511287	-1.4121576	-2.455585159	10.410739639	0.312103271484375	0.4039306640625	100.879	8.4395609	-0.197521639	-5.19661469	-0.00145382429	-0.000158821229	0.0016982048	-28.200005	-21.800003	7.800003	
1.04	0.0	-0.002875061334641806	-1.388621639	-2.39282259	10.449966239	0.31204833984374997	0.40389404296875	100.89	8.435969	-0.201112939	-5.2133739	-0.00206469	-0.000158821229	0.0010873396	-28.200005	-21.800003	7.899994	
1.05	0.0	-0.004312592001962709	-1.42000292	-2.375170629	10.395049	0.31213989257812497	0.40396728515624997	100.9	8.4419559	-0.19273324	-5.2133739	-0.00206469	0.0004520435	0.00047647439	-28.200005	-21.800003	7.899994	
1.06	0.0	-0.006423965169590285	-1.44942287	-2.34967334	10.46565688	0.3120849609375	0.403948974609375	100.909	8.446744	-0.180762229	-5.20379729	-0.002675	0.0016737739	-0.00074525597	-28.200005	-21.800003	7.800003	
1.07	0.0	-0.0039532093351324835	-1.447461539	-2.32809871	10.481347519	0.3120849609375	0.40396728515624997	100.92	8.440758	-0.17118542	-5.20020629	-0.002675	0.0016737739	-0.0019669866	-28.200005	-21.800003	7.800003	
1.08	0.0	-0.0017969133341511287	-1.4513842	-2.375170629	10.469579539	0.31204833984374997	0.403985595703125	100.93	8.440758	-0.17118542	-5.20020629	-0.00145382429	0.0016737739	-0.00135612119	-28.200005	-21.800003	7.800003	
1.09	0.0	0.002740292834580471	-1.4121576	-2.40066792	10.45977289	0.31213989257812497	0.403948974609375	100.939	8.4287869	-0.17118542	-5.19182629	-0.0008429587	0.00289550469	-0.00135612119	-28.200005	-21.800003	7.800003	
1.1	0.0	0.003054752668056919	-1.376853659	-2.384977279	10.50488348	0.312103271484375	0.403912353515625	100.95	8.4263929	-0.190339029	-5.17626429	-0.0008429587	0.003506369	-0.00135612119	-28.200005	-21.800003	7.800003	
1.11	0.0	0.0032344440014720316	-1.388621639	-2.345750679	10.530380769	0.312066650390625	0.404003906249	100.96	8.4263929	-0.184353529	-5.1942205	0.00037877262	0.003506369	-0.00074525597	-28.200005	-21.800003	7.800003	
1.12	0.0	0.0019766046675662417	-1.474920159	-2.345750679	10.53822609	0.3120849609375	0.4039306640625	100.969	8.4251959	-0.184353529	-5.21098	0.00037877262	0.0016737739	0.00047647439	-28.200005	-21.800003	7.800003	
1.13	0.0	0.005570431335868499	-1.45922952	-2.367325309	10.575491359	0.312030029296875	0.403948974609375	100.98	8.4287869	-0.173579619	-5.1978119	-0.0008429587	0.0004520435	0.0010873396	-28.200005	-21.800003	7.800003	
1.14	0.0	0.007007962003189402	-1.44157755	-2.39282259	10.5519554	0.3120849609375	0.403912353515625	100.99	8.4383639	-0.179565129	-5.1978119	-0.00145382429	-0.00138055249	0.0016982048	-28.200005	-21.800003	7.800003	
1.15	0.0	0.011140862671736997	-1.467074839	-2.3535959	10.497038159	0.312066650390625	0.4039306640625	101.0	8.445546	-0.190339029	-5.18823529	-0.00145382429	-0.0019914173	0.0010873396	-28.200005	-21.800003	7.800003	
1.16	0.0	0.006738425003066733	-1.42000292	-2.386938609	10.4735022	0.312066650390625	0.4039306640625	101.01	8.445546	-0.191536129	-5.1930237	-0.00206469	-0.00076968689	0.0010873396	-28.200005	-21.6999969	7.800003	
1.17	0.0	0.011724859505336116	-1.42000292	-2.384977279	10.50488348	0.31204833984374997	0.404022216796875	101.019	8.4431519	-0.184353529	-5.21098	-0.002675	0.0004520435	0.0010873396	-28.200005	-21.6999969	7.800003	
1.18	0.0	0.00754703600343474	-1.427848239	-2.361441319	10.481347519	0.3120849609375	0.403985595703125	101.03	8.4383639	-0.17836803	-5.20020629	-0.00206469	-0.00076968689	0.00047647439	-28.200005	-21.800003	7.800003	
1.19	0.0	0.009703332004416095	-1.404312279	-2.406551909	10.442120919	0.31204833984374997	0.40396728515624997	101.04	8.4383639	-0.18315643	-5.195418	-0.00206469	-0.00076968689	0.00047647439	-28.200005	-21.800003	7.800003	
1.2	0.0	0.004851666002208047	-1.443538879	-2.39870659	10.4735022	0.312030029296875	0.403912353515625	101.049	8.4323789	-0.179565129	-5.18464369	-0.002675	-0.00076968689	-0.00074525597	-28.200005	-21.800003	7.899994	
1.21	0.0	0.010242406004661433	-1.474920159	-2.396745259	10.45977289	0.3120849609375	0.404003906249	101.06	8.422802	-0.180762229	-5.187038	-0.00206469	-0.000158821229	-0.000134390779	-28.200005	-21.800003	7.899994	
1.22	0.0	0.008445492670510304	-1.443538879	-2.43204919	10.489192839	0.3120849609375	0.403948974609375	101.07	8.422802	-0.180762229	-5.187038	-0.0008429587	0.0004520435	-0.000134390779	-28.200005	-21.800003	8.0	
1.23	0.0	0.00202152750092002	-1.435693559	-2.39282259	10.442120919	0.3120849609375	0.403985595703125	101.079	8.4299839	-0.179565129	-5.195418	-0.00023209304	0.0004520435	-0.000134390779	-28.200005	-21.800003	8.0	
1.24	0.0	-0.00013476850006133466	-1.4513842	-2.36928664	10.4735022	0.3120849609375	0.40389404296875	101.09	8.414422	-0.184353529	-5.2014029	-0.00023209304	0.0004520435	0.00047647439	-28.200005	-21.800003	8.0	
1.25	0.0	0.005974736836052503	-1.414118929	-2.345750679	10.444082249	0.312030029296875	0.404022216796875	101.1	8.419209	-0.17597382	-5.1978119	-0.0008429587	0.0004520435	0.00047647439	-28.200005	-21.800003	8.0	
1.26	0.0	-0.0010781480004906773	-1.42000292	-2.367325309	10.50684481	0.312158203125	0.404003906249	101.109	8.421604	-0.18914193	-5.199009	-0.00023209304	-0.000158821229	0.0010873396	-28.200005	-21.800003	7.899994	
1.27	0.0	-0.0008984566670755643	-1.427848239	-2.402629249	10.457811559	0.312030029296875	0.403985595703125	101.12	8.4287869	-0.18674773	-5.20260049	-0.0008429587	-0.000158821229	0.0016982048	-28.200005	-21.800003	7.899994	
1.28	0.0	-0.0008984566670755643	-1.48080415	-2.383015949	10.485270179	0.31212158203125	0.403985595703125	101.129	8.433576	-0.202310039	-5.2097829	-0.00023209304	-0.000158821229	0.0016982048	-28.200005	-21.800003	7.899994	
1.29	0.0	0.00377351800171737	-1.44157755	-2.377131959	10.491154169	0.31204833984374997	0.40396728515624997	101.14	8.43477249	-0.19273324	-5.2061915	-0.000335939229	-0.00031764712	0.00144775029	-28.200005	-21.800003	7.899994	
1.3	0.0	0.0016172220007360158	-1.44157755	-2.404590579	10.45977289	0.312103271484375	0.404022216796875	101.15	8.4395609	-0.19512744	-5.2085857	-0.00094680489	0.0002932176	0.00083688507	-28.200005	-21.800003	8.0	
1.31	0.0	0.006289196669528951	-1.425886909	-2.383015949	10.50488348	0.31212158203125	0.404022216796875	101.159	8.4395609	-0.19273324	-5.1930237	-0.0015576705	0.000904083249	0.00083688507	-28.200005	-21.800003	8.0	
1.32	0.0	0.0016172220007360158	-1.42000292	-2.361441319	10.4735022	0.31204833984374997	0.40404052734375	101.17	8.435969	-0.185550629	-5.1942205	-0.0015576705	0.000904083249	0.000226019879	-28.0999979	-21.800003	8.0	
1.33	0.0	0.005929814002698725	-1.44157755	-2.377131959	10.449966239	0.312030029296875	0.404003906249	101.18	8.4323789	-0.18674773	-5.2014029	-0.0015576705	-0.00031764712	0.000226019879	-28.0999979	-21.800003	8.0	
1.34	0.0	0.0016172220007360158	-1.433732229	-2.38889994	10.489192839	0.3120849609375	0.403985595703125	101.189	8.4323789	-0.18315643	-5.1942205	-0.0015576705	0.0002932176	-0.0003848453	-28.200005	-21.800003	8.0	
1.35	0.0	0.011500245338567224	-1.43961622	-2.37320929	10.497038159	0.312066650390625	0.4040771484375	101.2	8.4323789	-0.18315643	-5.1978119	-0.0015576705	-0.00031764712	-0.0009957105	-28.200005	-21.800003	8.0	
1.36	0.0	0.007412267503373406	-1.402350949	-2.40851324	10.451927569	0.312066650390625	0.404095458984375	101.21	8.4263929	-0.17118542	-5.2014029	-0.0021685362	-0.00092851279	0.000226019879	-28.200005	-21.800003	8.100006	
1.37	0.0	0.008445492670510304	-1.425886909	-2.40066792	10.42054629	0.312066650390625	0.40411376953125	101.219	8.4395609	-0.179565129	-5.199009	-0.00094680489	-0.00031764712	0.00083688507	-28.200005	-21.800003	8.100006	
1.38	0.0	0.006828270669774289	-1.435693559	-2.39282259	10.518612789	0.312066650390625	0.40405883789062497	101.23	8.4323789	-0.190339029	-5.199009	-0.0015576705	-0.00092851279	0.00144775029	-28.200005	-21.800003	8.0	
1.39	0.0	0.0021562960009813546	-1.423925579	-2.40066792	10.50684481	0.312103271484375	0.40405883789062497	101.24	8.433576	-0.18674773	-5.1978119	-0.0015576705	-0.00031764712	0.00144775029	-28.200005	-21.800003	8.0	
1.4	0.0	0.010242406004661433	-1.45922952	-2.377131959	10.449966239	0.312158203125	0.40404052734375	101.25	8.4299839	-0.18315643	-5.1930237	-0.00094680489	-0.00092851279	0.00083688507	-28.200005	-21.800003	8.100006	
1.41	0.0	0.01060178867149166	-1.435693559	-2.361441319	10.4735022	0.31212158203125	0.40411376953125	101.26	8.4419559	-0.17597382	-5.19661469	-0.00094680489	-0.00092851279	0.00083688507	-28.200005	-21.800003	8.100006	
1.42	0.0	0.010107637504600099	-1.435693559	-2.377131959	10.457811559	0.31212158203125	0.404168701171875	101.269	8.4299839	-0.18195933	-5.18823529	-0.00094680489	-0.00092851279	0.000226019879	-28.200005	-21.800003	8.100006	
1.43	0.0	0.008625184003925418	-1.427848239	-2.39282259	10.520574119	0.31204833984374997	0.40418701171875	101.28	8.4299839	-0.18195933	-5.18823529	-0.0015576705	-0.00031764712	0.000226019879	-28.200005	-21.800003	8.100006	
1.44	0.0	0.003054752668056919	-1.404312279	-2.40851324	10.475463529	0.31213989257812497	0.404205322265625	101.29	8.433576	-0.185550629	-5.2049947	-0.0015576705	-0.00031764712	0.00083688507	-28.200005	-21.8999939	8.100006	
1.45	0.0	0.003054752668056919	-1.45922952	-2.361441319	10.51076747	0.312103271484375	0.404205322265625	101.29	8.42759	-0.19512744	-5.20020629	-0.00094680489	-0.0015393784	-0.0003848453	-28.200005	-21.8999939	8.100006	
1.46	0.0	0.005076280168976939	-1.386660309	-2.402629249	10.457811559	0.31213989257812497	0.404278564453125	101.31	8.43477249	-0.191536129	-5.195418	-0.00094680489	-0.00031764712	-0.0003848453	-28.200005	-21.8999939	8.100006	
1.47	0.0	0.004671974668792935	-1.44157755	-2.384977279	10.51272879	0.31223144531249997	0.40426025390625	101.32	8.42759	-0.18914193	-5.20260049	-0.0015576705	-0.00031764712	0.00083688507	-28.200005	-21.8999939	8.100006	
1.48	0.0	0.005390740002453386	-1.4513842	-2.406551909	10.51272879	0.312158203125	0.40426025390625	101.329	8.435969	-0.18315643	-5.199009	-0.00094680489	-0.00031764712	0.00083688507	-28.200005	-21.8999939	8.100006	
1.49	0.0	0.007007962003189402	-1.418041589	-2.40066792	10.4735022	0.31219482421875	0.4043701171875	101.34	8.435969	-0.18315643	-5.199009	-0.0015576705	-0.00031764712	0.000226019879	-28.200005	-21.8999939	8.100006	
1.5	0.0	0.005929814002698725	-1.46119085	-2.39282259	10.50488348	0.31219482421875	0.4043701171875	101.35	8.420407	-0.185550629	-5.2049947	-0.0015576705	-0.00031764712	-0.0003848453	-28.200005	-21.8999939	8.100006	
1.51	0.0	0.010961171338321885	-1.39254429	-2.414397229	10.497038159	0.312176513671875	0.40433349609374997	101.359	8.420407	-0.185550629	-5.2049947	-0.00094680489	-0.00031764712	-0.0003848453	-28.200005	-21.8999939	8.100006	
1.52	0.0	0.0039532093351324835	-1.42000292	-2.40851324	10.491154169	0.31213989257812497	0.40440673828125	101.37	8.422802	-0.185550629	-5.2085857	-0.0015576705	-0.00031764712	0.000226019879	-28.200005	-21.8999939	8.0	
1.53	0.0	0.008265801337095192	-1.43961622	-2.384977279	10.528419439	0.31219482421875	0.40442504882812497	101.379	8.422802	-0.185550629	-5.2085857	-0.0015576705	-0.00031764712	0.000226019879	-28.200005	-21.8999939	8.0	
1.54	0.0	0.008984566670755643	-1.42980957	-2.40066792	10.481347519	0.31219482421875	0.40451660156249997	101.39	8.4263929	-0.17836803	-5.195418	-0.0015576705	0.0002932176	0.000226019879	-28.200005	-21.8999939	8.0	
1.55	0.0	0.005211048669038273	-1.42000292	-2.39870659	10.50488348	0.312213134765625	0.40447998046875	101.4	8.422802	-0.184353529	-5.20020629	-0.00094680489	0.0002932176	0.00144775029	-28.200005	-21.8999939	8.0	
1.56	0.0	0.0007187653336604515	-1.42980957	-2.404590579	10.477424859	0.31223144531249997	0.404534912109375	101.409	8.4323789	-0.190339029	-5.20260049	-0.00094680489	0.0002932176	0.00144775029	-28.200005	-21.8999939	8.0	
1.57	0.0	0.005750122669283612	-1.42980957	-2.361441319	10.481347519	0.3123046875	0.404571533203125	101.42	8.433576	-0.18315643	-5.207389	-0.0015576705	0.0002932176	0.002058616	-28.200005	-21.8999939	8.0	
1.58	0.0	0.00880487533734053	-1.42000292	-2.386938609	10.4735022	0.31226806640625	0.40458984375	101.43	8.433576	-0.18315643	-5.207389	-0.0015576705	0.0002932176	0.00083688507	-28.200005	-21.8999939	8.0	
1.59	0.0	0.003054752668056919	-1.4121576	-2.40066792	10.50488348	0.31223144531249997	0.40462646484375	101.439	8.437167	-0.18794483	-5.1978119	-0.0015576705	0.0002932176	0.000226019879	-28.200005	-21.8999939	8.0	
1.6	0.0	0.006019659669406281	-1.443538879	-2.404590579	10.497038159	0.31226806640625	0.4046630859375	101.45	8.444349	-0.184353529	-5.2061915	-0.0021685362	0.000904083249	-0.0003848453	-28.200005	-21.8999939	8.0	
1.61	0.0	0.008984566670755643	-1.433732229	-2.390861269	10.479386189	0.3123046875	0.4046630859375	101.46	8.444349	-0.184353529	-5.2061915	-0.0015576705	0.000904083249	0.00083688507	-28.200005	-21.8999939	8.0	
1.62	0.0	0.012892853172534349	-1.433732229	-2.416358559	10.51272879	0.31226806640625	0.404681396484375	101.469	8.433576	-0.184353529	-5.2049947	-0.00094680489	0.000904083249	0.000226019879	-28.200005	-21.800003	8.0	
1.63	0.0	0.007367344670019628	-1.418041589	-2.384977279	10.50488348	0.3123046875	0.404681396484375	101.48	8.435969	-0.18315643	-5.20020629	-0.00094680489	0.0002932176	0.000226019879	-28.200005	-21.800003	8.0	
1.64	0.0	0.007726727336849854	-1.445500209	-2.39282259	10.457811559	0.31232299804687497	0.404718017578125	101.49	8.433576	-0.179565129	-5.20020629	-0.0015576705	0.0002932176	0.000226019879	-28.0999979	-21.800003	8.0	
1.65	0.0	0.006468888002944063	-1.433732229	-2.386938609	10.442120919	0.3123046875	0.404736328125	101.5	8.433576	-0.179565129	-5.20020629	-0.000335939229	-0.00031764712	0.000226019879	-28.0999979	-21.800003	8.0	
1.66	0.0	0.010062714671246321	-1.404312279	-2.390861269	10.46173422	0.312359619140625	0.40477294921875	101.51	8.4383639	-0.191536129	-5.19661469	-0.0015576705	-0.00031764712	0.00083688507	-28.0999979	-21.800003	8.0	
1.67	0.0	0.007142730503250737	-1.435693559	-2.39282259	10.481347519	0.312286376953125	0.4048095703125	101.519	8.433576	-0.184353529	-5.20020629	-0.00094680489	-0.00031764712	0.00083688507	-28.0999979	-21.800003	8.0	
1.68	0.0	-0.046540055354514234	-1.425886909	-2.40851324	10.457811559	0.31241455078124997	0.40484619140625	101.53	8.4299839	-0.18914193	-5.2085857	-0.00094680489	-0.00031764712	0.00083688507	-28.0999979	-21.800003	8.0	
1.69	0.0	-0.17178491474484792	-1.435693559	-2.39282259	10.4735022	0.31241455078124997	0.404864501953125	101.54	8.4395609	-0.180762229	-5.2014029	-0.00094680489	-0.00031764712	0.00083688507	-28.0999979	-21.800003	8.0	
1.7	0.0	-0.038993019351079496	-1.44942287	-2.435971859	10.457811559	0.3123779296875	0.404901123046875	101.549	8.435969	-0.18315643	-5.2085857	-0.0015576705	-0.00031764712	0.00144775029	-28.0999979	-21.800003	8.0	
1.71	0.0	0.5730805850941487	-1.42000292	-2.40066792	10.469579539	0.31241455078124997	0.404901123046875	101.56	8.433576	-0.180762229	-5.19661469	-0.0015576705	-0.00031764712	0.000226019879	-28.0999979	-21.800003	8.0	
1.72	0.0	0.6184975696148185	-1.435693559	-2.390861269	10.481347519	0.312359619140625	0.40484619140625	101.57	8.4431519	-0.184353529	-5.2014029	-0.0021685362	-0.00031764712	0.00083688507	-28.0999979	-21.800003	8.100006	
1.73	0.0	0.22717476827005645	-1.435693559	-2.377131959	10.50488348	0.31241455078124997	0.40491943359375	101.579	8.4299839	-0.18794483	-5.20260049	-0.0021685362	-0.00031764712	0.00144775029	-28.0999979	-21.800003	8.100006	
1.74	0.0	0.05642307869234544	-1.42000292	-2.41243589	10.536264759	0.31241455078124997	0.404937744140625	101.59	8.4299839	-0.18674773	-5.2061915	-0.00094680489	-0.00031764712	0.00083688507	-28.0999979	-21.8999939	8.100006	
1.75	0.0	-0.03737579735034348	-1.388621639	-2.40066792	10.279330529	0.31241455078124997	0.404937744140625	101.6	8.4323789	-0.17717093	-5.20379729	-0.000335939229	-0.00031764712	0.00144775029	-28.0999979	-21.8999939	8.100006	
1.76	0.0	-0.09370903037598137	-1.435693559	-2.43989452	10.31855713	0.31250610351562497	0.405029296875	101.609	8.42759	-0.191536129	-5.1978119	-0.00094680489	-0.00092851279	0.00083688507	-28.0999979	-21.800003	8.100006	
1.77	0.0	-0.10260375138002945	-1.388621639	-2.449701169	10.50488348	0.312469482421875	0.405029296875	101.62	8.4287869	-0.19871874	-5.20379729	-0.0015576705	-0.00092851279	0.00144775029	-28.0999979	-21.800003	8.100006	
1.78	0.0	-0.10062714671246321	-1.388621639	-2.47912112	10.42446895	0.312432861328125	0.405084228515625	101.629	8.42759	-0.19871874	-5.2049947	-0.00094680489	-0.00031764712	0.000226019879	-28.0999979	-21.800003	8.100006	
1.79	0.0	-0.09415825870951915	-1.49845612	-2.47912112	10.481347519	0.312432861328125	0.405120849609375	101.64	8.435969	-0.190339029	-5.2085857	-0.0027794018	0.0002932176	-0.0003848453	-28.0999979	-21.800003	8.100006	
1.8	0.0	-0.09128319737487733	-1.457268189	-2.47715979	10.410739639	0.31250610351562497	0.4051025390625	101.65	8.4287869	-0.17597382	-5.21098	-0.0015576705	0.0002932176	-0.0016065757	-28.200005	-21.800003	8.100006	
1.81	0.0	-0.08068140870338568	-1.40038962	-2.36928664	10.436236929	0.312469482421875	0.40521240234375	101.659	8.4287869	-0.17597382	-5.21098	0.000274926419	0.000904083249	-0.0009957105	-28.200005	-21.800003	8.100006	
1.82	0.0	-0.0781657300355741	-1.372931	-2.357518659	10.536264759	0.312542724609375	0.40524902343749997	101.67	8.431181	-0.16160862	-5.2181625	-0.00094680489	0.0015149479	0.000226019879	-28.200005	-21.8999939	8.100006	
1.83	0.0	-0.0775368103686212	-1.365085679	-2.3535959	10.573530029	0.312542724609375	0.405194091796875	101.68	8.413225	-0.1604115	-5.2097829	-0.0015576705	-0.00031764712	0.00083688507	-28.200005	-21.8999939	8.100006	
1.84	0.0	-0.06945070036494112	-1.457268189	-2.31436939	10.569607369	0.31256103515625	0.40521240234375	101.689	8.409634	-0.18914193	-5.1786585	-0.0021685362	-0.00092851279	0.002058616	-28.200005	-21.8999939	8.100006	
1.85	0.0	-0.06823778386438911	-1.45922952	-2.292794769	10.54607141	0.31250610351562497	0.40515747070312497	101.7	8.409634	-0.18914193	-5.1786585	-0.0015576705	0.0002932176	0.0032803463	-28.200005	-21.8999939	8.100006	
1.86	0.0	-0.0614544360279686	-1.388621639	-2.337905359	10.50488348	0.312451171875	0.40521240234375	101.71	8.421604	-0.21068975	-5.183447	-0.000335939229	0.000904083249	0.0032803463	-28.200005	-21.8999939	8.100006	
1.87	0.0	-0.05866922036003435	-1.427848239	-2.31829206	10.49899949	0.312469482421875	0.405010986328125	101.719	8.421604	-0.21068975	-5.183447	0.000274926419	0.0027366788	0.00266948059	-28.200005	-21.8999939	8.100006	
1.88	0.0	-0.0488760426889107	-1.43961622	-2.35947999	10.448004909	0.312396240234375	0.4049560546875	101.73	8.45871449	-0.257376669	-5.2337249	-0.00094680489	0.0021258136	0.00266948059	-28.200005	-21.8999939	8.100006	
1.89	0.0	-0.05220033235709029	-1.472958829	-2.40066792	10.481347519	0.31241455078124997	0.404901123046875	101.74	8.45871449	-0.23822308	-5.2492869	-0.0015576705	-0.00092851279	0.00083688507	-28.200005	-21.8999939	8.100006	
1.9	0.0	-0.05318863469087341	-1.42980957	-2.41243589	10.449966239	0.3123779296875	0.4048095703125	101.75	8.473079	-0.205901339	-5.2337249	-0.0027794018	-0.0021502431	-0.0003848453	-28.2999949	-21.8999939	8.0	
1.91	0.0	-0.04222746335255152	-1.445500209	-2.406551909	10.46565688	0.312359619140625	0.40484619140625	101.76	8.461109	-0.169988319	-5.207389	-0.0040011294	-0.0021502431	-0.002217441	-28.2999949	-21.8999939	8.0	
1.92	0.0	-0.03679180051674436	-1.42000292	-2.47912112	10.410739639	0.312359619140625	0.404754638671875	101.769	8.43477249	-0.15442601	-5.2061915	-0.0046119949	-0.00276110879	-0.004050037	-28.2999949	-21.8999939	8.100006	
1.93	0.0	-0.027627542512573603	-1.404312279	-2.494811759	10.416623629	0.312286376953125	0.4046630859375	101.78	8.42759	-0.15562311	-5.1666875	-0.0046119949	-0.0033719735	-0.004050037	-28.2999949	-21.8999939	8.100006	
1.94	0.0	-0.012892853172534349	-1.418041589	-2.45950782	10.444082249	0.31226806640625	0.40455322265625	101.79	8.412027	-0.152031809	-5.159505	-0.0040011294	-0.00092851279	-0.0034391715	-28.200005	-21.8999939	8.100006	
1.95	0.0	0.005390740002453386	-1.39254429	-2.455585159	10.514690129	0.31223144531249997	0.404534912109375	101.79	8.412027	-0.14604631	-5.1942205	0.000274926419	0.000904083249	-0.0016065757	-28.200005	-21.8999939	8.100006	
1.96	0.0	0.0038184408350711487	-1.41019627	-2.483043779	10.43427559	0.312286376953125	0.40458984375	101.81	8.414422	-0.14963761	-5.22773929	0.0027183889	0.0002932176	0.00083688507	-28.200005	-21.8999939	8.100006	
1.97	0.0	0.016351911340775273	-1.445500209	-2.422242549	10.42250762	0.31223144531249997	0.404571533203125	101.82	8.420407	-0.14963761	-5.2217539	0.0014966577	-0.003982839	0.0032803463	-28.200005	-21.8999939	8.100006	
1.98	0.0	0.0237192560107949	-1.42980957	-2.44773984	10.53234209	0.312213134765625	0.40442504882812497	101.829	8.4287869	-0.18794483	-5.199009	0.000274926419	-0.0015393784	0.0032803463	-28.200005	-21.800003	8.1999969	
1.99	0.0	0.011590091005274781	-1.435693559	-2.406551909	10.497038159	0.31219482421875	0.40442504882812497	101.84	8.4287869	-0.18794483	-5.199009	-0.000335939229	0.0015149479	0.0038912109	-28.200005	-21.800003	8.1999969	
2.0	0.0	0.01689098534102061	-1.447461539	-2.40066792	10.53822609	0.31219482421875	0.404443359375	101.85	8.4491379	-0.191536129	-5.23013349	-0.0015576705	0.0027366788	0.00450207669	-28.200005	-21.800003	8.100006	
2.01	0.0	0.00754703600343474	-1.423925579	-2.34967334	10.475463529	0.312176513671875	0.40433349609374997	101.859	8.43477249	-0.196324539	-5.23013349	-0.0021685362	0.000904083249	0.0038912109	-28.200005	-21.800003	8.100006	
2.02	0.0	0.0027852156679342493	-1.43961622	-2.337905359	10.481347519	0.31223144531249997	0.4043701171875	101.87	8.4287869	-0.201112939	-5.2097829	-0.00339026749	-0.00031764712	0.00266948059	-28.200005	-21.800003	8.0	
2.03	0.0	0.00956856350435476	-1.427848239	-2.304562749	10.497038159	0.31223144531249997	0.404315185546875	101.879	8.4287869	-0.201112939	-5.2097829	-0.0046119949	-0.0015393784	0.002058616	-28.200005	-21.800003	8.0	
2.04	0.0	0.0034141353348871445	-1.388621639	-2.337905359	10.418584959	0.31223144531249997	0.404388427734375	101.89	8.4323789	-0.20949265	-5.1942205	-0.0027794018	-0.00092851279	0.00144775029	-28.200005	-21.800003	8.0	
2.05	0.0	0.0022012188343351327	-1.42000292	-2.357518659	10.567646039	0.31219482421875	0.404278564453125	101.9	8.4263929	-0.201112939	-5.2049947	-0.0015576705	-0.00092851279	0.00083688507	-28.200005	-21.800003	8.0	
2.06	0.0	0.010961171338321885	-1.41019627	-2.445778509	10.46761821	0.31219482421875	0.40418701171875	101.909	8.42759	-0.20350714	-5.21098	-0.0015576705	-0.00031764712	0.002058616	-28.200005	-21.800003	8.0	
2.07	0.0	0.00377351800171737	-1.376853659	-2.416358559	10.43035294	0.312158203125	0.4042236328125	101.92	8.42759	-0.20350714	-5.21098	-0.0015576705	-0.00031764712	0.00083688507	-28.200005	-21.800003	8.0	
2.08	0.0	0.00377351800171737	-1.42980957	-2.39282259	10.49899949	0.312158203125	0.40418701171875	101.93	8.433576	-0.205901339	-5.2205567	-0.0015576705	-0.00031764712	-0.0003848453	-28.200005	-21.800003	8.0	
2.09	0.0	0.010062714671246321	-1.41019627	-2.383015949	10.416623629	0.31213989257812497	0.404205322265625	101.939	8.4299839	-0.17717093	-5.2217539	-0.0021685362	0.000904083249	-0.0003848453	-28.200005	-21.800003	8.0	
2.1	0.0	0.007367344670019628	-1.398428289	-2.377131959	10.526458109	0.31212158203125	0.40426025390625	101.95	8.4287869	-0.173579619	-5.2133739	-0.0021685362	0.0002932176	-0.0003848453	-28.200005	-21.800003	8.0	
2.11	0.0	0.012982698839241904	-1.388621639	-2.434010529	10.426430279	0.312103271484375	0.4042236328125	101.96	8.4263929	-0.17118542	-5.20020629	-0.00094680489	0.000904083249	-0.0009957105	-28.200005	-21.800003	8.0	
2.12	0.0	0.011500245338567224	-1.44942287	-2.386938609	10.402894319	0.3120849609375	0.4042236328125	101.969	8.421604	-0.179565129	-5.1822495	-0.00094680489	0.0027366788	-0.0009957105	-28.200005	-21.800003	8.100006	
2.13	0.0	0.020529734842676645	-1.357240359	-2.38889994	10.50488348	0.31212158203125	0.404205322265625	101.98	8.423999	-0.19512744	-5.19661469	0.000274926419	0.00518013959	0.000226019879	-28.200005	-21.800003	8.100006	
2.14	0.0	0.01617222000736016	-1.418041589	-2.38889994	10.497038159	0.31204833984374997	0.40415039062499997	101.99	8.423999	-0.19512744	-5.19661469	0.000274926419	0.00518013959	0.00083688507	-28.200005	-21.800003	8.100006	
2.15	0.0	0.025336478011530914	-1.414118929	-2.406551909	10.49899949	0.3120849609375	0.40415039062499997	102.0	8.42759	-0.190339029	-5.2097829	0.000274926419	0.0027366788	0.00144775029	-28.200005	-21.800003	8.100006	
2.16	0.0	0.019810969509016195	-1.418041589	-2.38889994	10.555878059	0.31204833984374997	0.40418701171875	102.01	8.445546	-0.18315643	-5.2085857	-0.000335939229	0.0015149479	0.00083688507	-28.200005	-21.800003	8.100006	
2.17	0.0	0.017295290841204614	-1.386660309	-2.375170629	10.528419439	0.312066650390625	0.40415039062499997	102.019	8.445546	-0.185550629	-5.2085857	-0.0021685362	0.0002932176	0.000226019879	-28.200005	-21.800003	8.100006	
2.18	0.0	0.013926078339671247	-1.406273609	-2.416358559	10.489192839	0.31213989257812497	0.404132080078125	102.03	8.4491379	-0.18315643	-5.2085857	-0.0027794018	-0.00031764712	0.000226019879	-28.200005	-21.800003	8.100006	
2.19	0.0	0.02749277401251227	-1.394505629	-2.424203879	10.481347519	0.312066650390625	0.40405883789062497	102.04	8.455123	-0.190339029	-5.2061915	-0.0021685362	-0.00031764712	0.000226019879	-28.200005	-21.800003	8.100006	
2.2	0.0	0.032928436848319434	-1.4121576	-2.43204919	10.479386189	0.312030029296875	0.4040771484375	102.049	8.444349	-0.18195933	-5.207389	-0.00094680489	-0.00031764712	0.002058616	-28.200005	-21.800003	8.100006	
2.21	0.0	0.02389894734421001	-1.357240359	-2.43204919	10.416623629	0.3120849609375	0.4040771484375	102.06	8.431181	-0.179565129	-5.207389	-0.0015576705	-0.00092851279	0.00144775029	-28.200005	-21.800003	8.100006	
2.22	0.0	0.028930304679833173	-1.42000292	-2.40066792	10.469579539	0.312030029296875	0.404022216796875	102.07	8.4323789	-0.179565129	-5.207389	-0.0027794018	-0.00092851279	0.00144775029	-28.2999949	-21.800003	8.0	
2.23	0.0	0.025336478011530914	-1.369008339	-2.42812654	10.442120919	0.31201171875	0.40411376953125	102.079	8.420407	-0.17836803	-5.195418	-0.0027794018	-0.0015393784	0.002058616	-28.2999949	-21.800003	8.0	
2.24	0.0	0.02174265134322866	-1.443538879	-2.449701169	10.489192839	0.31204833984374997	0.40415039062499997	102.09	8.423999	-0.184353529	-5.199009	-0.0021685362	-0.00092851279	0.00083688507	-28.2999949	-21.8999939	8.100006	
2.25	0.0	0.030592449513922967	-1.38077632	-2.463430479	10.481347519	0.3119384765625	0.40411376953125	102.1	8.4299839	-0.174776719	-5.21098	-0.0015576705	0.000904083249	0.00144775029	-28.2999949	-21.8999939	8.100006	
2.26	0.0	0.020125429342492642	-1.41019627	-2.39282259	10.457811559	0.312030029296875	0.40405883789062497	102.109	8.421604	-0.18315643	-5.2205567	-0.0015576705	0.0015149479	0.002058616	-28.2999949	-21.8999939	8.100006	
2.27	0.0	0.022820799343719333	-1.402350949	-2.384977279	10.497038159	0.31201171875	0.40404052734375	102.12	8.42759	-0.196324539	-5.21217729	-0.0015576705	0.000904083249	0.00266948059	-28.2999949	-21.8999939	8.100006	
2.28	0.0	0.016711294007605498	-1.388621639	-2.40851324	10.477424859	0.31197509765625	0.4040771484375	102.129	8.4299839	-0.191536129	-5.21098	-0.0015576705	0.000904083249	0.00266948059	-28.2999949	-21.8999939	8.100006	
2.29	0.0	0.011320554005152111	-1.4513842	-2.40851324	10.481347519	0.312030029296875	0.404022216796875	102.14	8.4383639	-0.19273324	-5.2049947	-0.0021685362	0.000904083249	0.00144775029	-28.2999949	-21.8999939	8.100006	
2.3	0.0	0.021607882843167323	-1.433732229	-2.424203879	10.4735022	0.31201171875	0.40404052734375	102.15	8.4431519	-0.190339029	-5.2085857	-0.0015576705	0.000904083249	0.00144775029	-28.2999949	-21.8999939	8.0	
2.31	0.0	0.015992528673945045	-1.42980957	-2.39870659	10.46565688	0.312030029296875	0.40405883789062497	102.159	8.4431519	-0.190339029	-5.2085857	-0.0015576705	0.000904083249	0.00144775029	-28.2999949	-21.8999939	8.0	
2.32	0.0	0.01886759000858685	-1.427848239	-2.424203879	10.46369555	0.31197509765625	0.404132080078125	102.17	8.4431519	-0.196324539	-5.207389	-0.0015576705	0.000904083249	0.00144775029	-28.400002	-21.8999939	8.0	
2.33	0.0	0.013656541339548578	-1.418041589	-2.430087869	10.457811559	0.311920166015625	0.40404052734375	102.18	8.4419559	-0.18914193	-5.21217729	-0.0015576705	0.0002932176	0.00144775029	-28.400002	-21.8999939	8.0	
2.34	0.0	0.010242406004661433	-1.41019627	-2.40851324	10.43427559	0.31195678710937497	0.4040771484375	102.189	8.4419559	-0.18914193	-5.21217729	-0.001349993	0.000946843069	0.0	-28.400002	-21.8999939	8.0	
2.35	0.0	0.017564827841327284	-1.41019627	-2.40066792	10.481347519	0.31201171875	0.404132080078125	102.2	8.4383639	-0.197521639	-5.2014029	-0.0019608587	0.000946843069	0.0	-28.400002	-21.8999939	8.0	
2.36	0.0	0.010511943004784103	-1.394505629	-2.43989452	10.46565688	0.31197509765625	0.404132080078125	102.21	8.4156189	-0.18674773	-5.2014029	-0.00012826174	0.0003359774	-0.0006108652	-28.400002	-21.8999939	8.0	
2.37	0.0	0.02142819150975221	-1.372931	-2.416358559	10.489192839	0.31195678710937497	0.404168701171875	102.219	8.422802	-0.191536129	-5.21457149	-0.0007391274	0.000946843069	0.0	-28.400002	-21.8999939	8.0	
2.38	0.0	0.014060846839732582	-1.418041589	-2.40066792	10.520574119	0.31201171875	0.404168701171875	102.23	8.42759	-0.185550629	-5.19661469	-0.00012826174	-0.0002748873	0.0	-28.400002	-21.8999939	8.0	
2.39	0.0	0.02120357734298332	-1.37096967	-2.40066792	10.4735022	0.311993408203125	0.4042236328125	102.24	8.420407	-0.17836803	-5.1930237	-0.00012826174	0.0003359774	0.0006108652	-28.400002	-21.8999939	8.0	
2.4	0.0	0.014195615339793917	-1.372931	-2.416358559	10.487231509	0.312030029296875	0.404132080078125	102.25	8.4180139	-0.191536129	-5.21098	-0.00012826174	0.000946843069	0.0006108652	-28.400002	-21.8999939	8.0	
2.41	0.0	0.011500245338567224	-1.38273765	-2.424203879	10.477424859	0.31201171875	0.404205322265625	102.26	8.4383639	-0.18315643	-5.2049947	-0.00012826174	0.000946843069	0.0	-28.400002	-21.8999939	8.0	
2.42	0.0	0.00934394933758587	-1.42000292	-2.40066792	10.4735022	0.3119384765625	0.40415039062499997	102.269	8.4383639	-0.18315643	-5.2049947	-0.0007391274	0.0015577078	0.0	-28.400002	-21.8999939	8.0	
2.43	0.0	0.01868789867517174	-1.427848239	-2.414397229	10.483308849	0.311993408203125	0.4042236328125	102.28	8.43477249	-0.19512744	-5.21576829	-0.001349993	0.000946843069	0.0006108652	-28.400002	-21.8999939	8.0	
2.44	0.0	0.010961171338321885	-1.396466959	-2.41831989	10.4735022	0.31201171875	0.4042236328125	102.29	8.431181	-0.18794483	-5.21098	-0.00012826174	0.000946843069	0.0	-28.400002	-21.8999939	8.0	
2.45	0.0	0.014914380673454368	-1.372931	-2.449701169	10.497038159	0.312030029296875	0.4042236328125	102.29	8.431181	-0.18794483	-5.21098	-0.0007391274	0.000946843069	-0.0006108652	-28.400002	-21.8999939	7.899994	
2.46	0.0	0.008984566670755643	-1.388621639	-2.424203879	10.483308849	0.312030029296875	0.404278564453125	102.31	8.4299839	-0.191536129	-5.207389	-0.00012826174	0.0003359774	0.0	-28.400002	-21.8999939	8.0	
2.47	0.0	0.007367344670019628	-1.427848239	-2.39282259	10.46565688	0.31201171875	0.40424194335937497	102.32	8.4323789	-0.19273324	-5.2061915	-0.0007391274	0.0003359774	0.0006108652	-28.400002	-21.8999939	8.0	
2.48	0.0	0.007367344670019628	-1.396466959	-2.430087869	10.489192839	0.31204833984374997	0.404351806640625	102.329	8.437167	-0.196324539	-5.199009	-0.0007391274	0.0003359774	0.0006108652	-28.400002	-21.8999939	8.0	
2.49	0.0	-0.005211048669038273	-1.418041589	-2.424203879	10.46565688	0.31204833984374997	0.404315185546875	102.34	8.4395609	-0.18914193	-5.2085857	-0.001349993	0.0003359774	0.00122173079	-28.400002	-21.8999939	8.0	
2.5	0.0	0.0019766046675662417	-1.435693559	-2.39870659	10.43427559	0.311993408203125	0.404296875	102.35	8.431181	-0.197521639	-5.2133739	-0.0019608587	-0.0002748873	0.0006108652	-28.400002	-21.8999939	8.0	
2.51	0.0	-0.0019316818342124634	-1.404312279	-2.416358559	10.46173422	0.31201171875	0.404351806640625	102.359	8.431181	-0.197521639	-5.2133739	-0.001349993	-0.0002748873	0.0006108652	-28.400002	-21.8999939	8.0	
2.52	0.0	0.001437530667320903	-1.433732229	-2.40851324	10.497038159	0.31195678710937497	0.40440673828125	102.37	8.4323789	-0.19273324	-5.2133739	-0.0007391274	-0.0002748873	0.0018325956	-28.400002	-21.800003	8.0	
2.53	0.0	0.006738425003066733	-1.44157755	-2.424203879	10.481347519	0.31201171875	0.404461669921875	102.379	8.4299839	-0.184353529	-5.207389	-0.001349993	0.0003359774	0.0006108652	-28.400002	-21.800003	8.0	
2.54	0.0	0.0025606015011653584	-1.41019627	-2.39282259	10.561762049	0.311993408203125	0.40440673828125	102.39	8.4299839	-0.184353529	-5.207389	-0.0007391274	-0.0002748873	0.0	-28.400002	-21.800003	7.899994	
2.55	0.0	0.009703332004416095	-1.404312279	-2.40851324	10.4735022	0.31201171875	0.404461669921875	102.4	8.4383639	-0.191536129	-5.2061915	-0.0007391274	0.0003359774	0.0006108652	-28.400002	-21.800003	7.899994	
2.56	0.0	0.013656541339548578	-1.404312279	-2.424203879	10.449966239	0.312030029296875	0.40442504882812497	102.409	8.4299839	-0.190339029	-5.207389	-0.00012826174	0.000946843069	0.0	-28.400002	-21.800003	7.899994	
2.57	0.0	0.012398702005642788	-1.386660309	-2.424203879	10.536264759	0.312030029296875	0.404443359375	102.42	8.4251959	-0.191536129	-5.20260049	-0.001349993	0.000946843069	-0.0006108652	-28.400002	-21.800003	7.899994	
2.58	0.0	0.006828270669774289	-1.416080259	-2.40851324	10.457811559	0.31201171875	0.40451660156249997	102.43	8.431181	-0.18315643	-5.2049947	-0.0007391274	0.0015577078	0.0	-28.400002	-21.800003	7.800003	
2.59	0.0	0.012937776005888127	-1.42000292	-2.435971859	10.418584959	0.312030029296875	0.404534912109375	102.439	8.43477249	-0.19273324	-5.2133739	-0.0019608587	0.000946843069	0.0006108652	-28.400002	-21.800003	7.800003	
2.6	0.0	0.007412267503373406	-1.388621639	-2.43204919	10.457811559	0.31204833984374997	0.40458984375	102.45	8.4395609	-0.190339029	-5.207389	-0.0007391274	0.000946843069	0.0	-28.400002	-21.800003	7.899994	
2.61	0.0	0.010691634338199215	-1.372931	-2.43204919	10.442120919	0.31201171875	0.404498291015625	102.46	8.4323789	-0.18195933	-5.2085857	-0.0007391274	0.000946843069	0.0	-28.400002	-21.800003	7.899994	
2.62	0.0	0.0008984566670755643	-1.38273765	-2.45166249	10.418584959	0.31201171875	0.40458984375	102.469	8.4299839	-0.18315643	-5.21217729	-0.0007391274	0.000946843069	0.0	-28.400002	-21.800003	7.899994	
2.63	0.0	-0.1410576967308636	-1.388621639	-2.42812654	10.497038159	0.312103271484375	0.40455322265625	102.48	8.431181	-0.18914193	-5.21217729	-0.0007391274	0.000946843069	0.00122173079	-28.400002	-21.800003	7.899994	
2.64	0.0	-0.17978117908182042	-1.386660309	-2.47127579	10.530380769	0.31204833984374997	0.4046630859375	102.49	8.431181	-0.184353529	-5.2085857	-0.0007391274	0.0015577078	0.00122173079	-28.5	-21.800003	7.800003	
2.65	0.0	0.19334787475466145	-1.416080259	-2.41831989	10.4735022	0.312103271484375	0.40469970703124997	102.5	8.431181	-0.184353529	-5.2085857	-0.001349993	0.000946843069	0.0006108652	-28.5	-21.800003	7.800003	
2.66	0.0	0.8641356223932778	-1.402350949	-2.43989452	10.50096082	0.31213989257812497	0.404644775390625	102.51	8.4383639	-0.18195933	-5.222951	-0.001349993	0.0003359774	0.00122173079	-28.400002	-21.800003	7.899994	
2.67	0.0	0.6269879851186826	-1.38077632	-2.39282259	10.497038159	0.312066650390625	0.404681396484375	102.519	8.4299839	-0.18674773	-5.20020629	-0.0007391274	0.0003359774	0.00122173079	-28.400002	-21.800003	7.899994	
2.68	0.0	0.14015924006378805	-1.42000292	-2.37124797	10.469579539	0.31204833984374997	0.404736328125	102.53	8.4299839	-0.17238252	-5.2049947	-0.001349993	0.0003359774	0.0006108652	-28.400002	-21.800003	7.899994	
2.69	0.0	-0.0044922833353778216	-1.418041589	-2.41831989	10.483308849	0.312066650390625	0.404754638671875	102.54	8.42759	-0.18674773	-5.20379729	-0.001349993	-0.0002748873	0.00122173079	-28.400002	-21.800003	7.899994	
2.7	0.0	-0.09505671537659471	-1.404312279	-2.453623829	10.198916	0.312103271484375	0.404718017578125	102.549	8.431181	-0.18914193	-5.195418	-0.001349993	0.0003359774	0.00122173079	-28.5	-21.800003	7.899994	
2.71	0.0	-0.13872170939646714	-1.42000292	-2.518347719	10.410739639	0.312103271484375	0.404681396484375	102.56	8.435969	-0.19991584	-5.1978119	-0.001349993	0.0015577078	0.0006108652	-28.5	-21.800003	7.899994	
2.72	0.0	-0.1521985594026006	-1.347433709	-2.5301157	10.491154169	0.31212158203125	0.40488281249	102.57	8.43477249	-0.19273324	-5.21576829	-0.0007391274	0.0015577078	0.00122173079	-28.5	-21.800003	7.899994	
2.73	0.0	-0.13890140072988225	-1.42000292	-2.502657079	10.410739639	0.312066650390625	0.40477294921875	102.579	8.4323789	-0.185550629	-5.21098	-0.001349993	0.000946843069	0.0006108652	-28.5	-21.800003	7.899994	
2.74	0.0	-0.12201041538886163	-1.457268189	-2.47715979	10.457811559	0.312176513671875	0.404901123046875	102.59	8.4323789	-0.185550629	-5.21098	-0.0007391274	0.000946843069	0.0	-28.5	-21.800003	7.899994	
2.75	0.0	-0.11715874938665359	-1.42000292	-2.45166249	10.402894319	0.312158203125	0.404901123046875	102.6	8.43477249	-0.18794483	-5.2085857	-0.0007391274	0.0015577078	0.0006108652	-28.5	-21.800003	7.899994	
2.76	0.0	-0.11949473672105006	-1.323897749	-2.384977279	10.442120919	0.31213989257812497	0.40491943359375	102.609	8.433576	-0.180762229	-5.2097829	-0.0007391274	0.0015577078	0.0006108652	-28.5	-21.800003	8.0	
2.77	0.0	-0.10907263938297351	-1.355279029	-2.31436939	10.54411008	0.312176513671875	0.404937744140625	102.62	8.4263929	-0.17597382	-5.21098	-0.001349993	0.0015577078	0.0006108652	-28.5	-21.800003	8.0	
2.78	0.0	-0.10925233071638862	-1.455306859	-2.33006004	10.66178988	0.31213989257812497	0.40497436523437497	102.629	8.413225	-0.17238252	-5.199009	-0.001349993	0.0003359774	0.0006108652	-28.5	-21.800003	7.899994	
2.79	0.0	-0.10529912138125615	-1.4513842	-2.31436939	10.604911309	0.31213989257812497	0.40499267578125	102.64	8.4156189	-0.20949265	-5.19182629	-0.0007391274	-0.0002748873	0.0018325956	-28.5	-21.800003	7.899994	
2.8	0.0	-0.10080683804587832	-1.396466959	-2.322214719	10.495076829	0.312158203125	0.40488281249	102.65	8.4156189	-0.20949265	-5.19182629	-0.00012826174	0.0003359774	0.003054326	-28.5	-21.800003	7.899994	
2.81	0.0	-0.10943202204980373	-1.365085679	-2.361441319	10.497038159	0.31212158203125	0.40484619140625	102.659	8.4323789	-0.246602769	-5.2061915	-0.00012826174	0.0015577078	0.0036651916	-28.5	-21.800003	7.899994	
2.82	0.0	-0.10637726938174683	-1.372931	-2.40851324	10.50488348	0.31204833984374997	0.40479125976562497	102.67	8.446744	-0.257376669	-5.219359	0.00048260389	0.0027794386	0.003054326	-28.400002	-21.800003	7.899994	
2.83	0.0	-0.10359205371381257	-1.386660309	-2.424203879	10.46565688	0.312030029296875	0.404718017578125	102.68	8.457518	-0.24899697	-5.2409077	-0.00012826174	0.0021685734	0.0018325956	-28.400002	-21.800003	7.899994	
2.84	0.0	-0.10763510871565261	-1.4317709	-2.43989452	10.5519554	0.31197509765625	0.40455322265625	102.689	8.473079	-0.22146365	-5.2516813	-0.001349993	-0.0002748873	0.0	-28.400002	-21.800003	8.0	
2.85	0.0	-0.09635947754385428	-1.408234939	-2.46735314	10.483308849	0.31195678710937497	0.40447998046875	102.7	8.473079	-0.184353529	-5.2217539	-0.0025717244	-0.00088575296	-0.0018325956	-28.400002	-21.800003	8.0	
2.86	0.0	-0.09110350604146222	-1.404312279	-2.47127579	10.426430279	0.3119384765625	0.404461669921875	102.71	8.457518	-0.1604115	-5.2061915	-0.003793452	-0.00149661859	-0.00244346069	-28.400002	-21.800003	8.0	
2.87	0.0	-0.08804875337340531	-1.445500209	-2.461469149	10.46369555	0.311883544921875	0.40426025390625	102.719	8.433576	-0.15442601	-5.199009	-0.0050151832	-0.00088575296	-0.0036651914	-28.400002	-21.800003	8.0	
2.88	0.0	-0.07371836953355006	-1.418041589	-2.502657079	10.46173422	0.311846923828125	0.4042236328125	102.73	8.4180139	-0.16160862	-5.16429329	-0.005626049	-0.00149661859	-0.0030543262	-28.400002	-21.800003	8.0	
2.89	0.0	-0.057680918026251235	-1.408234939	-2.498734419	10.457811559	0.31177368164062497	0.4040771484375	102.74	8.400057	-0.148440509	-5.199009	-0.00318258629	-0.0002748873	-0.0018325956	-28.400002	-21.800003	8.0	
2.9	0.0	-0.05278432919068941	-1.396466959	-2.43989452	10.469579539	0.311810302734375	0.40415039062499997	102.75	8.4156189	-0.15562311	-5.234922	0.00109346959	0.0015577078	0.00122173079	-28.400002	-21.6999969	8.0	
2.91	0.0	-0.033422588015210995	-1.42000292	-2.45166249	10.4735022	0.31175537109375	0.4040771484375	102.76	8.4156189	-0.15562311	-5.234922	0.00292606649	-0.00332921369	0.0036651916	-28.400002	-21.6999969	8.0	
2.92	0.0	-0.023000490677134448	-1.416080259	-2.435971859	10.497038159	0.31175537109375	0.40404052734375	102.769	8.42759	-0.18195933	-5.2409077	0.00048260389	-0.004550944	0.003054326	-28.400002	-21.800003	8.100006	
2.93	0.0	-0.01383623267296369	-1.425886909	-2.42812654	10.46565688	0.31175537109375	0.404022216796875	102.78	8.4263929	-0.196324539	-5.2205567	-0.0007391274	-0.00210748329	0.00427605719	-28.400002	-21.800003	8.100006	
2.94	0.0	-0.006648579336359177	-1.42000292	-2.416358559	10.485270179	0.311737060546875	0.40387573242187497	102.79	8.435969	-0.202310039	-5.21576829	-0.001349993	0.000946843069	0.004886922	-28.5	-21.6999969	8.100006	
2.95	0.0	-0.007007962003189402	-1.42000292	-2.39282259	10.4735022	0.311718749	0.403912353515625	102.79	8.4491379	-0.207098449	-5.22773929	-0.0019608587	0.0015577078	0.004886922	-28.5	-21.6999969	8.100006	
2.96	0.0	0.002695370001226693	-1.42000292	-2.384977279	10.481347519	0.311663818359375	0.40382080078125	102.81	8.440758	-0.21428105	-5.2373159	-0.0025717244	0.0015577078	0.003054326	-28.5	-21.6999969	8.100006	
2.97	0.0	0.009523640671000982	-1.4121576	-2.38105462	10.528419439	0.311663818359375	0.40387573242187497	102.82	8.431181	-0.207098449	-5.2313309	-0.0025717244	0.0003359774	0.0024434612	-28.5	-21.6999969	8.100006	
2.98	0.0	0.007726727336849854	-1.38077632	-2.37124797	10.50880614	0.31160888671875	0.40369262695312497	102.829	8.4287869	-0.213083949	-5.195418	-0.0025717244	0.0003359774	0.0024434612	-28.5	-21.6999969	8.100006	
2.99	0.0	0.010242406004661433	-1.42000292	-2.32809871	10.426430279	0.311627197265625	0.40367431640625	102.84	8.4287869	-0.213083949	-5.195418	-0.0019608587	0.000946843069	0.00122173079	-28.5	-21.6999969	8.100006	
3.0	0.0	0.0	-1.388621639	-2.383015949	10.449966239	0.31160888671875	0.403582763671875	102.85	8.4287869	-0.207098449	-5.1906295	-0.0007391274	0.0015577078	0.0006108652	-28.5	-21.6999969	8.0	
3.01	0.0	-0.0034141353348871445	-1.4121576	-2.443817179	10.42446895	0.311572265625	0.40360107421874997	102.859	8.4156189	-0.20470424	-5.20260049	-0.00012826174	0.0015577078	0.00122173079	-28.5	-21.6999969	8.0	
3.02	0.0	0.005750122669283612	-1.404312279	-2.51638639	10.457811559	0.311572265625	0.403546142578125	102.87	8.42759	-0.211886849	-5.21576829	-0.0019608587	0.0015577078	0.0	-28.400002	-21.6999969	8.100006	
3.03	0.0	-0.005929814002698725	-1.357240359	-2.45166249	10.442120919	0.311517333984375	0.40352783203125	102.879	8.431181	-0.20949265	-5.2253449	-0.0019608587	0.0015577078	0.0	-28.400002	-21.6999969	8.100006	
3.04	0.0	0.0005839968335991169	-1.404312279	-2.402629249	10.475463529	0.311572265625	0.403546142578125	102.89	8.4299839	-0.20350714	-5.2133739	-0.0019608587	0.0021685734	-0.0006108652	-28.5	-21.6999969	8.100006	
3.05	0.0	-0.006379042336236507	-1.38077632	-2.422242549	10.51272879	0.311444091796875	0.403619384765625	102.9	8.4395609	-0.184353529	-5.21576829	-0.001349993	0.0027794386	-0.0006108652	-28.5	-21.6999969	8.100006	
3.06	0.0	0.00017969133341511287	-1.42000292	-2.416358559	10.442120919	0.31149902343749997	0.403564453125	102.909	8.437167	-0.168791219	-5.21098	-0.0007391274	0.0027794386	-0.0012217304	-28.5	-21.6999969	8.100006	
3.07	0.0	0.0034141353348871445	-1.365085679	-2.485005109	10.410739639	0.311444091796875	0.40360107421874997	102.92	8.4287869	-0.16160862	-5.2085857	-0.0007391274	0.0027794386	-0.0012217304	-28.5	-21.6999969	8.100006	
3.08	0.0	0.009703332004416095	-1.384698979	-2.46931447	10.50880614	0.31149902343749997	0.403417968749	102.93	8.416816	-0.17836803	-5.18823529	-0.0007391274	0.0040011689	0.0	-28.5	-21.6999969	8.100006	
3.09	0.0	0.010961171338321885	-1.367047009	-2.42812654	10.536264759	0.311480712890625	0.40350952148437497	102.939	8.4323789	-0.19991584	-5.1978119	0.00109346959	0.004612034	0.00122173079	-28.5	-21.6999969	8.100006	
3.1	0.0	0.011140862671736997	-1.365085679	-2.406551909	10.520574119	0.31138916015625	0.403363037109375	102.95	8.4383639	-0.205901339	-5.2217539	0.00048260389	0.0040011689	0.00122173079	-28.5	-21.6999969	8.0	
3.11	0.0	0.020844194676153092	-1.38077632	-2.39870659	10.49899949	0.311425781249	0.403436279296875	102.96	8.445546	-0.19512744	-5.21576829	-0.00012826174	0.0021685734	0.00122173079	-28.5	-21.6999969	8.0	
3.12	0.0	0.016217142840713936	-1.44942287	-2.402629249	10.520574119	0.31138916015625	0.40332641601562497	102.969	8.445546	-0.19512744	-5.21576829	-0.00012826174	0.0003359774	0.00122173079	-28.400002	-21.6999969	8.0	
3.13	0.0	0.02120357734298332	-1.42000292	-2.430087869	10.497038159	0.311334228515625	0.403417968749	102.98	8.4491379	-0.19273324	-5.207389	-0.0025717244	-0.00149661859	0.0006108652	-28.400002	-21.6999969	8.0	
3.14	0.0	0.024078638677625126	-1.394505629	-2.47127579	10.491154169	0.3113525390625	0.40332641601562497	102.99	8.435969	-0.197521639	-5.199009	-0.0025717244	-0.0002748873	0.0006108652	-28.400002	-21.6999969	8.0	
3.15	0.0	0.015273763340284595	-1.38077632	-2.453623829	10.442120919	0.311370849609375	0.40330810546875	103.0	8.437167	-0.19871874	-5.2061915	-0.0025717244	0.000946843069	0.00122173079	-28.400002	-21.6999969	8.0	
3.16	0.0	0.034860118682531895	-1.372931	-2.43989452	10.481347519	0.311297607421875	0.403289794921875	103.01	8.4323789	-0.190339029	-5.2097829	-0.0019608587	0.000946843069	0.0018325956	-28.400002	-21.6999969	8.0	
3.17	0.0	0.02794200234605005	-1.369008339	-2.492850429	10.489192839	0.3113525390625	0.4033447265625	103.019	8.43477249	-0.196324539	-5.2097829	-0.0019608587	0.000946843069	0.0018325956	-28.400002	-21.6999969	8.0	
3.18	0.0	0.02767246534592738	-1.418041589	-2.47127579	10.497038159	0.3113525390625	0.40323486328124997	103.03	8.42759	-0.191536129	-5.219359	-0.001349993	0.0003359774	0.0018325956	-28.400002	-21.6999969	8.0	
3.19	0.0	0.02443802134445535	-1.398428289	-2.47127579	10.4735022	0.311279296875	0.403289794921875	103.04	8.431181	-0.17597382	-5.2061915	-0.0007391274	0.0003359774	0.0006108652	-28.400002	-21.6999969	8.0	
3.2	0.0	0.02214695684341266	-1.36312435	-2.455585159	10.477424859	0.311260986328125	0.403271484375	103.049	8.42759	-0.174776719	-5.2133739	-0.00012826174	0.000946843069	0.00122173079	-28.2999949	-21.600006	7.899994	
3.21	0.0	0.019586355342247303	-1.384698979	-2.43793319	10.442120919	0.31122436523437497	0.403289794921875	103.06	8.4287869	-0.17836803	-5.2133739	0.00048260389	0.0015577078	0.00122173079	-28.2999949	-21.600006	7.899994	
3.22	0.0	0.019945738009077528	-1.388621639	-2.45166249	10.50880614	0.311187744140625	0.40323486328124997	103.07	8.4263929	-0.190339029	-5.2061915	-0.001349993	0.0015577078	0.00122173079	-28.2999949	-21.600006	7.899994	
3.23	0.0	0.020844194676153092	-1.388621639	-2.45166249	10.51272879	0.31124267578125	0.403253173828125	103.079	8.4263929	-0.190339029	-5.2061915	-0.0007391274	0.0015577078	0.00122173079	-28.2999949	-21.600006	7.899994	
3.24	0.0	0.020484812009322867	-1.38273765	-2.435971859	10.477424859	0.3112060546875	0.403216552734375	103.09	8.4299839	-0.19991584	-5.2061915	-0.0019608587	0.0021685734	0.0024434612	-28.2999949	-21.600006	8.0	
3.25	0.0	0.018014056174865064	-1.42000292	-2.41243589	10.489192839	0.31122436523437497	0.40330810546875	103.1	8.433576	-0.20350714	-5.2085857	-0.001349993	0.000946843069	0.0018325956	-28.2999949	-21.600006	8.0	
3.26	0.0	0.012758084672473014	-1.404312279	-2.453623829	10.497038159	0.311187744140625	0.403179931640625	103.109	8.444349	-0.20470424	-5.2217539	-0.0019608587	0.0015577078	0.0024434612	-28.2999949	-21.600006	7.899994	
3.27	0.0	0.012039319338812563	-1.425886909	-2.424203879	10.457811559	0.31124267578125	0.40330810546875	103.12	8.431181	-0.196324539	-5.2133739	-0.001349993	0.000946843069	0.0018325956	-28.2999949	-21.600006	7.899994	
3.28	0.0	0.008535338337217861	-1.40038962	-2.455585159	10.442120919	0.311260986328125	0.403253173828125	103.129	8.4383639	-0.20350714	-5.21217729	-0.0019608587	0.000946843069	0.00122173079	-28.400002	-21.600006	8.0	
3.29	0.0	0.015318686173638373	-1.402350949	-2.475198459	10.444082249	0.311187744140625	0.403271484375	103.14	8.4383639	-0.20350714	-5.21217729	-0.001349993	0.0015577078	0.0006108652	-28.400002	-21.600006	8.0	
3.3	0.0	0.014644843673331699	-1.378814989	-2.463430479	10.50488348	0.311297607421875	0.403363037109375	103.15	8.4383639	-0.19512744	-5.2049947	-0.0019608587	0.000946843069	0.0	-28.2999949	-21.600006	7.899994	
3.31	0.0	0.01563314600711482	-1.396466959	-2.443817179	10.483308849	0.311187744140625	0.403363037109375	103.159	8.4299839	-0.196324539	-5.2097829	-0.001349993	0.000946843069	-0.0006108652	-28.2999949	-21.600006	7.899994	
3.32	0.0	0.008355647003802749	-1.398428289	-2.445778509	10.449966239	0.311260986328125	0.403271484375	103.17	8.423999	-0.18195933	-5.20260049	-0.00012826174	0.0015577078	-0.0006108652	-28.400002	-21.600006	7.899994	
3.33	0.0	0.014554998006624143	-1.365085679	-2.47127579	10.497038159	0.311151123046875	0.403253173828125	103.18	8.423999	-0.18195933	-5.20260049	-0.00012826174	0.0015577078	0.0	-28.400002	-21.600006	7.899994	
3.34	0.0	0.0044922833353778216	-1.394505629	-2.449701169	10.485270179	0.3112060546875	0.403289794921875	103.189	8.4251959	-0.18914193	-5.2061915	-0.00012826174	0.0021685734	0.0006108652	-28.400002	-21.600006	8.0	
3.35	0.0	0.007232576169958293	-1.39254429	-2.455585159	10.404855649	0.31124267578125	0.403271484375	103.2	8.431181	-0.185550629	-5.2049947	0.00048260389	0.0021685734	0.0006108652	-28.400002	-21.600006	8.0	
3.36	0.0	0.004851666002208047	-1.3533177	-2.47912112	10.491154169	0.3112060546875	0.4033447265625	103.21	8.437167	-0.19393034	-5.2049947	0.00048260389	0.0021685734	0.00122173079	-28.400002	-21.600006	7.899994	
3.37	0.0	0.005390740002453386	-1.388621639	-2.43989452	10.469579539	0.31124267578125	0.40330810546875	103.219	8.435969	-0.19393034	-5.2097829	0.00048260389	0.0015577078	0.0018325956	-28.400002	-21.600006	7.899994	
3.38	0.0	-0.0016172220007360158	-1.355279029	-2.475198459	10.469579539	0.31122436523437497	0.40332641601562497	103.23	8.4395609	-0.19991584	-5.21576829	-0.0007391274	0.0015577078	0.0018325956	-28.400002	-21.600006	8.0	
3.39	0.0	-0.006738425003066733	-1.40038962	-2.435971859	10.483308849	0.311279296875	0.40330810546875	103.24	8.4431519	-0.19512744	-5.2097829	-0.00093459339	0.0007330356	0.000299324279	-28.400002	-21.600006	8.0	
3.4	0.0	-0.007007962003189402	-1.372931	-2.465391809	10.4735022	0.3112060546875	0.403363037109375	103.25	8.4431519	-0.202310039	-5.2061915	-0.00093459339	-0.00109955949	0.000910189	-28.400002	-21.600006	7.899994	
3.41	0.0	0.0025156786678115803	-1.37096967	-2.445778509	10.50488348	0.31116943359375	0.4033447265625	103.26	8.4431519	-0.202310039	-5.2061915	-0.0015454589	-0.00048869476	0.000910189	-28.400002	-21.600006	7.899994	
3.42	0.0	-0.002066450334273798	-1.396466959	-2.455585159	10.446043579	0.31116943359375	0.403363037109375	103.269	8.444349	-0.19871874	-5.207389	0.000287137929	-0.00109955949	0.000910189	-28.5	-21.600006	7.899994	
3.43	0.0	0.0014824535006746813	-1.416080259	-2.461469149	10.477424859	0.31116943359375	0.403399658203125	103.28	8.444349	-0.205901339	-5.2014029	-0.00032372773	-0.00048869476	0.000299324279	-28.5	-21.600006	7.899994	
3.44	0.0	0.0014824535006746813	-1.41019627	-2.40851324	10.483308849	0.31124267578125	0.40345458984375	103.29	8.4323789	-0.196324539	-5.21098	0.000287137929	-0.00048869476	0.000910189	-28.5	-21.600006	7.899994	
3.45	0.0	0.002875061334641806	-1.427848239	-2.386938609	10.449966239	0.31124267578125	0.403472900390625	103.29	8.4419559	-0.19991584	-5.2085857	-0.00093459339	-0.00109955949	0.000299324279	-28.5	-21.600006	7.899994	
3.46	0.0	0.018732821508525517	-1.36312435	-2.463430479	10.497038159	0.3112060546875	0.403472900390625	103.31	8.435969	-0.196324539	-5.2181625	-0.00032372773	-0.0017104251	0.000299324279	-28.5999979	-21.600006	7.899994	
3.47	0.0	0.008670106837279196	-1.404312279	-2.46735314	10.50488348	0.311279296875	0.403472900390625	103.32	8.4251959	-0.19871874	-5.2133739	-0.00093459339	-0.00109955949	-0.00031154137	-28.5999979	-21.600006	7.899994	
3.48	0.0	0.005390740002453386	-1.4121576	-2.465391809	10.481347519	0.31116943359375	0.403582763671875	103.329	8.43477249	-0.19393034	-5.219359	-0.0021563247	0.0001221709	-0.00092240656	-28.5999979	-21.600006	7.800003	
3.49	0.0	0.021562960009813545	-1.402350949	-2.453623829	10.45388889	0.31124267578125	0.403546142578125	103.34	8.4287869	-0.19273324	-5.21457149	-0.00032372773	0.0001221709	-0.00031154137	-28.5999979	-21.600006	7.800003	
3.5	0.0	0.01185962800539745	-1.33958839	-2.455585159	10.4735022	0.311260986328125	0.40360107421874997	103.35	8.42759	-0.18794483	-5.2133739	0.000287137929	0.0001221709	-0.00031154137	-28.5999979	-21.600006	7.800003	
3.51	0.0	0.006693502169712954	-1.39254429	-2.463430479	10.457811559	0.31124267578125	0.40367431640625	103.359	8.42759	-0.196324539	-5.21098	0.00089800359	0.0001221709	-0.00031154137	-28.5999979	-21.600006	7.800003	
3.52	0.0	-0.012713161839119237	-1.388621639	-2.414397229	10.514690129	0.31122436523437497	0.403656005859375	103.37	8.4251959	-0.19512744	-5.207389	0.00089800359	0.0001221709	0.000299324279	-28.5999979	-21.5	7.800003	
3.53	0.0	-0.1375986385626227	-1.416080259	-2.449701169	10.53822609	0.311297607421875	0.4036376953125	103.379	8.422802	-0.19512744	-5.207389	0.000287137929	0.0007330356	0.000299324279	-28.5999979	-21.5	7.800003	
3.54	0.0	-0.1901583535865432	-1.388621639	-2.45166249	10.49311549	0.31124267578125	0.403619384765625	103.39	8.43477249	-0.18914193	-5.219359	-0.00093459339	0.0013439013	0.000299324279	-28.5	-21.5	7.800003	
3.55	0.0	0.28732644213076547	-1.372931	-2.47912112	10.412700969	0.311260986328125	0.403765869140625	103.4	8.433576	-0.197521639	-5.2061915	-0.00093459339	0.0001221709	0.000910189	-28.5	-21.5	7.800003	
3.56	0.0	0.9945915304526497	-1.388621639	-2.44773984	10.457811559	0.311297607421875	0.40367431640625	103.409	8.437167	-0.19273324	-5.2181625	-0.00032372773	0.0001221709	0.0015210547	-28.5	-21.600006	7.800003	
3.57	0.0	0.6476075656280668	-1.416080259	-2.43989452	10.457811559	0.311279296875	0.40369262695312497	103.42	8.4299839	-0.19991584	-5.21098	0.000287137929	0.0001221709	0.000299324279	-28.5	-21.600006	7.800003	
3.58	0.0	0.1730427540787537	-1.404312279	-2.455585159	10.442120919	0.311279296875	0.40382080078125	103.43	8.4383639	-0.207098449	-5.20379729	-0.00032372773	-0.00048869476	0.000299324279	-28.5	-21.600006	7.800003	
3.59	0.0	-0.006603656503005398	-1.349395039	-2.435971859	10.398971659	0.311279296875	0.40374755859375	103.439	8.4251959	-0.20350714	-5.20379729	-0.00093459339	0.0007330356	0.000299324279	-28.5	-21.600006	7.800003	
3.6	0.0	-0.1159009100527478	-1.408234939	-2.44185585	10.30678915	0.311297607421875	0.40374755859375	103.45	8.433576	-0.20350714	-5.21098	-0.00032372773	0.0007330356	0.000299324279	-28.5	-21.600006	7.899994	
3.61	0.0	-0.14698751073356234	-1.3337044	-2.534038359	10.489192839	0.311334228515625	0.40382080078125	103.46	8.4299839	-0.207098449	-5.2181625	-0.00032372773	0.0007330356	0.000299324279	-28.5	-21.600006	7.899994	
3.62	0.0	-0.15502869790388862	-1.38077632	-2.49677309	10.418584959	0.31131591796874997	0.403839111328125	103.469	8.433576	-0.19393034	-5.207389	-0.00093459339	0.0001221709	-0.00092240656	-28.5999979	-21.600006	7.800003	
3.63	0.0	-0.14384291239879785	-1.455306859	-2.518347719	10.34797708	0.311334228515625	0.40389404296875	103.48	8.435969	-0.21068975	-5.20020629	-0.00093459339	0.0001221709	-0.00031154137	-28.5999979	-21.600006	7.800003	
3.64	0.0	-0.14851488706759078	-1.414118929	-2.549729	10.363667719	0.31138916015625	0.403948974609375	103.49	8.4431519	-0.20470424	-5.20379729	-0.00093459339	-0.00048869476	-0.00092240656	-28.5	-21.600006	7.800003	
3.65	0.0	-0.1380029440628067	-1.304284449	-2.48696644	10.38916501	0.311334228515625	0.403948974609375	103.5	8.4431519	-0.20470424	-5.20379729	-0.00032372773	0.0007330356	-0.00153327169	-28.5	-21.600006	7.800003	
3.66	0.0	-0.13171374739327774	-1.325859079	-2.36928664	10.53822609	0.31140747070312497	0.404003906249	103.51	8.4323789	-0.17717093	-5.2133739	0.000287137929	0.0013439013	-0.00153327169	-28.5	-21.600006	7.800003	
3.67	0.0	-0.11886581705409717	-1.36312435	-2.361441319	10.638253919	0.31138916015625	0.404095458984375	103.519	8.4323789	-0.17717093	-5.2133739	-0.00032372773	-0.00048869476	-0.00092240656	-28.5	-21.600006	7.800003	
3.68	0.0	-0.12272918072252209	-1.39254429	-2.35163467	10.59314333	0.3113525390625	0.404022216796875	103.53	8.4251959	-0.1592144	-5.18823529	-0.00032372773	-0.0017104251	0.000910189	-28.5	-21.600006	7.800003	
3.69	0.0	-0.11392430538518156	-1.402350949	-2.324176049	10.58333668	0.31138916015625	0.404022216796875	103.54	8.422802	-0.20350714	-5.1822495	0.000287137929	-0.0017104251	0.000910189	-28.5	-21.600006	7.800003	
3.7	0.0	-0.11765290055354516	-1.396466959	-2.341828019	10.444082249	0.31131591796874997	0.40387573242187497	103.549	8.421604	-0.223857859	-5.1810527	0.00089800359	-0.00048869476	0.0015210547	-28.5	-21.600006	7.800003	
3.71	0.0	-0.11086955271712465	-1.398428289	-2.377131959	10.51665146	0.311297607421875	0.40387573242187497	103.56	8.4395609	-0.25378537	-5.2133739	0.00089800359	0.0007330356	0.0021319194	-28.5	-21.600006	7.800003	
3.72	0.0	-0.11931504538763495	-1.42000292	-2.38105462	10.43427559	0.311297607421875	0.403765869140625	103.57	8.457518	-0.27174189	-5.2456959	0.000287137929	0.0007330356	0.0021319194	-28.5999979	-21.600006	7.800003	
3.73	0.0	-0.12254948938910698	-1.435693559	-2.455585159	10.46761821	0.3112060546875	0.40371093749	103.579	8.471883	-0.223857859	-5.2361193	-0.00032372773	-0.00109955949	0.0015210547	-28.5999979	-21.600006	7.800003	
3.74	0.0	-0.12398702005642788	-1.437654889	-2.483043779	10.497038159	0.311151123046875	0.403546142578125	103.59	8.471883	-0.18794483	-5.2169657	-0.00093459339	-0.00354302119	0.000910189	-28.5	-21.600006	7.800003	
3.75	0.0	-0.12488547672350345	-1.435693559	-2.47127579	10.43427559	0.311077880859375	0.403417968749	103.6	8.471883	-0.18794483	-5.2169657	-0.00337805229	-0.0041538859	0.000299324279	-28.5	-21.600006	7.800003	
3.76	0.0	-0.11122893538395487	-1.42980957	-2.500695749	10.457811559	0.311077880859375	0.403216552734375	103.609	8.4180139	-0.17597382	-5.175067	-0.005210649	-0.00354302119	-0.00275500209	-28.5999979	-21.600006	7.800003	
3.77	0.0	-0.11518214471908735	-1.433732229	-2.512463729	10.457811559	0.31102294921875	0.40316162109375	103.62	8.420407	-0.16639702	-5.153519	-0.005210649	-0.00476475149	-0.00397673249	-28.5999979	-21.600006	7.800003	
3.78	0.0	-0.11518214471908735	-1.435693559	-2.48696644	10.451927569	0.311004638671875	0.403070068359375	103.629	8.3964649	-0.1592144	-5.163096	-0.00337805229	-0.00293215549	-0.0021441369	-28.5999979	-21.600006	7.800003	
3.79	0.0	-0.09339457054250491	-1.408234939	-2.483043779	10.46761821	0.310968017578125	0.40305175781249997	103.64	8.392874	-0.1448492	-5.2181625	-0.00093459339	-0.00048869476	-0.00153327169	-28.5999979	-21.600006	7.800003	
3.8	0.0	-0.07982787486966389	-1.396466959	-2.463430479	10.51076747	0.310931396484375	0.402996826171875	103.65	8.392874	-0.1448492	-5.2181625	0.00273060049	0.0001221709	-0.00031154137	-28.5999979	-21.600006	7.800003	
3.81	0.0	-0.07515590020087096	-1.42000292	-2.455585159	10.451927569	0.310931396484375	0.402886962890625	103.659	8.414422	-0.179565129	-5.2289367	0.003952332	-0.00232129079	0.000910189	-28.5999979	-21.600006	7.800003	
3.82	0.0	-0.04105946968535329	-1.42000292	-2.485005109	10.495076829	0.3109130859375	0.402813720703125	103.67	8.4299839	-0.20470424	-5.2253449	0.00273060049	-0.0041538859	0.002742785	-28.5999979	-21.600006	7.800003	
3.83	0.0	-0.014914380673454368	-1.42196425	-2.47127579	10.442120919	0.31087646484375	0.402850341796875	103.68	8.43477249	-0.22026655	-5.2205567	0.00089800359	-0.00293215549	0.00335365069	-28.5999979	-21.600006	7.800003	
3.84	0.0	-0.005929814002698725	-1.404312279	-2.43204919	10.4735022	0.310821533203125	0.4027587890625	103.689	8.451532	-0.21428105	-5.2217539	-0.00032372773	0.0001221709	0.00335365069	-28.5999979	-21.600006	7.899994	
3.85	0.0	0.014554998006624143	-1.365085679	-2.40851324	10.43231427	0.310784912109375	0.402667236328125	103.7	8.43477249	-0.211886849	-5.234922	-0.00093459339	0.00195476649	0.00335365069	-28.5999979	-21.600006	7.899994	
3.86	0.0	0.03593826668302257	-1.335665729	-2.424203879	10.483308849	0.31080322265625	0.40259399414062497	103.71	8.446744	-0.205901339	-5.22773929	-0.00337805229	0.00256563159	0.0021319194	-28.5999979	-21.600006	7.899994	
3.87	0.0	0.04451852785359421	-1.38077632	-2.38889994	10.436236929	0.310711669921875	0.40253906249	103.719	8.437167	-0.20350714	-5.2133739	-0.00337805229	0.0001221709	0.000910189	-28.5999979	-21.600006	7.899994	
3.88	0.0	0.03216474868130521	-1.372931	-2.39870659	10.54214875	0.31067504882812497	0.4024658203125	103.73	8.433576	-0.21428105	-5.1942205	-0.0015454589	0.0001221709	0.000299324279	-28.5999979	-21.6999969	7.899994	
3.89	0.0	0.03755548868375859	-1.365085679	-2.42028122	10.46369555	0.310638427734375	0.402337646484375	103.74	8.4299839	-0.213083949	-5.19182629	-0.00032372773	0.0007330356	0.000299324279	-28.5999979	-21.6999969	7.899994	
3.9	0.0	0.03760041151711237	-1.39254429	-2.361441319	10.4735022	0.310601806640625	0.40228271484375	103.75	8.4287869	-0.22026655	-5.187038	-0.00032372773	0.0007330356	-0.00031154137	-28.5999979	-21.6999969	7.899994	
3.91	0.0	0.050852647356476946	-1.386660309	-2.39282259	10.46565688	0.310565185546875	0.402264404296875	103.76	8.423999	-0.217872349	-5.2061915	0.000287137929	0.0007330356	-0.00092240656	-28.5999979	-21.6999969	7.899994	
3.92	0.0	0.0362976493498528	-1.3533177	-2.549729	10.436236929	0.31058349609374997	0.40222778320312497	103.769	8.431181	-0.20949265	-5.2085857	-0.00032372773	-0.00048869476	-0.00153327169	-28.5999979	-21.600006	7.800003	
3.93	0.0	0.037420720183697256	-1.386660309	-2.494811759	10.398971659	0.31051025390625	0.402191162109375	103.78	8.445546	-0.21547815	-5.2289367	-0.00093459339	-0.00109955949	-0.00153327169	-28.5999979	-21.600006	7.800003	
3.94	0.0	0.017070676674435722	-1.42000292	-2.422242549	10.418584959	0.31051025390625	0.40213623046874997	103.79	8.447941	-0.202310039	-5.2169657	-0.00093459339	-0.00048869476	-0.0021441369	-28.5999979	-21.600006	7.800003	
3.95	0.0	0.021023886009568206	-1.365085679	-2.424203879	10.50096082	0.310455322265625	0.40213623046874997	103.79	8.445546	-0.196324539	-5.2049947	-0.00093459339	0.0007330356	-0.00336586729	-28.5999979	-21.600006	7.800003	
3.96	0.0	0.022730953677011778	-1.357240359	-2.453623829	10.46565688	0.31049194335937497	0.4021728515625	103.81	8.4299839	-0.18674773	-5.20260049	0.000287137929	0.0013439013	-0.00336586729	-28.5999979	-21.600006	7.800003	
3.97	0.0	0.024393098511101573	-1.38077632	-2.502657079	10.42250762	0.3104736328125	0.402099609375	103.82	8.431181	-0.173579619	-5.1978119	0.00089800359	0.00195476649	-0.0021441369	-28.5999979	-21.600006	7.800003	
3.98	0.0	0.01940666400883219	-1.349395039	-2.455585159	10.404855649	0.310418701171875	0.402099609375	103.829	8.4287869	-0.197521639	-5.189432	0.00150886919	0.00256563159	-0.00153327169	-28.5999979	-21.600006	7.800003	
3.99	0.0	0.02803184801275761	-1.3533177	-2.416358559	10.50488348	0.3104736328125	0.4019531249	103.84	8.4287869	-0.197521639	-5.189432	0.00089800359	0.00256563159	-0.00092240656	-28.5999979	-21.600006	7.800003	
4.0	0.0	0.02340479617731845	-1.38077632	-2.416358559	10.481347519	0.31040039062499997	0.40198974609375	103.85	8.4395609	-0.21428105	-5.1978119	0.00089800359	0.00195476649	-0.00031154137	-28.5999979	-21.6999969	7.800003	
4.01	0.0	0.025875552011776253	-1.365085679	-2.42028122	10.46565688	0.31036376953125	0.40191650390625	103.859	8.445546	-0.21428105	-5.21457149	0.00089800359	0.0007330356	0.000299324279	-28.5999979	-21.6999969	7.800003	
4.02	0.0	0.02749277401251227	-1.386660309	-2.40066792	10.449966239	0.310382080078125	0.401934814453125	103.87	8.4527289	-0.21547815	-5.2217539	-0.00032372773	-0.0017104251	-0.00031154137	-28.5999979	-21.6999969	7.800003	
4.03	0.0	0.034680427349116784	-1.388621639	-2.424203879	10.50488348	0.310272216796875	0.40191650390625	103.879	8.451532	-0.205901339	-5.22654249	-0.0015454589	-0.00354302119	0.000299324279	-28.5999979	-21.6999969	7.800003	
4.04	0.0	0.033602279348626106	-1.42000292	-2.43989452	10.522535449	0.310272216796875	0.40186157226562497	103.89	8.4419559	-0.213083949	-5.2014029	-0.0015454589	-0.00232129079	-0.00031154137	-28.5999979	-21.6999969	7.800003	
4.05	0.0	0.040071167351570174	-1.40038962	-2.46735314	10.442120919	0.3103271484375	0.40184326171875	103.9	8.421604	-0.22026655	-5.18823529	-0.0015454589	0.0001221709	-0.00092240656	-28.5999979	-21.6999969	7.800003	
4.06	0.0	0.03472535018247056	-1.388621639	-2.49677309	10.4735022	0.310272216796875	0.401806640625	103.909	8.422802	-0.205901339	-5.19661469	-0.00032372773	0.0001221709	-0.00031154137	-28.5999979	-21.600006	7.800003	
4.07	0.0	0.03234444001472032	-1.396466959	-2.47127579	10.4735022	0.310272216796875	0.401788330078125	103.92	8.4299839	-0.18315643	-5.219359	-0.00032372773	0.0001221709	0.000299324279	-28.5999979	-21.600006	7.800003	
4.08	0.0	0.025156786678115804	-1.355279029	-2.465391809	10.49311549	0.310253906249	0.401806640625	103.93	8.4263929	-0.18674773	-5.21576829	-0.00032372773	-0.00109955949	-0.00031154137	-28.5999979	-21.600006	7.800003	
4.09	0.0	0.029649070013493622	-1.365085679	-2.48696644	10.45388889	0.310253906249	0.40184326171875	103.939	8.435969	-0.185550629	-5.19661469	-0.00093459339	-0.00232129079	-0.00153327169	-28.5999979	-21.600006	7.800003	
4.1	0.0	0.026594317345436706	-1.365085679	-2.492850429	10.481347519	0.31021728515624997	0.401788330078125	103.95	8.4323789	-0.18794483	-5.19661469	-0.00093459339	-0.00109955949	-0.00153327169	-28.5999979	-21.6999969	7.800003	
4.11	0.0	0.0272232370123896	-1.388621639	-2.47127579	10.45388889	0.310235595703125	0.40177001953124997	103.96	8.422802	-0.19512744	-5.20020629	-0.00032372773	0.0013439013	-0.00092240656	-28.5999979	-21.6999969	7.800003	
4.12	0.0	0.024258330011040236	-1.396466959	-2.45166249	10.520574119	0.310107421875	0.40177001953124997	103.969	8.42759	-0.20470424	-5.20379729	0.00089800359	0.00195476649	-0.00092240656	-28.5999979	-21.6999969	7.6999969	
4.13	0.0	0.02066450334273798	-1.35135637	-2.47127579	10.50880614	0.31012573242187497	0.4017333984375	103.98	8.42759	-0.20470424	-5.20379729	0.00150886919	0.0013439013	-0.00092240656	-28.5999979	-21.6999969	7.6999969	
4.14	0.0	0.025336478011530914	-1.38077632	-2.443817179	10.536264759	0.310162353515625	0.4017333984375	103.99	8.433576	-0.196324539	-5.21576829	0.000287137929	0.0001221709	-0.00031154137	-28.5999979	-21.6999969	7.6999969	
4.15	0.0	0.020484812009322867	-1.37096967	-2.453623829	10.49899949	0.31014404296875	0.401715087890625	104.0	8.43477249	-0.208295549	-5.219359	0.000287137929	0.0001221709	0.000910189	-28.5999979	-21.6999969	7.6999969	
4.16	0.0	0.013117467339303239	-1.357240359	-2.44773984	10.451927569	0.31014404296875	0.40169677734375	104.01	8.437167	-0.19871874	-5.2061915	0.000287137929	0.0001221709	0.000299324279	-28.5999979	-21.6999969	7.6999969	
4.17	0.0	0.01513899484022326	-1.398428289	-2.48696644	10.451927569	0.310107421875	0.40169677734375	104.019	8.435969	-0.20949265	-5.2049947	-0.00032372773	0.0001221709	0.000299324279	-28.5999979	-21.6999969	7.6999969	
4.18	0.0	0.010062714671246321	-1.36312435	-2.5105024	10.43427559	0.31012573242187497	0.401715087890625	104.03	8.435969	-0.21068975	-5.2097829	-0.00032372773	0.0007330356	0.000299324279	-28.5999979	-21.6999969	7.6999969	
4.19	0.0	0.017430059341265947	-1.372931	-2.430087869	10.43819826	0.310107421875	0.40169677734375	104.04	8.431181	-0.21068975	-5.2085857	-0.00093459339	0.0007330356	0.000299324279	-28.5999979	-21.6999969	7.6999969	
4.2	0.0	0.010781480004906772	-1.357240359	-2.498734419	10.38131969	0.31012573242187497	0.40169677734375	104.049	8.4395609	-0.208295549	-5.195418	-0.00032372773	-0.00048869476	-0.00031154137	-28.5999979	-21.6999969	7.6000059	
4.21	0.0	0.011679936671982336	-1.378814989	-2.48696644	10.50684481	0.31014404296875	0.401788330078125	104.06	8.433576	-0.20949265	-5.2097829	-0.00032372773	-0.00109955949	-0.00092240656	-28.5999979	-21.6999969	7.6000059	
4.22	0.0	0.003908286501778705	-1.357240359	-2.47715979	10.4735022	0.310107421875	0.40177001953124997	104.07	8.433576	-0.20949265	-5.2097829	-0.00032372773	-0.0017104251	-0.0021441369	-28.5999979	-21.6999969	7.6000059	
4.23	0.0	0.01509407200686948	-1.32193642	-2.455585159	10.489192839	0.310107421875	0.40177001953124997	104.079	8.433576	-0.202310039	-5.1942205	-0.00032372773	-0.00048869476	-0.00275500209	-28.5999979	-21.6999969	7.6000059	
4.24	0.0	-0.0023359873343964674	-1.369008339	-2.463430479	10.451927569	0.310089111328125	0.401751708984375	104.09	8.4323789	-0.19871874	-5.2133739	0.00150886919	0.0007330356	-0.00275500209	-28.5999979	-21.6999969	7.6000059	
4.25	0.0	0.011230708338444554	-1.349395039	-2.449701169	10.491154169	0.310089111328125	0.401806640625	104.1	8.4383639	-0.19512744	-5.21217729	0.0021197349	0.0007330356	-0.00275500209	-28.5999979	-21.6999969	7.6000059	
4.26	0.0	0.0016172220007360158	-1.34154972	-2.494811759	10.457811559	0.310107421875	0.401751708984375	104.109	8.433576	-0.20350714	-5.21098	0.00150886919	0.0007330356	-0.00275500209	-28.5999979	-21.6999969	7.6000059	
4.27	0.0	0.0012578393339057901	-1.372931	-2.455585159	10.50488348	0.31014404296875	0.401806640625	104.12	8.4383639	-0.19871874	-5.2085857	0.00089800359	0.0007330356	-0.00275500209	-28.5999979	-21.6999969	7.6000059	
4.28	0.0	-0.0008535338337217861	-1.384698979	-2.47127579	10.483308849	0.310107421875	0.40184326171875	104.129	8.435969	-0.201112939	-5.21457149	0.00089800359	-0.00048869476	-0.00275500209	-28.700005	-21.6999969	7.6999969	
4.29	0.0	0.0009883023337831209	-1.36312435	-2.449701169	10.477424859	0.31003417968749997	0.401788330078125	104.14	8.444349	-0.19871874	-5.2061915	0.000287137929	-0.00048869476	-0.00275500209	-28.700005	-21.6999969	7.6999969	
4.3	0.0	-0.010422097338076546	-1.38077632	-2.453623829	10.489192839	0.3101806640625	0.401806640625	104.15	8.4323789	-0.20350714	-5.21217729	0.00089800359	-0.00048869476	-0.0021441369	-28.5999979	-21.6999969	7.6999969	
4.31	0.0	-0.005345817169099608	-1.37096967	-2.463430479	10.50488348	0.31014404296875	0.40186157226562497	104.159	8.433576	-0.197521639	-5.19661469	0.000287137929	-0.00109955949	-0.00275500209	-28.5999979	-21.6999969	7.6999969	
4.32	0.0	-0.012174087838873898	-1.369008339	-2.43989452	10.481347519	0.310107421875	0.4018798828125	104.17	8.4323789	-0.19991584	-5.2061915	0.00089800359	-0.00109955949	-0.0021441369	-28.5999979	-21.6999969	7.6999969	
4.33	0.0	-0.00035938266683022574	-1.384698979	-2.455585159	10.412700969	0.310107421875	0.401824951171875	104.18	8.4323789	-0.19991584	-5.2061915	0.00089800359	-0.0017104251	-0.00153327169	-28.5999979	-21.6999969	7.6999969	
4.34	0.0	-0.01060178867149166	-1.38077632	-2.463430479	10.497038159	0.31014404296875	0.401934814453125	104.189	8.435969	-0.21428105	-5.21098	0.00089800359	-0.00109955949	-0.00153327169	-28.700005	-21.6999969	7.800003	
4.35	0.0	-0.0034141353348871445	-1.355279029	-2.47127579	10.51272879	0.310089111328125	0.40191650390625	104.2	8.435969	-0.21428105	-5.21098	0.000287137929	-0.0017104251	-0.00153327169	-28.700005	-21.6999969	7.800003	
4.36	0.0	0.014195615339793917	-1.357240359	-2.483043779	10.520574119	0.31012573242187497	0.401971435546875	104.21	8.435969	-0.21547815	-5.20379729	-0.00032372773	-0.0017104251	-0.0021441369	-28.5999979	-21.6999969	7.800003	
4.37	0.0	0.00377351800171737	-1.404312279	-2.43989452	10.426430279	0.31014404296875	0.40191650390625	104.219	8.422802	-0.208295549	-5.21217729	0.00089800359	-0.00109955949	-0.00275500209	-28.5999979	-21.6999969	7.800003	
4.38	0.0	0.0035938266683022573	-1.41019627	-2.449701169	10.495076829	0.3101806640625	0.4019531249	104.23	8.431181	-0.19991584	-5.21576829	0.000287137929	-0.00048869476	-0.00275500209	-28.5999979	-21.6999969	7.800003	
4.39	0.0	0.011140862671736997	-1.386660309	-2.463430479	10.49899949	0.3101806640625	0.402008056640625	104.24	8.420407	-0.197521639	-5.2217539	0.00089800359	-0.00048869476	-0.00336586729	-28.5999979	-21.6999969	7.800003	
4.4	0.0	0.005390740002453386	-1.372931	-2.494811759	10.41466229	0.31021728515624997	0.402081298828125	104.25	8.4323789	-0.18195933	-5.21098	0.00089800359	0.0001221709	-0.0021441369	-28.5999979	-21.6999969	7.6999969	
4.41	0.0	0.001437530667320903	-1.372931	-2.47912112	10.426430279	0.310162353515625	0.40206298828125	104.26	8.42759	-0.20350714	-5.2085857	0.00150886919	0.0001221709	-0.00153327169	-28.5999979	-21.6999969	7.6999969	
4.42	0.0	-0.011320554005152111	-1.396466959	-2.47715979	10.444082249	0.310235595703125	0.402081298828125	104.269	8.42759	-0.20350714	-5.2085857	0.00089800359	0.0001221709	-0.00153327169	-28.5999979	-21.6999969	7.6999969	
4.43	0.0	-0.06891162636469579	-1.378814989	-2.455585159	10.51272879	0.310162353515625	0.40213623046874997	104.28	8.4287869	-0.20350714	-5.2014029	0.00089800359	-0.00048869476	-0.00153327169	-28.5999979	-21.6999969	7.6999969	
4.44	0.0	-0.22164925976754174	-1.418041589	-2.43793319	10.481347519	0.31021728515624997	0.402264404296875	104.29	8.4287869	-0.20350714	-5.2014029	0.000287137929	-0.00109955949	-0.0021441369	-28.5999979	-21.6999969	7.6999969	
4.45	0.0	-0.0418680806857213	-1.388621639	-2.43204919	10.4735022	0.310253906249	0.402117919921875	104.29	8.4419559	-0.20350714	-5.2133739	0.000287137929	-0.00109955949	-0.0021441369	-28.5999979	-21.6999969	7.6999969	
4.46	0.0	0.8299942690444063	-1.372931	-2.430087869	10.469579539	0.310253906249	0.402191162109375	104.31	8.4395609	-0.19512744	-5.199009	0.00089800359	-0.00109955949	-0.0021441369	-28.5999979	-21.6999969	7.6999969	
4.47	0.0	0.7699773636837587	-1.38273765	-2.463430479	10.491154169	0.310272216796875	0.402191162109375	104.32	8.440758	-0.190339029	-5.2061915	0.00089800359	-0.00048869476	-0.0021441369	-28.5999979	-21.6999969	7.6999969	
4.48	0.0	0.27061514812316	-1.386660309	-2.43793319	10.418584959	0.310253906249	0.40235595703125	104.329	8.43477249	-0.201112939	-5.2085857	0.00089800359	-0.00109955949	-0.0021441369	-28.700005	-21.6999969	7.6999969	
4.49	0.0	0.047258820688174684	-1.365085679	-2.45950782	10.4735022	0.31029052734375	0.402374267578125	104.34	8.43477249	-0.201112939	-5.2085857	0.00089800359	-0.00109955949	-0.0021441369	-28.700005	-21.6999969	7.6999969	
4.5	0.0	-0.10237913721326056	-1.365085679	-2.422242549	10.242065259	0.31029052734375	0.402392578125	104.35	8.433576	-0.213083949	-5.20260049	0.000287137929	-0.00109955949	-0.0021441369	-28.700005	-21.6999969	7.6999969	
4.51	0.0	-0.1478859674006379	-1.396466959	-2.502657079	10.449966239	0.310272216796875	0.402301025390625	104.359	8.423999	-0.217872349	-5.2097829	0.00089800359	-0.00109955949	-0.0021441369	-28.700005	-21.6999969	7.6999969	
4.52	0.0	-0.1507161059019259	-1.357240359	-2.48696644	10.567646039	0.31030883789062497	0.402447509765625	104.37	8.433576	-0.202310039	-5.21098	0.00150886919	-0.00109955949	-0.00275500209	-28.5999979	-21.6999969	7.800003	
4.53	0.0	-0.1491438067345437	-1.4317709	-2.502657079	10.35582239	0.3103271484375	0.40250244140624997	104.379	8.4395609	-0.19871874	-5.219359	0.000287137929	-0.0017104251	-0.00275500209	-28.5999979	-21.6999969	7.800003	
4.54	0.0	-0.14379798956544407	-1.396466959	-2.579148949	10.357783729	0.31043701171875	0.4024658203125	104.39	8.4431519	-0.201112939	-5.207389	0.000287137929	-0.00109955949	-0.00336586729	-28.700005	-21.6999969	7.6999969	
4.55	0.0	-0.1439327580655054	-1.29251647	-2.541883679	10.426430279	0.310345458984375	0.40250244140624997	104.4	8.450335	-0.20470424	-5.1978119	-0.00032372773	-0.00048869476	-0.004587598	-28.700005	-21.6999969	7.6999969	
4.56	0.0	-0.1395752432301889	-1.29447779	-2.40066792	10.536264759	0.310382080078125	0.402557373046875	104.409	8.435969	-0.17717093	-5.20260049	0.00089800359	0.0007330356	-0.004587598	-28.700005	-21.6999969	7.6999969	
4.57	0.0	-0.1268620813910697	-1.337627059	-2.39870659	10.58725934	0.310418701171875	0.402630615234375	104.42	8.435969	-0.17717093	-5.20260049	0.00089800359	0.0001221709	-0.00397673249	-28.700005	-21.6999969	7.6999969	
4.58	0.0	-0.13153405605986263	-1.4121576	-2.345750679	10.632369929	0.31040039062499997	0.40259399414062497	104.43	8.43477249	-0.156820209	-5.219359	0.000287137929	-0.0017104251	-0.00275500209	-28.700005	-21.6999969	7.6999969	
4.59	0.0	-0.12614331605740925	-1.386660309	-2.33006004	10.567646039	0.31043701171875	0.4026123046875	104.439	8.4156189	-0.153228909	-5.19661469	0.00089800359	-0.00293215549	-0.0021441369	-28.700005	-21.6999969	7.6999969	
4.6	0.0	-0.12111195872178608	-1.372931	-2.37320929	10.483308849	0.31036376953125	0.40253906249	104.45	8.412027	-0.17836803	-5.195418	0.0021197349	-0.0017104251	0.000299324279	-28.700005	-21.6999969	7.6000059	
4.61	0.0	-0.12057288472154074	-1.38273765	-2.36928664	10.557839389	0.31036376953125	0.40242919921875	104.46	8.423999	-0.245405669	-5.2061915	0.0021197349	0.0007330356	0.000299324279	-28.700005	-21.6999969	7.6000059	
4.62	0.0	-0.12794022939156036	-1.404312279	-2.422242549	10.520574119	0.3103271484375	0.402301025390625	104.469	8.423999	-0.245405669	-5.2061915	0.0021197349	0.0007330356	0.000299324279	-28.700005	-21.6999969	7.6999969	
4.63	0.0	-0.12542455072374878	-1.435693559	-2.449701169	10.49899949	0.310345458984375	0.40231933593749997	104.48	8.4323789	-0.2789245	-5.2361193	0.00150886919	-0.00048869476	-0.00031154137	-28.700005	-21.6999969	7.6999969	
4.64	0.0	-0.1340497347276742	-1.42000292	-2.453623829	10.457811559	0.3101806640625	0.40213623046874997	104.49	8.461109	-0.2681506	-5.2480903	-0.00093459339	-0.00354302119	-0.00031154137	-28.700005	-21.6999969	7.6000059	
4.65	0.0	-0.12829961205839058	-1.435693559	-2.455585159	10.395049	0.310235595703125	0.401971435546875	104.5	8.485051	-0.23582886	-5.2480903	-0.00276718659	-0.0053756163	-0.00153327169	-28.700005	-21.6999969	7.6000059	
4.66	0.0	-0.13373527489419776	-1.44157755	-2.47912112	10.481347519	0.31014404296875	0.40184326171875	104.51	8.48146	-0.197521639	-5.2217539	-0.003988918	-0.00476475149	-0.00336586729	-28.5999979	-21.6999969	7.6999969	
4.67	0.0	-0.13512788272816487	-1.427848239	-2.49677309	10.457811559	0.31014404296875	0.401788330078125	104.519	8.45871449	-0.158017309	-5.2097829	-0.005821515	-0.00476475149	-0.00336586729	-28.5999979	-21.6999969	7.6999969	
4.68	0.0	-0.13108482772632485	-1.365085679	-2.48696644	10.379358359	0.310089111328125	0.40169677734375	104.53	8.400057	-0.16519992	-5.1367598	-0.003988918	-0.00293215549	-0.0064201937	-28.5999979	-21.6999969	7.6999969	
4.69	0.0	-0.11149847238407753	-1.378814989	-2.48696644	10.485270179	0.31003417968749997	0.40158691406249997	104.54	8.3940719	-0.156820209	-5.171476	0.000287137929	0.0001221709	-0.005198463	-28.5999979	-21.6999969	7.6999969	
4.7	0.0	-0.1103304787168793	-1.369008339	-2.48696644	10.46173422	0.309979248046875	0.40155029296875	104.549	8.3940719	-0.15442601	-5.2133739	0.0045631975	-0.00048869476	-0.00336586729	-28.5999979	-21.6999969	7.800003	
4.71	0.0	-0.08175955670387636	-1.402350949	-2.47715979	10.449966239	0.309979248046875	0.40147705078125	104.56	8.4180139	-0.19512744	-5.21217729	0.005784929	-0.0041538859	-0.00275500209	-28.5999979	-21.6999969	7.800003	
4.72	0.0	-0.0670248673638371	-1.416080259	-2.43989452	10.50488348	0.30992431640625	0.401422119140625	104.57	8.4180139	-0.19512744	-5.21217729	0.0045631975	-0.0065973476	-0.00153327169	-28.5999979	-21.6999969	7.800003	
4.73	0.0	-0.03018814401373896	-1.425886909	-2.43204919	10.46565688	0.309979248046875	0.401385498046875	104.579	8.433576	-0.219069449	-5.2133739	0.0033414662	-0.0053756163	-0.00031154137	-28.5999979	-21.6999969	7.800003	
4.74	0.0	-0.00880487533734053	-1.398428289	-2.424203879	10.497038159	0.309906005859375	0.4012939453125	104.59	8.445546	-0.21428105	-5.2205567	0.00150886919	-0.00109955949	-0.00031154137	-28.5999979	-21.6999969	7.800003	
4.75	0.0	0.015812837340529934	-1.357240359	-2.40851324	10.483308849	0.309869384765625	0.401275634765625	104.6	8.4599109	-0.22026655	-5.23971029	0.00089800359	0.0013439013	-0.00031154137	-28.5999979	-21.6999969	7.800003	
4.76	0.0	0.02551616934494603	-1.357240359	-2.422242549	10.5519554	0.3098876953125	0.4011474609375	104.609	8.450335	-0.23582886	-5.2337249	-0.0015454589	0.0007330356	-0.00092240656	-28.5999979	-21.6999969	7.899994	
4.77	0.0	0.0307272180139843	-1.388621639	-2.37320929	10.536264759	0.309814453125	0.401055908203125	104.62	8.447941	-0.21428105	-5.21457149	-0.00276718659	-0.00109955949	-0.0021441369	-28.5999979	-21.6999969	7.899994	
4.78	0.0	0.04150869801889107	-1.4121576	-2.384977279	10.4735022	0.3097412109375	0.401019287109375	104.629	8.4323789	-0.217872349	-5.18823529	-0.0021563247	-0.00109955949	-0.0021441369	-28.5999979	-21.6999969	7.800003	
4.79	0.0	0.04564159868743867	-1.376853659	-2.40066792	10.530380769	0.3097412109375	0.401019287109375	104.64	8.4263929	-0.202310039	-5.1858409	-0.00093459339	-0.00048869476	-0.00336586729	-28.5999979	-21.6999969	7.800003	
4.8	0.0	0.03719610601692837	-1.396466959	-2.40066792	10.4735022	0.3097412109375	0.40081787109375	104.65	8.420407	-0.20350714	-5.2014029	0.000287137929	-0.00048869476	-0.00397673249	-28.5999979	-21.600006	7.800003	
4.81	0.0	0.03328781951514966	-1.388621639	-2.39282259	10.479386189	0.309649658203125	0.40074462890625	104.659	8.413225	-0.20350714	-5.19661469	0.00089800359	-0.00048869476	-0.004587598	-28.5999979	-21.600006	7.800003	
4.82	0.0	0.02699862284562071	-1.388621639	-2.485005109	10.442120919	0.309649658203125	0.400781249	104.67	8.4263929	-0.21667525	-5.21217729	0.00089800359	-0.00109955949	-0.004587598	-28.5999979	-21.600006	7.800003	
4.83	0.0	0.0307272180139843	-1.404312279	-2.512463729	10.426430279	0.30963134765625	0.400781249	104.68	8.431181	-0.207098449	-5.22654249	0.00089800359	-0.0017104251	-0.004587598	-28.5999979	-21.600006	7.800003	
4.84	0.0	0.028076770846111387	-1.38273765	-2.455585159	10.46565688	0.309613037109375	0.400653076171875	104.689	8.4395609	-0.20949265	-5.2217539	0.00089800359	-0.00048869476	-0.004587598	-28.5999979	-21.600006	7.899994	
4.85	0.0	0.03000845268032385	-1.38077632	-2.455585159	10.489192839	0.3095947265625	0.40074462890625	104.7	8.4419559	-0.19393034	-5.2133739	0.000287137929	-0.00048869476	-0.00397673249	-28.5999979	-21.600006	7.899994	
4.86	0.0	0.02821153934617272	-1.357240359	-2.43204919	10.526458109	0.309539794921875	0.400634765625	104.71	8.4419559	-0.18674773	-5.2049947	-0.00032372773	-0.00048869476	-0.004587598	-28.5999979	-21.6999969	7.800003	
4.87	0.0	0.02192234267664377	-1.355279029	-2.461469149	10.481347519	0.30955810546875	0.4007080078125	104.719	8.4299839	-0.16639702	-5.195418	0.00089800359	0.0013439013	-0.004587598	-28.5999979	-21.6999969	7.800003	
4.88	0.0	0.023584487510733564	-1.359201689	-2.455585159	10.485270179	0.309539794921875	0.40067138671874997	104.73	8.4251959	-0.17717093	-5.19182629	0.00150886919	0.00256563159	-0.00397673249	-28.5	-21.6999969	7.6999969	
4.89	0.0	0.024797404011285575	-1.36116302	-2.453623829	10.46565688	0.30957641601562497	0.400689697265625	104.74	8.420407	-0.190339029	-5.187038	0.00273060049	0.00195476649	-0.00336586729	-28.5	-21.6999969	7.6999969	
4.9	0.0	0.028930304679833173	-1.404312279	-2.406551909	10.522535449	0.309521484375	0.40052490234375	104.75	8.43477249	-0.207098449	-5.207389	0.0033414662	0.0007330356	-0.00397673249	-28.5999979	-21.6999969	7.6999969	
4.91	0.0	0.02749277401251227	-1.396466959	-2.37320929	10.45977289	0.309503173828125	0.40057983398437497	104.76	8.4383639	-0.20350714	-5.21217729	0.00273060049	-0.00109955949	-0.00275500209	-28.5999979	-21.6999969	7.6999969	
4.92	0.0	0.03234444001472032	-1.394505629	-2.43793319	10.491154169	0.309429931640625	0.400543212890625	104.769	8.4527289	-0.213083949	-5.222951	0.0021197349	-0.00232129079	-0.00275500209	-28.5	-21.6999969	7.6999969	
4.93	0.0	0.035399192682777234	-1.443538879	-2.39282259	10.497038159	0.3094482421875	0.400543212890625	104.78	8.4419559	-0.19512744	-5.2133739	0.000287137929	-0.00293215549	-0.0021441369	-28.5	-21.6999969	7.6999969	
4.94	0.0	0.034141353348871445	-1.42000292	-2.46931447	10.491154169	0.309356689453125	0.4004150390625	104.79	8.4419559	-0.19273324	-5.21217729	0.000287137929	-0.00354302119	-0.00275500209	-28.5	-21.600006	7.6999969	
4.95	0.0	0.025875552011776253	-1.404312279	-2.45950782	10.448004909	0.30948486328124997	0.4004150390625	104.79	8.433576	-0.201112939	-5.19661469	-0.00093459339	-0.00232129079	-0.0021441369	-28.5	-21.600006	7.6999969	
4.96	0.0	0.02367433317744112	-1.414118929	-2.485005109	10.410739639	0.30941162109375	0.400488281249	104.81	8.42759	-0.22146365	-5.19182629	-0.00032372773	-0.00109955949	-0.0021441369	-28.5	-21.600006	7.6999969	
4.97	0.0	0.030906909347399415	-1.36312435	-2.49088909	10.489192839	0.309375	0.400433349609375	104.82	8.42759	-0.22146365	-5.19182629	0.00089800359	-0.00109955949	-0.0021441369	-28.5	-21.600006	7.6999969	
4.98	0.0	0.026055243345191367	-1.38273765	-2.48696644	10.491154169	0.309356689453125	0.40045166015625	104.829	8.42759	-0.197521639	-5.2097829	0.00089800359	-0.00232129079	-0.00275500209	-28.5999979	-21.600006	7.6999969	
4.99	0.0	0.03306320534838077	-1.38273765	-2.463430479	10.46565688	0.309356689453125	0.400360107421875	104.84	8.4180139	-0.18674773	-5.21217729	-0.00032372773	-0.00232129079	-0.00275500209	-28.5999979	-21.600006	7.6999969	
5.0	0.0	0.02192234267664377	-1.37096967	-2.475198459	10.444082249	0.309320068359375	0.400433349609375	104.85	8.435969	-0.184353529	-5.20379729	0.000287137929	-0.0017104251	-0.00336586729	-28.5	-21.6999969	7.800003	
5.01	0.0	0.02192234267664377	-1.386660309	-2.455585159	10.489192839	0.30939331054687497	0.4004150390625	104.859	8.4323789	-0.17836803	-5.20379729	0.00089800359	0.0001221709	-0.00397673249	-28.5	-21.6999969	7.800003	
5.02	0.0	0.027133391345682045	-1.402350949	-2.41831989	10.50488348	0.30939331054687497	0.400341796875	104.87	8.4287869	-0.169988319	-5.1942205	0.0021197349	0.0001221709	-0.00275500209	-28.5	-21.600006	7.800003	
5.03	0.0	0.019271895508770856	-1.402350949	-2.40066792	10.475463529	0.30933837890625	0.40037841796875	104.879	8.4251959	-0.18914193	-5.2014029	0.00273060049	0.0007330356	-0.0021441369	-28.5	-21.600006	7.800003	
5.04	0.0	0.023359873343964672	-1.384698979	-2.41831989	10.481347519	0.30939331054687497	0.400433349609375	104.89	8.4180139	-0.19393034	-5.20379729	0.00273060049	0.0001221709	-0.00153327169	-28.5	-21.6999969	7.800003	
5.05	0.0	0.012937776005888127	-1.396466959	-2.40066792	10.489192839	0.30933837890625	0.400341796875	104.9	8.431181	-0.205901339	-5.23013349	0.0021197349	-0.00048869476	-0.00092240656	-28.5	-21.6999969	7.800003	
5.06	0.0	0.011769782338689893	-1.38273765	-2.463430479	10.4735022	0.309356689453125	0.400360107421875	104.909	8.431181	-0.205901339	-5.23013349	0.00089800359	-0.00048869476	-0.00153327169	-28.5	-21.600006	7.800003	
5.07	0.0	0.011365476838505889	-1.404312279	-2.43793319	10.51272879	0.30939331054687497	0.40037841796875	104.92	8.4323789	-0.20949265	-5.2169657	0.00089800359	0.0001221709	-0.00153327169	-28.5	-21.600006	7.800003	
5.08	0.0	0.0044922833353778216	-1.396466959	-2.435971859	10.497038159	0.309356689453125	0.40037841796875	104.93	8.43477249	-0.213083949	-5.21457149	-0.00032372773	-0.00048869476	-0.00153327169	-28.5	-21.600006	7.800003	
5.09	0.0	0.0017969133341511287	-1.378814989	-2.41831989	10.481347519	0.309429931640625	0.400433349609375	104.939	8.435969	-0.211886849	-5.2241483	-0.00093459339	0.0001221709	-0.00153327169	-28.5	-21.600006	7.800003	
5.1	0.0	4.492283335377822e-05	-1.355279029	-2.45950782	10.46565688	0.30930175781249997	0.4004150390625	104.95	8.445546	-0.213083949	-5.2217539	-0.00032372773	-0.00048869476	-0.0021441369	-28.5	-21.600006	7.800003	
5.11	0.0	0.009793177671123652	-1.388621639	-2.443817179	10.497038159	0.309375	0.40037841796875	104.96	8.4395609	-0.196324539	-5.207389	-0.00093459339	-0.00048869476	-0.00336586729	-28.5	-21.600006	7.6999969	
5.12	0.0	0.007771650170203631	-1.39254429	-2.435971859	10.483308849	0.309375	0.4004150390625	104.969	8.4287869	-0.18794483	-5.1822495	0.000287137929	-0.00048869476	-0.00336586729	-28.5	-21.600006	7.800003	
5.13	0.0	0.00880487533734053	-1.357240359	-2.463430479	10.46173422	0.30941162109375	0.400469970703125	104.98	8.437167	-0.191536129	-5.19661469	-0.00032372773	0.0001221709	-0.00336586729	-28.5	-21.600006	7.800003	
5.14	0.0	0.0039532093351324835	-1.388621639	-2.43989452	10.489192839	0.309356689453125	0.4004150390625	104.99	8.43477249	-0.184353529	-5.199009	0.00089800359	0.0001221709	-0.00336586729	-28.5	-21.600006	7.800003	
5.15	0.0	0.004312592001962709	-1.35135637	-2.42812654	10.457811559	0.309375	0.400488281249	105.0	8.440758	-0.19512744	-5.21217729	0.00150886919	0.0007330356	-0.00336586729	-28.5	-21.600006	7.800003	
5.16	0.0	0.0008086110003680079	-1.365085679	-2.445778509	10.4735022	0.309375	0.4005615234375	105.01	8.4383639	-0.18674773	-5.2253449	0.0021197349	0.0007330356	-0.00336586729	-28.5	-21.600006	7.800003	
5.17	0.0	0.007367344670019628	-1.418041589	-2.43204919	10.481347519	0.3094482421875	0.40052490234375	105.019	8.437167	-0.18914193	-5.222951	0.0021197349	0.0001221709	-0.00336586729	-28.5	-21.600006	7.800003	
5.18	0.0	-0.0017969133341511287	-1.386660309	-2.43989452	10.524496779	0.309521484375	0.4005615234375	105.03	8.444349	-0.19871874	-5.2061915	0.00089800359	-0.00109955949	-0.00275500209	-28.5	-21.600006	7.800003	
5.19	0.0	0.00017969133341511287	-1.402350949	-2.424203879	10.495076829	0.309503173828125	0.40059814453125	105.04	8.4431519	-0.18674773	-5.2061915	0.00089800359	-0.0017104251	-0.0021441369	-28.5	-21.600006	7.800003	
5.2	0.0	-0.005570431335868499	-1.388621639	-2.42028122	10.4735022	0.309503173828125	0.40057983398437497	105.049	8.440758	-0.20350714	-5.19661469	0.00089800359	-0.0017104251	-0.00275500209	-28.5	-21.600006	7.800003	
5.21	0.0	0.004582129002085379	-1.388621639	-2.396745259	10.38720368	0.309503173828125	0.400653076171875	105.06	8.440758	-0.20350714	-5.19661469	0.00089800359	-0.0017104251	-0.0021441369	-28.5	-21.600006	7.800003	
5.22	0.0	-0.001437530667320903	-1.388621639	-2.43204919	10.475463529	0.309539794921875	0.4005615234375	105.07	8.435969	-0.20350714	-5.20260049	0.000287137929	-0.00232129079	-0.0021441369	-28.5	-21.600006	7.800003	
5.23	0.0	0.0025156786678115803	-1.41019627	-2.43989452	10.45977289	0.309503173828125	0.400726318359375	105.079	8.4299839	-0.19871874	-5.20379729	0.000287137929	-0.00293215549	-0.0021441369	-28.5	-21.600006	7.800003	
5.24	0.0	0.002695370001226693	-1.396466959	-2.435971859	10.442120919	0.309539794921875	0.40067138671874997	105.09	8.433576	-0.205901339	-5.2049947	0.000287137929	-0.00232129079	-0.00336586729	-28.5	-21.6999969	7.800003	
5.25	0.0	-0.002875061334641806	-1.38077632	-2.424203879	10.46565688	0.309539794921875	0.40076293945312497	105.1	8.435969	-0.19871874	-5.2097829	0.00150886919	-0.00232129079	-0.00275500209	-28.5	-21.6999969	7.800003	
5.26	0.0	-0.005390740002453386	-1.388621639	-2.424203879	10.457811559	0.30957641601562497	0.400726318359375	105.109	8.431181	-0.202310039	-5.21576829	0.00089800359	-0.00293215549	-0.00275500209	-28.5	-21.6999969	7.800003	
5.27	0.0	-0.00377351800171737	-1.36312435	-2.41243589	10.451927569	0.309521484375	0.400781249	105.12	8.431181	-0.202310039	-5.21576829	0.00089800359	-0.0017104251	-0.00275500209	-28.5	-21.6999969	7.800003	
5.28	0.0	-0.002875061334641806	-1.38273765	-2.424203879	10.449966239	0.309667968749	0.40085449218749997	105.129	8.4287869	-0.197521639	-5.2049947	0.00089800359	-0.0017104251	-0.00275500209	-28.5	-21.600006	7.6999969	
5.29	0.0	-0.002470755834457802	-1.42000292	-2.416358559	10.449966239	0.30957641601562497	0.400872802734375	105.14	8.4287869	-0.197521639	-5.2049947	0.00089800359	-0.00109955949	-0.00275500209	-28.5	-21.600006	7.6999969	
5.3	0.0	0.0012578393339057901	-1.388621639	-2.424203879	10.410739639	0.30963134765625	0.400872802734375	105.15	8.42759	-0.19871874	-5.2097829	0.00150886919	-0.00048869476	-0.00275500209	-28.5	-21.600006	7.6999969	
5.31	0.0	-0.003908286501778705	-1.414118929	-2.42812654	10.46565688	0.309667968749	0.400909423828125	105.159	8.416816	-0.185550629	-5.219359	0.00089800359	0.0001221709	-0.00336586729	-28.5	-21.600006	7.6999969	
5.32	0.0	-0.010781480004906772	-1.418041589	-2.455585159	10.489192839	0.30970458984375	0.40089111328125	105.17	8.423999	-0.190339029	-5.21217729	0.00150886919	-0.00048869476	-0.00336586729	-28.5	-21.600006	7.6999969	
5.33	0.0	-0.0033692125015333664	-1.396466959	-2.453623829	10.497038159	0.309686279296875	0.401019287109375	105.18	8.42759	-0.18794483	-5.2061915	0.00089800359	-0.00048869476	-0.00336586729	-28.5	-21.600006	7.6999969	
5.34	0.0	-0.01563314600711482	-1.357240359	-2.430087869	10.483308849	0.309667968749	0.400982666015625	105.189	8.444349	-0.185550629	-5.2097829	0.0021197349	0.0001221709	-0.00336586729	-28.5	-21.600006	7.6999969	
5.35	0.0	-0.014554998006624143	-1.388621639	-2.40851324	10.46565688	0.3097412109375	0.401092529296875	105.2	8.4323789	-0.196324539	-5.2014029	0.0021197349	-0.00048869476	-0.00336586729	-28.5	-21.600006	7.6999969	
5.36	0.0	-0.023539564677379787	-1.384698979	-2.449701169	10.536264759	0.30970458984375	0.401074218749	105.21	8.4431519	-0.19991584	-5.2061915	0.000287137929	-0.00048869476	-0.00336586729	-28.5999979	-21.600006	7.6000059	
5.37	0.0	-0.01185962800539745	-1.378814989	-2.426165209	10.451927569	0.309722900390625	0.401092529296875	105.219	8.4431519	-0.19991584	-5.2061915	0.00089800359	-0.00109955949	-0.00397673249	-28.5999979	-21.600006	7.6000059	
5.38	0.0	-0.010242406004661433	-1.386660309	-2.43793319	10.491154169	0.309814453125	0.40118408203125	105.23	8.437167	-0.20350714	-5.207389	0.00150886919	-0.00109955949	-0.00275500209	-28.5	-21.600006	7.6999969	
5.39	0.0	-0.008715029670632974	-1.374892329	-2.424203879	10.51272879	0.309814453125	0.401239013671875	105.24	8.431181	-0.190339029	-5.20020629	0.0021197349	0.0001221709	-0.00275500209	-28.5	-21.600006	7.6999969	
5.4	0.0	-0.007007962003189402	-1.386660309	-2.416358559	10.481347519	0.30985107421874997	0.40118408203125	105.25	8.4299839	-0.18674773	-5.2097829	0.00150886919	0.0001221709	-0.00275500209	-28.5999979	-21.600006	7.6999969	
5.41	0.0	0.006468888002944063	-1.38077632	-2.40851324	10.51076747	0.309869384765625	0.4012939453125	105.26	8.445546	-0.191536129	-5.20260049	0.00089800359	-0.00048869476	-0.00275500209	-28.5999979	-21.600006	7.6999969	
5.42	0.0	0.001437530667320903	-1.388621639	-2.445778509	10.4735022	0.309906005859375	0.401348876953125	105.269	8.435969	-0.184353529	-5.207389	0.00089800359	-0.00109955949	-0.00275500209	-28.5999979	-21.6999969	7.6999969	
5.43	0.0	-0.0008984566670755643	-1.394505629	-2.416358559	10.45977289	0.30992431640625	0.401385498046875	105.28	8.4395609	-0.19393034	-5.2097829	0.000287137929	-0.00109955949	-0.00275500209	-28.5999979	-21.6999969	7.6999969	
5.44	0.0	-0.00017969133341511287	-1.404312279	-2.43989452	10.442120919	0.30994262695312497	0.401385498046875	105.29	8.4419559	-0.19273324	-5.21576829	0.00089800359	-0.0017104251	-0.0021441369	-28.5999979	-21.6999969	7.6999969	
5.45	0.0	0.007007962003189402	-1.384698979	-2.44773984	10.442120919	0.30992431640625	0.4014404296875	105.29	8.4419559	-0.19273324	-5.21576829	0.000287137929	-0.0017104251	-0.00275500209	-28.5999979	-21.6999969	7.6999969	
5.46	0.0	-0.0016172220007360158	-1.378814989	-2.45166249	10.38131969	0.30994262695312497	0.40155029296875	105.31	8.433576	-0.191536129	-5.1978119	0.000287137929	-0.0017104251	-0.00336586729	-28.5	-21.600006	7.6999969	
5.47	0.0	-0.006648579336359177	-1.369008339	-2.416358559	10.457811559	0.310015869140625	0.40158691406249997	105.32	8.433576	-0.191536129	-5.1978119	0.00150886919	-0.00109955949	-0.00275500209	-28.5	-21.600006	7.6999969	
5.48	0.0	-0.07511097736751718	-1.337627059	-2.49088909	10.46565688	0.310015869140625	0.401531982421875	105.329	8.435969	-0.19273324	-5.2133739	0.00150886919	-0.00109955949	-0.00275500209	-28.5	-21.600006	7.6999969	
5.49	0.0	-0.21810035593259325	-1.41019627	-2.40066792	10.53822609	0.31007080078125	0.40155029296875	105.34	8.435969	-0.19273324	-5.2133739	0.00089800359	-0.00109955949	-0.00275500209	-28.5	-21.600006	7.6999969	
