# OpenSignals Text File Format
# {"00:07:80:4D:2E:99": {"sensor": ["ECG", "XYZ", "XYZ", "XYZ", "SpO2", "SpO2"], "device name": "00:07:80:4D:2E:99", "column": ["nSeq", "DI", "ECG", "XYZ", "XYZ", "XYZ", "SpO2", "SpO2"], "sync interval": 2, "time": "14:36:09", "comments": "", "keywords": "", "device connection": "BTH00:07:80:4D:2E:99", "channels": [1, 2, 3, 4, 9, 10], "date": "2020-09-11", "mode": 0, "digital IO": [0, 1], "firmware version": 775, "device": "biosignalsplux", "position": 0, "sampling rate": 100, "label": ["ECG", "XYZ", "XYZ", "XYZ", "SpO2", "SpO2"], "resolution": [16, 16, 16, 16, 16, 16], "special": [{}, {}, {}, {}, {}, {}], "sleeve color": ["UNKNOWN", "UNKNOWN", "UNKNOWN", "UNKNOWN", "UNKNOWN", "UNKNOWN"]}, "internal sensors": {"sensor": ["xAcc", "yAcc", "zAcc", "xGyr", "yGyr", "zGyr", "xMag", "yMag", "zMag"], "device name": "internal sensors", "column": ["nSeq", "xAcc", "yAcc", "zAcc", "xGyr", "yGyr", "zGyr", "xMag", "yMag", "zMag"], "sync interval": 2, "time": "14:36:14", "comments": "", "keywords": "", "device connection": "UNKNOWNinternal sensors", "channels": [0, 1, 2, 3, 4, 5, 6, 7, 8], "date": "2020-09-11", "mode": 0, "digital IO": [], "firmware version": 0, "device": "android", "position": 0, "sampling rate": 100, "label": ["xAcc", "yAcc", "zAcc", "xGyr", "yGyr", "zGyr", "xMag", "yMag", "zMag"], "resolution": [1, 1, 1, 1, 1, 1, 1, 1, 1], "special": [{}, {}, {}, {}, {}, {}, {}, {}, {}], "sleeve color": ["UNKNOWN", "UNKNOWN", "UNKNOWN", "UNKNOWN", "UNKNOWN", "UNKNOWN", "UNKNOWN", "UNKNOWN", "UNKNOWN"]}}
# EndOfHeader
0.0	0.0	-0.11608060138616291	0.12356378999999945	8.747531799999999	3.271498439999999	0.31270751953125	0.3998291015625	99.88	-0.9768343	-9.753978	1.079785	0.0025473014	0.0047891834	0.0015454891	-26.2	39.0	-13.200012	
0.010000364099767012	0.0	-0.07385313803361139	0.12944778000000098	8.76910643	3.2656144499999993	0.312725830078125	0.39971923828125	99.89	-0.9816227	-9.749189	1.0905589	0.003158167	0.004178318	0.0009346239	-26.2	39.0	-13.200012	
0.020000728199534024	0.0	-0.08679091403949951	0.11964112999999989	8.735763819999999	3.289150409999999	0.312744140625	0.39971923828125	99.9	-0.997185	-9.750386	1.0809821	0.0043798983	0.003567453	0.0015454891	-26.2	39.0	-13.200012	
0.030001092299301035	0.0	-0.028391230679587834	0.10002782999999986	8.723995839999999	3.2969957300000003	0.31270751953125	0.399700927734375	99.91	-0.9900024	-9.753978	1.0666169	0.004990764	0.0011239918	0.0027672194	-26.2	39.0	-13.200012	
0.040001456399053836	0.0	-0.054221859858010306	0.1412157599999997	8.71615052	3.2754211000000004	0.312725830078125	0.399627685546875	99.92	-0.9900024	-9.765948	1.0570401	0.0043798983	-0.001319469	0.0045998152	-26.2	39.0	-13.200012	
0.05000182049882085	0.0	-0.006289196669528951	0.13337044000000053	8.71615052	3.2263878499999996	0.31270751953125	0.3996826171875	99.93	-0.9696517	-9.76954	1.0690111	0.0043798983	0.0011239918	0.005210681	-26.3	39.0	-13.200012	
0.06000218459858786	0.0	-0.023854024510856234	0.14317708999999945	8.708305199999998	3.24207849	0.31278076171874997	0.399609375	99.94	-0.9600749	-9.764751	1.067814	0.0037690327	0.0047891834	0.005210681	-26.3	39.0	-13.200012	
0.07000254869835487	0.0	0.006648579336359177	0.1588677299999999	8.71026653	3.24207849	0.312725830078125	0.399591064453125	99.95	-0.93972415	-9.757569	1.0582372	0.003158167	0.006010914	0.0045998152	-26.3	39.0	-13.200012	
0.08000291279810767	0.0	-0.004671974668792935	0.16475171999999927	8.69653722	3.2577691300000002	0.312725830078125	0.399591064453125	99.96000000000001	-0.94211835	-9.76116	1.0378864	0.0025473014	0.0047891834	0.0033780846	-26.3	39.0	-13.200012	
0.09000327689787468	0.0	0.020125429342492642	0.15690640000000014	8.72595717	3.2969957300000003	0.312762451171875	0.399591064453125	99.97	-0.93373865	-9.763555	1.0402806	0.00132557	0.0017348574	0.0021563543	-26.3	39.0	-13.100006	
0.1000036409976417	0.0	-0.0032344440014720316	0.13533177000000032	8.767145099999999	3.247962479999999	0.31278076171874997	0.3996826171875	99.98	-0.9576807	-9.757569	1.0594343	0.00010383874	-0.0007086033	0.0015454891	-26.3	39.0	-13.100006	
0.1100040050973945	0.0	0.027852156679342495	0.13337044000000053	8.771067760000001	3.287189079999999	0.31285400390625	0.399609375	99.99000000000001	-0.9792285	-9.767146	1.0881647	0.00010383874	-0.0019303346	0.0009346239	-26.3	39.0	-13.200012	
0.12000436919716151	0.0	0.00017969133341511287	0.10198915999999965	8.71615052	3.2734597700000005	0.3128173828125	0.39966430664062497	100.0	-0.9864111	-9.775525	1.0821792	0.00010383874	-0.003152065	0.0009346239	-26.3	39.0	-13.200012	
0.13000473329692852	0.0	0.028076770846111387	0.168674380000001	8.70634387	3.19892923	0.31278076171874997	0.399591064453125	100.01	-0.9983821	-9.76116	1.0833763	-0.0018142462	-0.0031459536	-0.00069638714	-26.3	39.0	-13.200012	
0.14000509739669553	0.0	-0.004312592001962709	0.1588677299999999	8.735763819999999	3.1851999199999996	0.31285400390625	0.39964599609375	100.02	-0.997185	-9.758766	1.0869676	-0.0012033805	-0.002535088	-8.5521955e-05	-26.3	39.0	-13.200012	
0.15000546149644833	0.0	0.026774008678851817	0.1588677299999999	8.727918499999998	3.24011716	0.31287231445312497	0.399627685546875	100.03	-1.0043676	-9.76116	1.079785	-0.0005925149	-0.0019242233	0.0011362084	-26.399998	39.1	-13.399994	
0.16000582559621535	0.0	-0.009883023337831209	0.107873149999999	8.76322244	3.35975829	0.312890625	0.399737548828125	100.04	-0.9900024	-9.759963	1.0845734	-0.0012033805	-9.162724e-05	0.0023579388	-26.399998	39.1	-13.399994	
0.17000618969598236	0.0	0.022102034010058884	0.17651970000000014	8.65731062	3.28130509	0.312890625	0.399700927734375	100.05	-0.9876082	-9.76116	1.0785879	-0.0012033805	0.0005192384	0.0017470741	-26.399998	39.1	-13.399994	
0.18000655379574937	0.0	0.010062714671246321	0.13337044000000053	8.72007318	3.2577691300000002	0.312890625	0.3996826171875	100.06	-0.973243	-9.743204	1.0833763	-0.0024251118	0.0005192384	0.0023579388	-26.399998	39.1	-13.399994	
0.19000691789550217	0.0	0.03557888401619235	0.13337044000000053	8.73184116	3.2734597700000005	0.31292724609375	0.39971923828125	100.07000000000001	-0.9744401	-9.758766	1.079785	-0.0030359775	-9.162724e-05	0.0023579388	-26.399998	39.1	-13.399994	
0.20000728199526918	0.0	0.004627051835439156	0.13337044000000053	8.76322244	3.3499516399999987	0.312945556640625	0.39979248046875	100.08	-0.9708488	-9.753978	1.0965444	-0.0030359775	-0.00070249196	0.0017470741	-26.399998	39.1	-13.399994	
0.2100076460950362	0.0	0.03081706368069186	0.12552511999999924	8.778913079999999	3.3185703600000003	0.312982177734375	0.399774169921875	100.09	-0.9684546	-9.759963	1.0953473	-0.0024251118	-0.0013133576	0.0011362084	-26.499996	39.1	-13.399994	
0.2200080101948032	0.0	0.0070978076698969585	0.12356378999999945	8.73772515	3.2656144499999993	0.312945556640625	0.39979248046875	100.10000000000001	-0.9876082	-9.757569	1.0869676	-0.0024251118	-0.0037568184	-8.5521955e-05	-26.499996	39.1	-13.399994	
0.230008374294556	0.0	0.03863363668424927	0.107873149999999	8.71615052	3.208735879999999	0.31300048828125	0.399774169921875	100.11	-0.9911995	-9.744401	1.091756	-0.0018142462	-0.00620028	0.00052534323	-26.399998	39.1	-13.399994	
0.24000873839432302	0.0	0.016351911340775273	0.10983448000000096	8.700459879999999	3.2656144499999993	0.313018798828125	0.399737548828125	100.12	-0.9792285	-9.757569	1.0965444	-0.0012033805	-0.0074220095	0.0017470741	-26.399998	39.1	-13.399994	
0.25000910249409003	0.0	0.04150869801889107	0.107873149999999	8.73184116	3.1851999199999996	0.31300048828125	0.399810791015625	100.13	-0.9816227	-9.753978	1.0905589	-0.0012033805	-0.0068111448	0.0017470741	-26.499996	39.1	-13.399994	
0.26000946659385704	0.0	0.0039532093351324835	0.10395048999999944	8.73184116	3.1930452399999987	0.31300048828125	0.399810791015625	100.14	-0.9780314	-9.752781	1.1001357	-0.0018142462	-0.0055894144	0.0017470741	-26.499996	39.1	-13.399994	
0.27000983069360984	0.0	0.033108128181734545	0.10198915999999965	8.743609139999998	3.214619870000001	0.313018798828125	0.39984741210937497	100.15	-0.9840169	-9.755175	1.0965444	-0.0018142462	-0.0031459536	0.0017470741	-26.499996	39.1	-13.399994	
0.28001019479337685	0.0	0.0012578393339057901	0.10395048999999944	8.73380249	3.2558078000000004	0.313037109375	0.39986572265625	100.16	-0.9864111	-9.753978	1.0845734	-0.0018142462	-9.162724e-05	0.0017470741	-26.499996	39.1	-13.399994	
0.29001055889314387	0.0	0.028391230679587834	0.13533177000000032	8.68476924	3.214619870000001	0.313092041015625	0.39984741210937497	100.17	-0.9888053	-9.755175	1.0773908	-0.0018142462	0.0011301031	0.0011362084	-26.499996	39.1	-13.5	
0.3000109229929109	0.0	-0.006109505336113838	0.1176798000000001	8.71811185	3.234233170000001	0.31307373046875	0.399884033203125	100.18	-0.9947908	-9.759963	1.0773908	-0.0018142462	0.0017409688	0.0011362084	-26.499996	39.1	-13.5	
0.3100112870926637	0.0	0.02569586067836114	0.11179581000000074	8.700459879999999	3.208735879999999	0.3131103515625	0.399810791015625	100.19	-0.9983821	-9.762358	1.0821792	-0.0012033805	0.0011301031	0.0011362084	-26.499996	39.1	-13.399994	
0.3200116511924307	0.0	-0.015812837340529934	0.11964112999999989	8.71811185	3.234233170000001	0.313092041015625	0.39993896484374997	100.2	-0.9792285	-9.76116	1.0726024	-0.0018142462	-0.00070249196	0.0011362084	-26.499996	39.1	-13.399994	
0.3300120152921977	0.0	0.011140862671736997	0.12552511999999924	8.723995839999999	3.2930730700000006	0.313128662109375	0.399884033203125	100.21000000000001	-0.9792285	-9.755175	1.0905589	-0.0024251118	-0.0013133576	0.0011362084	-26.499996	39.1	-13.5	
0.3400123793919647	0.0	-0.025875552011776253	0.11179581000000074	8.71418919	3.2165812000000007	0.313165283203125	0.399957275390625	100.22	-0.9792285	-9.755175	1.0857705	-0.0024251118	-0.00070249196	0.00052534323	-26.499996	39.1	-13.5	
0.3500127434917175	0.0	0.0005390740002453386	0.12356378999999945	8.749493130000001	3.26365312	0.313165283203125	0.3999755859375	100.23	-0.9816227	-9.7479925	1.0809821	-0.0018142462	-0.00070249196	0.00052534323	-26.499996	39.1	-13.5	
0.3600131075914845	0.0	-0.01684606250766683	0.10983448000000096	8.747531799999999	3.287189079999999	0.31322021484375	0.3999755859375	100.24000000000001	-0.9888053	-9.746795	1.0809821	-0.0024251118	-0.0013133576	0.00052534323	-26.499996	39.1	-13.5	
0.37001347169125154	0.0	0.008715029670632974	0.1176798000000001	8.747531799999999	3.24011716	0.31323852539062497	0.40003051757812497	100.25	-0.9959879	-9.751583	1.0893618	-0.0018142462	-9.162724e-05	-8.5521955e-05	-26.399998	39.199997	-13.600006	
0.38001383579101855	0.0	-0.018777744341879295	0.13337044000000053	8.74164781	3.3185703600000003	0.31322021484375	0.40008544921875	100.26	-1.0079589	-9.764751	1.0726024	-0.0018142462	0.0005192384	-8.5521955e-05	-26.399998	39.199997	-13.600006	
0.39001419989077135	0.0	0.026774008678851817	0.13533177000000032	8.708305199999998	3.25973046	0.31323852539062497	0.40008544921875	100.27	-1.0175357	-9.77792	1.0654198	-0.0012033805	0.0005192384	0.00052534323	-26.399998	39.199997	-13.600006	
0.40001456399053836	0.0	-0.005570431335868499	0.12552511999999924	8.747531799999999	3.26169179	0.3132568359375	0.400048828125	100.28	-0.9983821	-9.768343	1.0666169	-0.0018142462	0.0005192384	0.00052534323	-26.399998	39.199997	-13.600006	
0.4100149280903054	0.0	0.038498868184187934	0.12356378999999945	8.73380249	3.29895706	0.31333007812499997	0.400140380859375	100.29	-0.9995792	-9.763555	1.0642227	-0.0018142462	0.0005192384	0.00052534323	-26.399998	39.199997	-13.600006	
0.4200152921900582	0.0	0.01563314600711482	0.12552511999999924	8.71615052	3.3205316899999997	0.313348388671875	0.400177001953125	100.3	-0.9923966	-9.763555	1.0666169	-0.0030359775	-9.162724e-05	0.0011362084	-26.399998	39.199997	-13.600006	
0.4300156562898252	0.0	0.028930304679833173	0.10983448000000096	8.73184116	3.287189079999999	0.3134033203125	0.40015869140625	100.31	-0.9923966	-9.745598	1.0582372	-0.004257709	0.0005192384	0.0011362084	-26.499996	39.199997	-13.5	
0.4400160203895922	0.0	-0.004312592001962709	0.09414384000000052	8.73380249	3.2558078000000004	0.3134033203125	0.40021362304687497	100.32000000000001	-0.997185	-9.740809	1.0690111	-0.004257709	0.0005192384	0.00052534323	-26.499996	39.199997	-13.5	
0.4500163844893592	0.0	0.02749277401251227	0.12356378999999945	8.73380249	3.26169179	0.3134033203125	0.400286865234375	100.33	-0.9911995	-9.750386	1.0749966	-0.0048685744	-9.162724e-05	-8.5521955e-05	-26.499996	39.300003	-13.600006	
0.460016748589112	0.0	-0.08984566670755643	0.11964112999999989	8.723995839999999	3.2558078000000004	0.313458251953125	0.400286865234375	100.34	-1.0043676	-9.745598	1.0761937	-0.0054794364	-9.162724e-05	-8.5521955e-05	-26.499996	39.300003	-13.600006	
0.470017112688879	0.0	-0.1953244794222277	0.09414384000000052	8.727918499999998	3.2558078000000004	0.31343994140625	0.400323486328125	100.35000000000001	-1.009156	-9.759963	1.0869676	-0.0048685744	0.0005192384	-8.5521955e-05	-26.499996	39.199997	-13.700012	
0.48001747678864604	0.0	0.09182227137512268	0.11179581000000074	8.74164781	3.1695092799999993	0.313458251953125	0.4004150390625	100.36	-0.9947908	-9.749189	1.0941502	-0.0024251118	-0.00070249196	-8.5521955e-05	-26.499996	39.199997	-13.700012	
0.49001784088841305	0.0	0.9770267026113225	0.1412157599999997	8.745570469999999	3.2126585399999987	0.313531494140625	0.400323486328125	100.37	-0.9947908	-9.749189	1.0941502	-0.0036468431	-0.00070249196	-8.5521955e-05	-26.499996	39.300003	-13.700012	
0.5000182049881658	0.0	0.7572192790112856	0.13337044000000053	8.74164781	3.2773824300000003	0.31358642578125	0.400433349609375	100.38	-1.009156	-9.753978	1.079785	-0.0024251118	-0.00070249196	-8.5521955e-05	-26.499996	39.300003	-13.700012	
0.5100185690879329	0.0	0.3062389549727061	0.10198915999999965	8.75537712	3.2558078000000004	0.313568115234375	0.40048828124999997	100.39	-1.009156	-9.753978	1.079785	-0.0030359775	-0.00070249196	-8.5521955e-05	-26.600002	39.300003	-13.799988	
0.5200189331876999	0.0	0.014060846839732582	0.10395048999999944	8.71615052	3.2558078000000004	0.313568115234375	0.4005615234375	100.4	-1.0007763	-9.746795	1.0785879	-0.0030359775	-0.0013133576	-0.00069638714	-26.600002	39.300003	-13.799988	
0.5300192972874669	0.0	-0.10296313404685968	0.11179581000000074	8.747531799999999	3.208735879999999	0.31360473632812497	0.4005615234375	100.41	-1.0067618	-9.7479925	1.0809821	-0.0024251118	-0.0013133576	-0.00069638714	-26.600002	39.300003	-13.700012	
0.5400196613872197	0.0	-0.17645688941364085	0.09414384000000052	8.74164781	3.1655866199999996	0.313623046875	0.40057983398437497	100.42	-1.0067618	-9.7479925	1.0809821	-0.0018142462	-0.00070249196	-0.00069638714	-26.600002	39.300003	-13.700012	
0.5500200254869867	0.0	-0.1493234980679588	0.13337044000000053	8.68476924	3.2244265199999997	0.313623046875	0.400616455078125	100.43	-1.0079589	-9.742006	1.0857705	-0.0024251118	-9.162724e-05	-8.5521955e-05	-26.600002	39.300003	-13.700012	
0.5600203895867537	0.0	-0.17007784707740434	0.12748644999999903	8.71615052	3.21854253	0.31365966796875	0.40067138671874997	100.44	-1.0055647	-9.758766	1.0809821	-0.004257709	0.0005192384	-0.00069638714	-26.600002	39.300003	-13.700012	
0.5700207536865207	0.0	-0.1311746733930324	0.1392544299999999	8.73968648	3.2165812000000007	0.31373291015625	0.400616455078125	100.45	-1.0055647	-9.758766	1.0809821	-0.0030359775	0.0011301031	-0.00069638714	-26.600002	39.300003	-13.799988	
0.5800211177862735	0.0	-0.1593862127392051	0.0862985199999992	8.76322244	3.20285189	0.313751220703125	0.40076293945312497	100.46000000000001	-1.0019734	-9.767146	1.0737995	-0.0036468431	0.0017409688	-0.0013072523	-26.600002	39.300003	-13.799988	
0.5900214818860405	0.0	-0.12196549255550786	0.04707191999999917	8.75537712	3.247962479999999	0.31378784179687497	0.40074462890625	100.47	-1.0019734	-9.767146	1.0737995	-0.0036468431	0.002351834	-0.0013072523	-26.600002	39.300003	-13.799988	
0.6000218459858075	0.0	-0.1309949820596173	0.1176798000000001	8.73968648	3.2558078000000004	0.31380615234375	0.40078125	100.48	-1.0259154	-9.759963	1.079785	-0.0036468431	0.0017409688	-0.0013072523	-26.600002	39.300003	-13.799988	
0.6100222100855746	0.0	-0.09002535804097155	0.16671304999999906	8.69065323	3.1930452399999987	0.31380615234375	0.40085449218749997	100.49000000000001	-1.0187328	-9.7479925	1.0702082	-0.0030359775	0.0017409688	-8.5521955e-05	-26.600002	39.300003	-13.799988	
0.6200225741853274	0.0	-0.11329538571822867	0.16475171999999927	8.686730569999998	3.2244265199999997	0.31387939453124997	0.40094604492187497	100.5	-0.9864111	-9.7563715	1.0714053	-0.0036468431	0.002351834	0.00052534323	-26.600002	39.300003	-13.799988	
0.6300229382850944	0.0	-0.08086110003680079	0.15102241000000077	8.72007318	3.2558078000000004	0.313934326171875	0.400982666015625	100.51	-0.9864111	-9.7563715	1.0714053	-0.0036468431	0.0029626992	-8.5521955e-05	-26.600002	39.300003	-13.700012	
0.6400233023848614	0.0	-0.11464307071884201	0.10198915999999965	8.73184116	3.27934376	0.3138427734375	0.400909423828125	100.52	-0.9864111	-9.767146	1.0965444	-0.0036468431	0.0047952947	-0.00069638714	-26.600002	39.300003	-13.700012	
0.6500236664846284	0.0	-0.08854290454029687	0.13533177000000032	8.771067760000001	3.2558078000000004	0.31395263671875	0.401019287109375	100.53	-0.9864111	-9.759963	1.0965444	-0.0036468431	0.0047952947	-0.00069638714	-26.600002	39.300003	-13.700012	
0.6600240305843812	0.0	-0.11104924405053976	0.14317708999999945	8.786758399999998	3.1930452399999987	0.31395263671875	0.40107421875	100.54	-0.9804256	-9.746795	1.0737995	-0.004257709	0.00540616	-0.0013072523	-26.600002	39.4	-13.700012	
0.6700243946841482	0.0	-0.08355647003802749	0.14317708999999945	8.75145446	3.208735879999999	0.3139892578125	0.401019287109375	100.55	-0.9876082	-9.746795	1.0737995	-0.004257709	0.0047952947	-0.0019181175	-26.600002	39.4	-13.600006	
0.6800247587839152	0.0	-0.1117680093842002	0.12356378999999945	8.749493130000001	3.1851999199999996	0.313934326171875	0.401019287109375	100.56	-0.9923966	-9.7479925	1.0726024	-0.0036468431	0.0041844295	-0.002528983	-26.600002	39.4	-13.600006	
0.690025122883668	0.0	-0.06904639486475712	0.10198915999999965	8.771067760000001	3.2244265199999997	0.31402587890625	0.401019287109375	100.57000000000001	-0.9959879	-9.745598	1.0833763	-0.0030359775	0.0047952947	-0.002528983	-26.600002	39.4	-13.700012	
0.700025486983435	0.0	-0.09056443204121689	0.0961051700000003	8.765183769999998	3.228349179999999	0.314007568359375	0.40103759765624997	100.58	-0.997185	-9.7479925	1.0761937	-0.0024251118	0.0035735643	-0.0019181175	-26.600002	39.4	-13.700012	
0.710025851083202	0.0	-0.03930747918455594	0.11964112999999989	8.76322244	3.24011716	0.31406249999999997	0.401092529296875	100.59	-0.9947908	-9.753978	1.0510546	-0.0018142462	0.0029626992	-0.0019181175	-26.600002	39.4	-13.700012	
0.720026215182969	0.0	-0.05031357335623161	0.13337044000000053	8.73184116	3.2263878499999996	0.314007568359375	0.401019287109375	100.60000000000001	-1.0043676	-9.767146	1.0546459	-0.0005925149	0.0017409688	-0.00069638714	-26.600002	39.4	-13.700012	
0.7300265792827219	0.0	0.0016172220007360158	0.15102241000000077	8.747531799999999	3.1498959799999993	0.3139892578125	0.401055908203125	100.61	-0.9935937	-9.765948	1.0642227	-0.0018142462	-0.00070249196	-8.5521955e-05	-26.499996	39.5	-13.700012	
0.7400269433824889	0.0	-0.02803184801275761	0.15102241000000077	8.700459879999999	3.153818640000001	0.314007568359375	0.40103759765624997	100.62	-0.9720459	-9.758766	1.0594343	-0.0018142462	-9.162724e-05	0.00052534323	-26.499996	39.5	-13.700012	
0.7500273074822559	0.0	0.010062714671246321	0.16475171999999927	8.72007318	3.1950065700000008	0.31406249999999997	0.401092529296875	100.63	-0.94690675	-9.753978	1.0582372	-0.0018142462	0.002351834	0.00052534323	-26.499996	39.5	-13.700012	
0.7600276715820229	0.0	-0.009523640671000982	0.11964112999999989	8.71615052	3.153818640000001	0.31406249999999997	0.4010009765625	100.64	-0.9516952	-9.7563715	1.0510546	-0.0012033805	0.0035735643	-8.5521955e-05	-26.499996	39.5	-13.700012	
0.7700280356817757	0.0	0.01657652550754416	0.15298374000000056	8.73380249	3.2577691300000002	0.314117431640625	0.40111083984375	100.65	-0.9624691	-9.765948	1.0426749	-0.0018142462	0.0041844295	-0.0019181175	-26.499996	39.5	-13.799988	
0.7800283997815427	0.0	-0.01383623267296369	0.12160245999999966	8.747531799999999	3.20089056	0.314080810546875	0.401092529296875	100.66	-0.9935937	-9.768343	1.0414777	-0.0024251118	0.0035735643	-0.0037507133	-26.499996	39.5	-13.799988	
0.7900287638813097	0.0	0.026594317345436706	0.13337044000000053	8.800487709999999	3.20285189	0.314080810546875	0.40103759765624997	100.67	-1.0067618	-9.765948	1.0594343	-0.0036468431	0.0017409688	-0.0043615787	-26.499996	39.5	-13.799988	
0.8000291279810767	0.0	-0.006603656503005398	0.09806650000000008	8.778913079999999	3.3048410499999994	0.31409912109375	0.4011474609375	100.68	-1.0067618	-9.765948	1.0594343	-0.0048685744	-0.00070249196	-0.0037507133	-26.499996	39.5	-13.799988	
0.8100294920808295	0.0	0.03198505734789009	0.15690640000000014	8.708305199999998	3.2165812000000007	0.31417236328125	0.40112915039062497	100.69	-1.0007763	-9.752781	1.0714053	-0.004257709	-0.0019242233	-0.002528983	-26.499996	39.5	-13.700012	
0.8200298561805965	0.0	0.005929814002698725	0.12748644999999903	8.747531799999999	3.1773546000000006	0.314190673828125	0.401092529296875	100.7	-0.9935937	-9.745598	1.0726024	-0.004257709	-0.0019242233	-0.0019181175	-26.499996	39.5	-13.700012	
0.8300302202803636	0.0	0.04474314202036311	0.15494507000000035	8.722034509999999	3.2067745499999996	0.314208984375	0.401202392578125	100.71000000000001	-0.9780314	-9.764751	1.0690111	-0.004257709	-0.0031459536	-0.0019181175	-26.499996	39.5	-13.799988	
0.8400305843801306	0.0	0.01060178867149166	0.1706357100000008	8.71811185	3.2656144499999993	0.314227294921875	0.40122070312499997	100.72	-0.9888053	-9.779117	1.0654198	-0.0036468431	-0.0037568184	-0.0013072523	-26.499996	39.5	-13.799988	
0.8500309484798834	0.0	0.038993019351079496	0.18044235999999972	8.73772515	3.28130509	0.314190673828125	0.401275634765625	100.73	-0.9828198	-9.765948	1.0737995	-0.004257709	-0.002535088	-0.0013072523	-26.499996	39.5	-13.799988	
0.8600313125796504	0.0	0.0045372061687316	0.11964112999999989	8.73184116	3.3028797199999995	0.314208984375	0.4012939453125	100.74000000000001	-0.9792285	-9.757569	1.0749966	-0.0054794364	-0.0013133576	-0.00069638714	-26.499996	39.5	-13.799988	
0.8700316766794174	0.0	0.031086600680814525	0.12748644999999903	8.73772515	3.271498439999999	0.314300537109375	0.40125732421875	100.75	-0.9792285	-9.743204	1.0833763	-0.006090302	-9.162724e-05	-0.002528983	-26.499996	39.5	-13.700012	
0.8800320407791844	0.0	0.0032344440014720316	0.12552511999999924	8.765183769999998	3.29895706	0.314300537109375	0.401275634765625	100.76	-0.9876082	-9.728839	1.0869676	-0.0054794364	-0.00070249196	-0.002528983	-26.499996	39.5	-13.700012	
0.8900324048789372	0.0	0.03450073601570167	0.09218251000000073	8.757338449999999	3.287189079999999	0.314300537109375	0.40131225585937497	100.77	-0.9756372	-9.740809	1.0809821	-0.0054794364	-0.0013133576	-0.002528983	-26.499996	39.5	-13.600006	
0.9000327689787042	0.0	-0.007187653336604515	0.08825984999999899	8.778913079999999	3.29895706	0.31431884765625	0.401385498046875	100.78	-0.9864111	-9.746795	1.0749966	-0.0036468431	-0.0019242233	-0.002528983	-26.499996	39.5	-13.600006	
0.9100331330784712	0.0	0.030367835347154076	0.10198915999999965	8.76322244	3.2930730700000006	0.31433715820312497	0.401385498046875	100.79	-0.9959879	-9.744401	1.0618285	-0.0024251118	-0.0049785487	-0.0031398481	-26.499996	39.5	-13.600006	
0.9200334971782382	0.0	0.009793177671123652	0.10395048999999944	8.749493130000001	3.287189079999999	0.31433715820312497	0.401458740234375	100.8	-1.0043676	-9.7563715	1.0654198	-0.0024251118	-0.0074220095	-0.002528983	-26.499996	39.5	-13.600006	
0.930033861277991	0.0	0.03719610601692837	0.14906108000000098	8.75537712	3.1636252899999997	0.31431884765625	0.401458740234375	100.81	-1.0067618	-9.776723	1.0630256	-0.0018142462	-0.009254606	-0.0019181175	-26.499996	39.5	-13.5	
0.940034225377758	0.0	0.00022461416676889108	0.15690640000000014	8.73184116	3.1851999199999996	0.314373779296875	0.401422119140625	100.82000000000001	-0.9911995	-9.775525	1.0642227	-0.0024251118	-0.009254606	-0.0013072523	-26.499996	39.5	-13.5	
0.9500345894775251	0.0	0.029649070013493622	0.1412157599999997	8.69261456	3.2460011499999992	0.314410400390625	0.40140380859374997	100.83	-0.9816227	-9.773131	1.0714053	-0.0048685744	-0.002535088	-0.0019181175	-26.499996	39.5	-13.5	
0.9600349535772779	0.0	-0.005345817169099608	0.1372931000000001	8.71811185	3.208735879999999	0.314410400390625	0.401531982421875	100.84	-0.9780314	-9.775525	1.0761937	-0.0054794364	0.0017409688	-0.0019181175	-26.499996	39.5	-13.5	
0.9700353176770449	0.0	0.04348530268645732	0.1412157599999997	8.71615052	3.208735879999999	0.31446533203125	0.40149536132812497	100.85000000000001	-0.9696517	-9.7563715	1.0630256	-0.0067011677	0.0029626992	-0.002528983	-26.600002	39.5	-13.399994	
0.9800356817768119	0.0	-0.0025156786678115803	0.12356378999999945	8.75145446	3.1930452399999987	0.314501953125	0.40155029296875	100.86	-0.9708488	-9.752781	1.0570401	-0.0073120333	0.002351834	-0.0031398481	-26.600002	39.5	-13.399994	
0.9900360458765789	0.0	0.040430550018400395	0.10198915999999965	8.749493130000001	3.20285189	0.314483642578125	0.401531982421875	100.87	-0.9744401	-9.745598	1.0714053	-0.0067011677	-9.162724e-05	-0.0031398481	-26.600002	39.5	-13.399994	
1.0000364099763317	0.0	0.0070978076698969585	0.10591181999999921	8.778913079999999	3.2165812000000007	0.31453857421875	0.401531982421875	100.88	-0.9828198	-9.736021	1.0785879	-0.0067011677	-0.0013133576	-0.0031398481	-26.600002	39.5	-13.399994	
1.0100367740760987	0.0	0.028930304679833173	0.11964112999999989	8.749493130000001	3.2263878499999996	0.314556884765625	0.40162353515625	100.89	-0.9983821	-9.740809	1.0857705	-0.0067011677	-0.0037568184	-0.0031398481	-26.600002	39.4	-13.399994	
1.0200371381758657	0.0	-0.011455322505213446	0.12552511999999924	8.78087441	3.2734597700000005	0.314501953125	0.401605224609375	100.9	-1.0019734	-9.753978	1.0761937	-0.0054794364	-0.0049785487	-0.002528983	-26.600002	39.4	-13.399994	
1.0300375022756327	0.0	0.019766046675662417	0.12748644999999903	8.771067760000001	3.232271839999999	0.314556884765625	0.40169677734375	100.91	-0.9959879	-9.749189	1.0737995	-0.004257709	-0.00620028	-0.0037507133	-26.600002	39.5	-13.399994	
1.0400378663753855	0.0	-0.011500245338567224	0.16671304999999906	8.747531799999999	3.2773824300000003	0.314593505859375	0.401605224609375	100.92	-0.9983821	-9.757569	1.0881647	-0.0036468431	-0.0049785487	-0.002528983	-26.600002	39.5	-13.399994	
1.0500382304751525	0.0	0.025022018178054467	0.1412157599999997	8.77695175	3.232271839999999	0.31461181640624997	0.40177001953124997	100.93	-0.9923966	-9.770737	1.0821792	-0.0030359775	-0.0031459536	-0.002528983	-26.600002	39.5	-13.299988	
1.0600385945749196	0.0	-0.006109505336113838	0.14317708999999945	8.75145446	3.2263878499999996	0.314630126953125	0.40177001953124997	100.94	-0.9995792	-9.774328	1.0761937	-0.0036468431	-9.162724e-05	-0.0019181175	-26.600002	39.5	-13.299988	
1.0700389586746866	0.0	0.03144598334764475	0.14906108000000098	8.727918499999998	3.1793159300000005	0.31461181640624997	0.40177001953124997	100.95	-0.9900024	-9.768343	1.0821792	-0.0030359775	0.002351834	-0.0013072523	-26.600002	39.5	-13.299988	
1.0800393227744394	0.0	-0.0070978076698969585	0.1608290599999997	8.71026653	3.2263878499999996	0.314666748046875	0.40184326171875	100.96000000000001	-0.9768343	-9.765948	1.0666169	-0.0030359775	0.002351834	-0.0013072523	-26.600002	39.5	-13.299988	
1.0900396868742064	0.0	0.02569586067836114	0.13337044000000053	8.73968648	3.2577691300000002	0.31468505859375	0.4018798828125	100.97	-0.9696517	-9.767146	1.0534488	-0.0054794364	0.0029626992	-0.0019181175	-26.600002	39.5	-13.299988	
1.1000400509739734	0.0	0.007187653336604515	0.1412157599999997	8.708305199999998	3.208735879999999	0.314739990234375	0.40191650390625	100.98	-0.9840169	-9.7563715	1.0594343	-0.0067011677	0.0029626992	-0.002528983	-26.600002	39.5	-13.299988	
1.1100404150737404	0.0	0.038993019351079496	0.18044235999999972	8.73184116	3.3185703600000003	0.314739990234375	0.401934814453125	100.99000000000001	-0.9876082	-9.757569	1.0474633	-0.0073120333	0.002351834	-0.0031398481	-26.600002	39.5	-13.299988	
1.1200407791734932	0.0	0.004671974668792935	0.12748644999999903	8.765183769999998	3.1851999199999996	0.314813232421875	0.401971435546875	101.0	-0.9876082	-9.76116	1.0510546	-0.0073120333	0.0011301031	-0.0037507133	-26.600002	39.5	-13.299988	
1.1300411432732602	0.0	0.037465643017051034	0.15494507000000035	8.73380249	3.232271839999999	0.3147216796875	0.40191650390625	101.01	-0.985214	-9.749189	1.0534488	-0.0073120333	0.0005192384	-0.0037507133	-26.600002	39.5	-13.299988	
1.1400415073730272	0.0	0.0025606015011653584	0.16475171999999927	8.71811185	3.210697209999999	0.31479492187499997	0.40204467773437497	101.02	-0.9911995	-9.7479925	1.0654198	-0.0073120333	0.0017409688	-0.0037507133	-26.600002	39.5	-13.299988	
1.1500418714727942	0.0	0.007277499003312072	0.1725970400000006	8.700459879999999	3.2165812000000007	0.31475830078125	0.402081298828125	101.03	-0.9792285	-9.738416	1.079785	-0.0067011677	0.0017409688	-0.0037507133	-26.600002	39.5	-13.200012	
1.160042235572547	0.0	-0.21863942993283858	0.16671304999999906	8.69261456	3.20089056	0.31483154296875	0.40213623046874997	101.04	-0.9768343	-9.758766	1.0749966	-0.006090302	0.002351834	-0.0043615787	-26.600002	39.5	-13.200012	
1.170042599672314	0.0	-0.12650269872423947	0.13533177000000032	8.71615052	3.2263878499999996	0.31483154296875	0.402117919921875	101.05	-0.9792285	-9.763555	1.0773908	-0.0054794364	0.002351834	-0.0037507133	-26.600002	39.5	-13.200012	
1.180042963772081	0.0	0.6382636162904809	0.14906108000000098	8.71615052	3.3126863700000007	0.314923095703125	0.4021728515625	101.06	-0.985214	-9.763555	1.0726024	-0.001307264	0.0025900719	-0.0015515962	-26.600002	39.5	-13.200012	
1.190043327871848	0.0	0.9784193104452896	0.1725970400000006	8.708305199999998	3.2773824300000003	0.31488647460937497	0.402191162109375	101.07000000000001	-0.9840169	-9.76116	1.0522517	-0.001307264	0.003200937	-0.0021624614	-26.600002	39.5	-13.299988	
1.2000436919716009	0.0	0.40178982151619236	0.13337044000000053	8.73772515	3.310725039999999	0.31490478515625	0.402191162109375	101.08	-0.9744401	-9.763555	1.0426749	-0.0019181296	0.0025900719	-0.0009407308	-26.600002	39.5	-13.299988	
1.210044056071368	0.0	0.14339368406526007	0.168674380000001	8.68476924	3.287189079999999	0.314996337890625	0.402264404296875	101.09	-0.973243	-9.750386	1.0378864	-0.001307264	0.0019792067	-0.0009407308	-26.600002	39.5	-13.299988	
1.220044420171135	0.0	-0.07484144036739451	0.18436501999999927	8.67692392	3.210697209999999	0.31494140625	0.402301025390625	101.10000000000001	-0.9720459	-9.750386	1.0342951	-0.0006963983	0.0007574763	-0.0009407308	-26.600002	39.5	-13.299988	
1.230044784270902	0.0	-0.1276706923914377	0.14906108000000098	8.700459879999999	3.3068023799999993	0.3150146484375	0.402374267578125	101.11	-0.9600749	-9.770737	1.0354922	-0.001307264	0.0007574763	-0.0015515962	-26.600002	39.5	-13.299988	
1.2400451483706547	0.0	-0.17951164208169776	0.13533177000000032	8.723995839999999	3.16166396	0.3150146484375	0.402447509765625	101.12	-0.961272	-9.76954	1.0390835	-0.0025289916	-0.0010751197	-0.0015515962	-26.600002	39.5	-13.299988	
1.2500455124704217	0.0	-0.14096785106415605	0.13337044000000053	8.71811185	3.173431940000001	0.315106201171875	0.402484130859375	101.13	-0.961272	-9.765948	1.0402806	-0.0025289916	-0.0016859854	-0.0009407308	-26.499996	39.5	-13.399994	
1.2600458765701887	0.0	-0.17398613357918305	0.2039783199999993	8.69457589	3.1695092799999993	0.315142822265625	0.402484130859375	101.14	-0.961272	-9.750386	1.0450691	-0.0031398572	-0.0016859854	-0.0015515962	-26.499996	39.5	-13.399994	
1.2700462406699415	0.0	-0.13773340706268403	0.1176798000000001	8.778913079999999	3.210697209999999	0.315106201171875	0.40250244140624997	101.15	-0.9636662	-9.734824	1.0773908	-0.0031398572	0.00014661066	-0.0027733266	-26.600002	39.5	-13.399994	
1.2800466047697086	0.0	-0.16545079524196518	0.11964112999999989	8.76910643	3.3166090300000004	0.315142822265625	0.40250244140624997	101.16	-0.9828198	-9.744401	1.079785	-0.0019181296	0.0025900719	-0.0027733266	-26.600002	39.5	-13.399994	
1.2900469688694756	0.0	-0.11051017005029441	0.1392544299999999	8.700459879999999	3.210697209999999	0.31516113281249997	0.4025390625	101.17	-1.0043676	-9.764751	1.0630256	-0.0019181296	0.0050335326	-0.003384192	-26.600002	39.5	-13.399994	
1.3000473329692426	0.0	-0.13795802122945292	0.15102241000000077	8.68476924	3.191083909999999	0.315179443359375	0.40257568359375	101.18	-1.0247183	-9.773131	1.0582372	-0.0019181296	0.0044226674	-0.003384192	-26.600002	39.5	-13.399994	
1.3100476970689954	0.0	-0.09900992471172719	0.11964112999999989	8.688691899999998	3.1851999199999996	0.31525268554687497	0.40259399414062497	101.19	-1.0055647	-9.773131	1.0486604	-0.0006963983	0.001368341	-0.0021624614	-26.600002	39.5	-13.399994	
1.3200480611687624	0.0	-0.1437530667320903	0.11964112999999989	8.73968648	3.3028797199999995	0.315142822265625	0.402703857421875	101.2	-0.9876082	-9.76954	1.043872	-8.5532665e-05	-0.00046425406	-0.0003298656	-26.600002	39.5	-13.399994	
1.3300484252685294	0.0	-0.11482276205225712	0.18044235999999972	8.784797069999998	3.26169179	0.315216064453125	0.40279541015625	101.21000000000001	-0.9696517	-9.774328	1.0462662	-0.0006963983	0.0007574763	0.00089186477	-26.600002	39.5	-13.399994	
1.3400487893682964	0.0	-0.14644843673331698	0.08825984999999899	8.83186899	3.3342610000000006	0.31527099609375	0.4027587890625	101.22	-0.9648633	-9.764751	1.0402806	-0.0025289916	0.003200937	-0.0003298656	-26.600002	39.5	-13.399994	
1.3500491534680492	0.0	-0.11823689738714427	0.12944778000000098	8.778913079999999	3.3028797199999995	0.31527099609375	0.402813720703125	101.23	-0.961272	-9.764751	1.0175357	-0.0031398572	0.0050335326	-0.0009407308	-26.600002	39.4	-13.399994	
1.3600495175678162	0.0	-0.1395752432301889	0.1902490100000008	8.747531799999999	3.287189079999999	0.31525268554687497	0.40286865234374997	101.24000000000001	-0.9792285	-9.764751	1.033098	-0.0043615885	0.0038118022	-0.0021624614	-26.600002	39.4	-13.399994	
1.3700498816675832	0.0	-0.09927946171184986	0.1412157599999997	8.778913079999999	3.1969679000000006	0.31525268554687497	0.402813720703125	101.25	-0.9935937	-9.76954	1.0618285	-0.0061941817	0.0019792067	-0.0021624614	-26.600002	39.5	-13.299988	
1.3800502457673502	0.0	-0.11841658872055938	0.1706357100000008	8.71615052	3.1891225799999994	0.315289306640625	0.402923583984375	101.26	-0.9911995	-9.770737	1.0714053	-0.0061941817	0.0025900719	-0.0009407308	-26.600002	39.5	-13.299988	
1.390050609867103	0.0	-0.07762665603532876	0.15298374000000056	8.723995839999999	3.20089056	0.315362548828125	0.4029052734375	101.27	-0.9708488	-9.7563715	1.0582372	-0.0037507229	0.0038118022	-0.0009407308	-26.600002	39.4	-13.399994	
1.40005097396687	0.0	-0.08998043520761777	0.1902490100000008	8.686730569999998	3.1851999199999996	0.3153076171875	0.40283203125	101.28	-0.9516952	-9.745598	1.033098	-0.0025289916	0.0044226674	0.00028099958	-26.600002	39.4	-13.399994	
1.410051338066637	0.0	-0.040430550018400395	0.17651970000000014	8.66319461	3.1636252899999997	0.315362548828125	0.402850341796875	101.29	-0.94570965	-9.740809	1.0151415	-0.001307264	0.0025900719	-0.0003298656	-26.600002	39.5	-13.399994	
1.420051702166404	0.0	-0.05426678269136409	0.18828768000000104	8.65338796	3.1636252899999997	0.315325927734375	0.40277709960937497	101.3	-0.9504981	-9.743204	1.0271125	0.0011361986	0.0007574763	-0.0009407308	-26.600002	39.5	-13.399994	
1.4300520662661569	0.0	-0.007322421836665849	0.16475171999999927	8.671039930000001	3.1773546000000006	0.315362548828125	0.402850341796875	101.31	-0.94930094	-9.749189	1.0378864	0.0017470643	-0.00046425406	-0.0009407308	-26.600002	39.4	-13.399994	
1.440052430365924	0.0	-0.013207313006010796	0.13140911000000077	8.67300126	3.19892923	0.315362548828125	0.402850341796875	101.32000000000001	-0.9576807	-9.752781	1.0354922	0.0011361986	0.0007574763	-0.0015515962	-26.600002	39.4	-13.399994	
1.450052794465691	0.0	0.04191300351907508	0.18044235999999972	8.72007318	3.1930452399999987	0.315399169921875	0.402886962890625	101.33	-0.9696517	-9.758766	1.0271125	-8.5532665e-05	0.001368341	-0.0015515962	-26.600002	39.5	-13.399994	
1.460053158565458	0.0	0.007007962003189402	0.15494507000000035	8.735763819999999	3.2460011499999992	0.315362548828125	0.40286865234374997	101.34	-0.9672575	-9.762358	1.0151415	0.000525333	0.0007574763	-0.0021624614	-26.600002	39.5	-13.399994	
1.4700535226652107	0.0	0.05318863469087341	0.1706357100000008	8.778913079999999	3.2656144499999993	0.31541748046875	0.402886962890625	101.35000000000001	-0.9672575	-9.762358	1.0151415	-8.5532665e-05	-0.0010751197	-0.0015515962	-26.600002	39.5	-13.5	
1.4800538867649777	0.0	0.02120357734298332	0.18436501999999927	8.79460372	3.2361945000000003	0.3154541015625	0.40294189453125	101.36	-0.9720459	-9.791088	1.0259154	-0.0025289916	-0.0029077157	-0.0021624614	-26.600002	39.5	-13.5	
1.4900542508647447	0.0	0.05817506919314279	0.1392544299999999	8.76322244	3.2930730700000006	0.31541748046875	0.40286865234374997	101.37	-0.9923966	-9.788693	1.043872	-0.0019181296	-0.0029077157	-0.0009407308	-26.600002	39.5	-13.5	
1.5000546149645118	0.0	0.03611795801643769	0.2039783199999993	8.68476924	3.2656144499999993	0.31543579101562497	0.402996826171875	101.38	-0.9947908	-9.753978	1.0247183	-0.0019181296	-0.0035185805	0.00028099958	-26.600002	39.5	-13.5	
1.5100549790642646	0.0	0.07313437269995093	0.14317708999999945	8.71615052	3.2244265199999997	0.31543579101562497	0.40296020507812497	101.39	-0.9947908	-9.753978	1.0247183	-0.001307264	-0.004129446	0.00028099958	-26.7	39.5	-13.600006	
1.5200553431640316	0.0	0.03018814401373896	0.15494507000000035	8.73184116	3.16166396	0.31541748046875	0.403033447265625	101.4	-0.9576807	-9.757569	1.0283096	-8.5532665e-05	-0.004129446	0.0021135951	-26.7	39.5	-13.600006	
1.5300557072637986	0.0	0.07439221203385674	0.1412157599999997	8.71222786	3.2048132199999997	0.315582275390625	0.402996826171875	101.41	-0.94690675	-9.765948	1.0450691	-8.5532665e-05	-0.0035185805	0.00150273	-26.600002	39.5	-13.700012	
1.5400560713635514	0.0	0.015992528673945045	0.14513841999999924	8.71615052	3.25973046	0.31552734374999997	0.40301513671875	101.42	-0.94690675	-9.765948	1.0450691	0.000525333	-0.0010751197	0.00089186477	-26.600002	39.5	-13.700012	
1.5500564354633184	0.0	0.0628919666952895	0.11964112999999989	8.708305199999998	3.3048410499999994	0.315545654296875	0.40316162109375	101.43	-0.9516952	-9.749189	1.0366893	-0.0006963983	0.00014661066	-0.0003298656	-26.600002	39.5	-13.700012	
1.5600567995630854	0.0	0.04402437668670266	0.14317708999999945	8.69653722	3.2656144499999993	0.3156005859375	0.40316162109375	101.44	-0.9528923	-9.750386	1.0426749	-0.0006963983	-0.00046425406	-0.0021624614	-26.600002	39.5	-13.700012	
1.5700571636628524	0.0	0.05732153535942101	0.18632634999999906	8.72595717	3.2930730700000006	0.3156005859375	0.40314331054687497	101.45	-0.9528923	-9.750386	1.0426749	-0.0006963983	-0.0010751197	-0.0027733266	-26.600002	39.5	-13.700012	
1.5800575277626052	0.0	0.03378197068204122	0.12552511999999924	8.771067760000001	3.26365312	0.315582275390625	0.40323486328124997	101.46000000000001	-0.9720459	-9.745598	1.0570401	-8.5532665e-05	-0.0016859854	-0.0027733266	-26.600002	39.5	-13.700012	
1.5900578918623722	0.0	0.05606369602551522	0.11375714000000053	8.767145099999999	3.3362223300000005	0.315655517578125	0.403179931640625	101.47	-0.9864111	-9.751583	1.0510546	-8.5532665e-05	-0.00229685	-0.0027733266	-26.7	39.5	-13.700012	
1.6000582559621392	0.0	0.02821153934617272	0.12552511999999924	8.78087441	3.2558078000000004	0.315655517578125	0.4031982421875	101.48	-0.9864111	-9.763555	1.0354922	0.000525333	-0.0029077157	-0.0015515962	-26.7	39.5	-13.700012	
1.6100586200619063	0.0	0.05139172135672228	0.1412157599999997	8.749493130000001	3.208735879999999	0.31563720703125	0.403216552734375	101.49000000000001	-0.9864111	-9.763555	1.0354922	0.0017470643	-0.004129446	-0.0009407308	-26.600002	39.5	-13.700012	
1.620058984161659	0.0	0.03054752668056919	0.16671304999999906	8.722034509999999	3.20089056	0.31563720703125	0.40316162109375	101.5	-0.985214	-9.773131	1.0319009	0.0017470643	-0.004740311	-0.0009407308	-26.600002	39.5	-13.700012	
1.630059348261426	0.0	0.0544464740247792	0.18828768000000104	8.700459879999999	3.2244265199999997	0.315655517578125	0.403216552734375	101.51	-0.985214	-9.773131	1.0319009	0.000525333	-0.004129446	-0.0003298656	-26.7	39.5	-13.700012	
1.640059712361193	0.0	0.03809456268400393	0.17651970000000014	8.72007318	3.232271839999999	0.315655517578125	0.40330810546875	101.52	-0.9816227	-9.776723	1.0402806	-8.5532665e-05	-0.0016859854	0.00089186477	-26.7	39.5	-13.700012	
1.65006007646096	0.0	0.039711784684739945	0.18828768000000104	8.727918499999998	3.271498439999999	0.315692138671875	0.403216552734375	101.53	-0.9648633	-9.764751	1.0414777	-8.5532665e-05	-0.0016859854	0.00089186477	-26.7	39.5	-13.700012	
1.660060440560713	0.0	0.027178314179035823	0.1392544299999999	8.749493130000001	3.2656144499999993	0.3157470703125	0.40330810546875	101.54	-0.94810385	-9.762358	1.0462662	-0.0006963983	0.0025900719	0.00089186477	-26.600002	39.5	-13.700012	
1.67006080466048	0.0	0.059298140026987245	0.168674380000001	8.71615052	3.2656144499999993	0.31571044921874997	0.40330810546875	101.55	-0.9552865	-9.745598	1.0462662	0.0011361986	0.0025900719	-0.0003298656	-26.7	39.5	-13.600006	
1.680061168760247	0.0	0.02138326867639843	0.16475171999999927	8.75145446	3.28130509	0.315728759765625	0.40338134765625	101.56	-0.9696517	-9.759963	1.0366893	0.000525333	0.001368341	-0.0009407308	-26.7	39.5	-13.600006	
1.690061532860014	0.0	0.05606369602551522	0.18828768000000104	8.73968648	3.232271839999999	0.3157470703125	0.403399658203125	101.57000000000001	-0.9696517	-9.762358	1.0295067	0.000525333	-0.00046425406	-0.0015515962	-26.7	39.5	-13.600006	
1.7000618969597667	0.0	0.007232576169958293	0.1608290599999997	8.69457589	3.21854253	0.31580200195312497	0.40341796874999997	101.58	-0.9648633	-9.7719345	1.0307038	-8.5532665e-05	-0.0029077157	-0.0009407308	-26.7	39.5	-13.600006	
1.7100622610595337	0.0	0.041149315352060845	0.15494507000000035	8.73968648	3.2558078000000004	0.31578369140625	0.40345458984375	101.59	-0.9672575	-9.770737	1.0366893	-8.5532665e-05	-0.004129446	-0.0015515962	-26.7	39.5	-13.600006	
1.7200626251593008	0.0	-0.013117467339303239	0.16475171999999927	8.73968648	3.2734597700000005	0.31580200195312497	0.4034912109375	101.60000000000001	-0.9600749	-9.773131	1.0414777	-8.5532665e-05	-0.004129446	-0.0009407308	-26.7	39.5	-13.600006	
1.7300629892590678	0.0	0.033961662015456334	0.14906108000000098	8.74164781	3.2558078000000004	0.3158203125	0.403564453125	101.61	-0.9528923	-9.762358	1.0354922	0.000525333	-0.0016859854	-0.0009407308	-26.7	39.4	-13.700012	
1.7400633533588206	0.0	-0.007187653336604515	0.13533177000000032	8.708305199999998	3.232271839999999	0.31585693359375	0.403619384765625	101.62	-0.9660604	-9.76116	1.0522517	-8.5532665e-05	-0.00046425406	-0.0009407308	-26.7	39.4	-13.700012	
1.7500637174585876	0.0	0.026818931512205595	0.12356378999999945	8.723995839999999	3.2244265199999997	0.31585693359375	0.403619384765625	101.63	-0.9744401	-9.752781	1.0414777	0.0011361986	0.0019792067	-0.0009407308	-26.600002	39.5	-13.700012	
1.7600640815583546	0.0	-0.012937776005888127	0.14906108000000098	8.73968648	3.2558078000000004	0.315948486328125	0.4036376953125	101.64	-0.9756372	-9.750386	1.0462662	0.000525333	0.0025900719	-0.0015515962	-26.600002	39.5	-13.700012	
1.7700644456581216	0.0	0.04294622868621198	0.1412157599999997	8.735763819999999	3.287189079999999	0.315911865234375	0.403656005859375	101.65	-0.9756372	-9.753978	1.0606314	0.0011361986	0.0025900719	-0.0015515962	-26.600002	39.4	-13.700012	
1.7800648097578744	0.0	0.0023359873343964674	0.1608290599999997	8.708305199999998	3.2734597700000005	0.315911865234375	0.40367431640625	101.66	-0.9780314	-9.763555	1.0582372	0.0011361986	0.0038118022	-0.0009407308	-26.600002	39.4	-13.700012	
1.7900651738576414	0.0	0.03225459434801276	0.1392544299999999	8.708305199999998	3.26169179	0.315948486328125	0.40374755859375	101.67	-0.9672575	-9.764751	1.0366893	0.0011361986	0.0038118022	-0.0009407308	-26.600002	39.4	-13.600006	
1.8000655379574084	0.0	0.004896588835561826	0.16475171999999927	8.73772515	3.27934376	0.31598510742187497	0.403729248046875	101.68	-0.9684546	-9.770737	1.0342951	0.0011361986	0.0025900719	-0.0003298656	-26.600002	39.4	-13.600006	
1.8100659020571754	0.0	0.035399192682777234	0.15494507000000035	8.72595717	3.2773824300000003	0.31593017578125	0.403765869140625	101.69	-0.9804256	-9.758766	1.0354922	0.000525333	0.0007574763	0.00028099958	-26.600002	39.4	-13.600006	
1.8200662661569282	0.0	0.00934394933758587	0.1608290599999997	8.680846579999999	3.1793159300000005	0.315966796875	0.40382080078125	101.7	-0.9756372	-9.751583	1.0366893	-8.5532665e-05	0.00014661066	0.00028099958	-26.600002	39.4	-13.600006	
1.8300666302566952	0.0	0.04564159868743867	0.1412157599999997	8.735763819999999	3.208735879999999	0.315966796875	0.403857421875	101.71000000000001	-0.9720459	-9.770737	1.0510546	-8.5532665e-05	0.0019792067	-0.0003298656	-26.7	39.4	-13.600006	
1.8400669943564623	0.0	-0.0837361613714426	0.18044235999999972	8.686730569999998	3.12243736	0.316058349609375	0.40387573242187497	101.72	-0.961272	-9.76954	1.033098	-8.5532665e-05	0.003200937	-0.0009407308	-26.7	39.4	-13.600006	
1.850067358456215	0.0	-0.18121870974914134	0.14906108000000098	8.71811185	3.230310509999999	0.3160400390625	0.40382080078125	101.73	-0.9660604	-9.755175	1.0474633	-0.0006963983	0.003200937	-0.0003298656	-26.7	39.4	-13.600006	
1.860067722555982	0.0	0.01617222000736016	0.11179581000000074	8.73380249	3.291111739999999	0.31600341796875	0.403912353515625	101.74000000000001	-0.9600749	-9.763555	1.0546459	0.000525333	0.0038118022	0.00028099958	-26.7	39.4	-13.600006	
1.870068086655749	0.0	0.9333167857580963	0.17651970000000014	8.73968648	3.2734597700000005	0.31611328125	0.403857421875	101.75	-0.94570965	-9.764751	1.0462662	-0.0006963983	0.003200937	-0.0003298656	-26.600002	39.4	-13.600006	
1.880068450755516	0.0	0.8848001257360157	0.11179581000000074	8.73380249	3.3185703600000003	0.316021728515625	0.40387573242187497	101.76	-0.9552865	-9.764751	1.0426749	0.000525333	0.0019792067	-0.0009407308	-26.600002	39.4	-13.600006	
1.890068814855269	0.0	0.339077546154318	0.1412157599999997	8.75341579	3.3028797199999995	0.31607666015624997	0.40404052734375	101.77	-0.9768343	-9.7563715	1.0426749	-0.0006963983	0.0007574763	-0.0003298656	-26.7	39.4	-13.600006	
1.900069178955036	0.0	0.05426678269136409	0.16475171999999927	8.71026653	3.1930452399999987	0.31614990234375	0.403985595703125	101.78	-0.9660604	-9.750386	1.0378864	-8.5532665e-05	-0.0016859854	0.00089186477	-26.7	39.4	-13.600006	
1.910069543054803	0.0	-0.07385313803361139	0.15298374000000056	8.71615052	3.2754211000000004	0.31611328125	0.40405883789062497	101.79	-0.9564836	-9.757569	1.021127	0.000525333	-0.00229685	0.00150273	-26.7	39.4	-13.600006	
1.92006990715457	0.0	-0.15399547273675174	0.18044235999999972	8.71615052	3.2734597700000005	0.31611328125	0.40404052734375	101.8	-0.94930094	-9.759963	1.0498575	0.0011361986	-0.00229685	0.00089186477	-26.7	39.4	-13.600006	
1.9300702712543227	0.0	-0.13885647789652847	0.12356378999999945	8.747531799999999	3.19892923	0.31614990234375	0.4040771484375	101.81	-0.9516952	-9.763555	1.0510546	0.000525333	0.00014661066	0.00089186477	-26.600002	39.5	-13.600006	
1.9400706353540897	0.0	-0.18094917274901867	0.12748644999999903	8.700459879999999	3.1381280000000005	0.316204833984375	0.40415039062499997	101.82000000000001	-0.9516952	-9.759963	1.0522517	-8.5532665e-05	0.0007574763	-0.0003298656	-26.600002	39.5	-13.600006	
1.9500709994538568	0.0	-0.14078815973074094	0.19613300000000017	8.669078599999999	3.1851999199999996	0.31625976562499997	0.404205322265625	101.83	-0.9540894	-9.765948	1.0486604	-0.001307264	0.0007574763	-0.0009407308	-26.600002	39.5	-13.600006	
1.9600713635536238	0.0	-0.1643726472414745	0.21182364000000062	8.669078599999999	3.271498439999999	0.316204833984375	0.40415039062499997	101.84	-0.9624691	-9.77792	1.0402806	-0.0006963983	0.00014661066	-0.0009407308	-26.600002	39.5	-13.600006	
1.9700717276533766	0.0	-0.12794022939156036	0.16475171999999927	8.70438254	3.232271839999999	0.31629638671875	0.404205322265625	101.85000000000001	-0.9792285	-9.7803135	1.0534488	-0.0006963983	0.001368341	-0.0003298656	-26.600002	39.5	-13.600006	
1.9800720917531436	0.0	-0.15597207740431798	0.1176798000000001	8.69261456	3.230310509999999	0.316204833984375	0.40418701171875	101.86	-0.9804256	-9.763555	1.0450691	-0.0006963983	0.0025900719	-0.0003298656	-26.600002	39.5	-13.600006	
1.9900724558529106	0.0	-0.10152560337953877	0.1176798000000001	8.68476924	3.24011716	0.31629638671875	0.404315185546875	101.87	-0.9744401	-9.744401	1.0426749	-0.001307264	0.003200937	-0.0009407308	-26.600002	39.5	-13.600006	
2.0000728199526776	0.0	-0.1491438067345437	0.13533177000000032	8.708305199999998	3.2734597700000005	0.31625976562499997	0.404296875	101.88	-0.9696517	-9.757569	1.0247183	-0.0019181296	0.0019792067	-0.0003298656	-26.600002	39.5	-13.600006	
2.0100731840524304	0.0	-0.1117680093842002	0.15102241000000077	8.76910643	3.3754489300000006	0.31629638671875	0.40433349609374997	101.89	-0.9744401	-9.775525	1.0378864	-0.0025289916	0.001368341	-0.0003298656	-26.600002	39.5	-13.600006	
2.0200735481521974	0.0	-0.14626874539990187	0.12944778000000098	8.79460372	3.3185703600000003	0.31636962890625	0.404351806640625	101.9	-0.9828198	-9.7863	1.0642227	-0.0025289916	0.001368341	0.00028099958	-26.600002	39.5	-13.600006	
2.0300739122519644	0.0	-0.11320554005152111	0.15298374000000056	8.778913079999999	3.291111739999999	0.31636962890625	0.404443359375	101.91	-0.9900024	-9.792285	1.0522517	-0.0037507229	0.0025900719	0.00089186477	-26.600002	39.5	-13.700012	
2.0400742763517314	0.0	-0.13566695672841023	0.16671304999999906	8.78283574	3.2126585399999987	0.31635131835937497	0.404388427734375	101.92	-0.9780314	-9.7803135	1.0510546	-0.0043615885	0.0025900719	0.00089186477	-26.600002	39.5	-13.700012	
2.0500746404514842	0.0	-0.09285549654225958	0.168674380000001	8.74164781	3.1871612499999995	0.31636962890625	0.40447998046875	101.93	-0.9708488	-9.767146	1.0510546	-0.004972454	0.0038118022	0.00028099958	-26.600002	39.5	-13.700012	
2.0600750045512513	0.0	-0.1268620813910697	0.1176798000000001	8.71811185	3.1400893300000003	0.316387939453125	0.404461669921875	101.94	-0.9516952	-9.746795	1.0570401	-0.0043615885	0.0050335326	0.00150273	-26.600002	39.5	-13.700012	
2.0700753686510183	0.0	-0.08175955670387636	0.12552511999999924	8.67888525	3.20285189	0.316461181640625	0.40442504882812497	101.95	-0.94092125	-9.740809	1.0534488	-0.001307264	0.006866128	0.00150273	-26.600002	39.5	-13.700012	
2.0800757327507853	0.0	-0.09896500187837341	0.1725970400000006	8.700459879999999	3.230310509999999	0.31636962890625	0.404498291015625	101.96000000000001	-0.93373865	-9.738416	1.0378864	0.0011361986	0.0050335326	0.00089186477	-26.600002	39.5	-13.700012	
2.090076096850538	0.0	-0.019586355342247303	0.1725970400000006	8.67300126	3.1557799700000007	0.316387939453125	0.40440673828125	101.97	-0.93972415	-9.730036	0.9959879	0.0017470643	0.0007574763	-0.0003298656	-26.600002	39.4	-13.700012	
2.100076460950305	0.0	-0.05188587252361384	0.16475171999999927	8.65534929	3.1243986899999996	0.31636962890625	0.40440673828125	101.98	-0.9516952	-9.746795	1.0079589	0.0035796613	-0.0035185805	0.00028099958	-26.600002	39.4	-13.700012	
2.110076825050072	0.0	-0.00035938266683022574	0.15690640000000014	8.669078599999999	3.093017409999999	0.31636962890625	0.40433349609374997	101.99000000000001	-0.9576807	-9.742006	1.009156	0.004190527	-0.006572907	0.00089186477	-26.600002	39.5	-13.700012	
2.120077189149825	0.0	-0.016711294007605498	0.1725970400000006	8.71418919	3.1557799700000007	0.31640625	0.40442504882812497	102.0	-0.9588778	-9.76116	1.0175357	0.00235793	-0.0053511765	0.00150273	-26.600002	39.5	-13.700012	
2.130077553249592	0.0	0.03472535018247056	0.15102241000000077	8.73968648	3.153818640000001	0.316387939453125	0.40447998046875	102.01	-0.9576807	-9.768343	1.0175357	0.0011361986	-0.0016859854	0.00089186477	-26.600002	39.4	-13.700012	
2.140077917349359	0.0	0.005929814002698725	0.18044235999999972	8.727918499999998	3.21854253	0.31644287109374997	0.40447998046875	102.02	-0.9636662	-9.781511	1.0079589	0.0011361986	0.0007574763	0.00028099958	-26.600002	39.4	-13.700012	
2.150078281449126	0.0	0.04501267902048577	0.19613300000000017	8.73968648	3.247962479999999	0.316387939453125	0.4043701171875	102.03	-0.9672575	-9.78989	0.9983821	-8.5532665e-05	0.0019792067	-0.0003298656	-26.600002	39.4	-13.700012	
2.1600786455488787	0.0	0.025561092178299806	0.15102241000000077	8.78087441	3.228349179999999	0.31640625	0.404461669921875	102.04	-0.9756372	-9.77792	0.9923966	-0.0006963983	0.0019792067	0.00028099958	-26.600002	39.4	-13.700012	
2.1700790096486458	0.0	0.0600169053606477	0.18044235999999972	8.80441037	3.1381280000000005	0.31644287109374997	0.404443359375	102.05	-0.961272	-9.773131	0.9959879	-0.0019181296	-0.00046425406	0.00150273	-26.600002	39.4	-13.700012	
2.1800793737484128	0.0	0.009523640671000982	0.20593964999999909	8.700459879999999	3.26169179	0.316461181640625	0.40455322265625	102.06	-0.94211835	-9.773131	1.0271125	-0.0037507229	-0.0035185805	0.0021135951	-26.600002	39.4	-13.700012	
2.1900797378481798	0.0	0.06882178069798824	0.18828768000000104	8.669078599999999	3.2048132199999997	0.31653442382812497	0.404498291015625	102.07000000000001	-0.94930094	-9.774328	1.0223241	-0.004972454	-0.0053511765	0.00089186477	-26.600002	39.4	-13.700012	
2.2000801019479326	0.0	0.027852156679342495	0.09414384000000052	8.757338449999999	3.16166396	0.31651611328125	0.40447998046875	102.08	-0.94570965	-9.7479925	1.033098	-0.0043615885	-0.0071837716	0.00089186477	-26.600002	39.4	-13.700012	
2.2100804660476996	0.0	0.05462616535819431	0.15494507000000035	8.73184116	3.1930452399999987	0.316497802734375	0.404534912109375	102.09	-0.9540894	-9.768343	1.0486604	-0.0031398572	-0.009016369	-0.0015515962	-26.600002	39.5	-13.700012	
2.2200808301474666	0.0	0.013117467339303239	0.1412157599999997	8.71615052	3.22050386	0.316497802734375	0.40455322265625	102.10000000000001	-0.9983821	-9.77792	1.0462662	-0.0019181296	-0.008405503	-0.0021624614	-26.600002	39.5	-13.700012	
2.2300811942472336	0.0	0.05498554802502454	0.14906108000000098	8.71615052	3.1557799700000007	0.31651611328125	0.40455322265625	102.11	-1.0031705	-9.752781	1.0450691	-0.0017715096	-0.006542366	-0.002278527	-26.600002	39.5	-13.799988	
2.2400815583469864	0.0	0.01693590817437439	0.1412157599999997	8.72595717	3.230310509999999	0.31653442382812497	0.40460815429687497	102.12	-1.0079589	-9.746795	1.0630256	-0.0023823716	-0.0040989053	-0.00044593122	-26.600002	39.5	-13.799988	
2.2500819224467534	0.0	0.046360364021099124	0.1588677299999999	8.74164781	3.3028797199999995	0.31658935546875	0.404681396484375	102.13	-0.9959879	-9.745598	1.0618285	-0.0029932372	-0.0010445789	-0.0010567966	-26.600002	39.5	-13.899994	
2.2600822865465204	0.0	0.006154428169467616	0.10198915999999965	8.73968648	3.3185703600000003	0.31658935546875	0.4046630859375	102.14	-0.9864111	-9.751583	1.0594343	-0.0036041029	0.0020097475	-0.00044593122	-26.600002	39.5	-13.899994	
2.2700826506462874	0.0	0.030367835347154076	0.09414384000000052	8.73968648	3.25973046	0.316644287109375	0.404718017578125	102.15	-0.9923966	-9.751583	1.055843	-0.0023823716	0.003842343	0.00016493397	-26.600002	39.4	-13.899994	
2.2800830147460402	0.0	-0.010422097338076546	0.10983448000000096	8.77302909	3.24011716	0.31658935546875	0.40462646484375	102.16	-0.9816227	-9.758766	1.033098	-0.00054977834	0.0056749387	0.00016493397	-26.600002	39.4	-13.899994	
2.2900833788458073	0.0	0.02174265134322866	0.10198915999999965	8.771067760000001	3.228349179999999	0.316644287109375	0.40462646484375	102.17	-0.9780314	-9.757569	1.0223241	6.108731e-05	0.0044532083	0.00016493397	-26.600002	39.4	-13.899994	
2.3000837429455743	0.0	0.00017969133341511287	0.18436501999999927	8.71811185	3.230310509999999	0.316607666015625	0.404718017578125	102.18	-0.9780314	-9.757569	1.0223241	0.00067195296	0.0020097475	0.00016493397	-26.600002	39.4	-13.899994	
2.3100841070453413	0.0	0.016082374340652603	0.18044235999999972	8.700459879999999	3.1930452399999987	0.316607666015625	0.4046630859375	102.19	-0.9756372	-9.774328	1.0354922	0.0012828186	0.00017715152	0.00077579916	-26.499996	39.4	-13.799988	
2.320084471145094	0.0	-0.00880487533734053	0.1725970400000006	8.68476924	3.1675479499999994	0.316680908203125	0.404718017578125	102.2	-0.9672575	-9.7719345	1.0283096	0.0012828186	0.00017715152	0.0019975295	-26.499996	39.4	-13.799988	
2.330084835244861	0.0	0.04689943802134446	0.1725970400000006	8.71615052	3.1871612499999995	0.316644287109375	0.4046630859375	102.21000000000001	-0.92775315	-9.759963	1.0163386	0.0012828186	0.0013988819	0.0026083947	-26.499996	39.4	-13.799988	
2.340085199344628	0.0	0.0009433795004293425	0.16671304999999906	8.68476924	3.247962479999999	0.31662597656249997	0.404718017578125	102.22	-0.91578215	-9.749189	0.9983821	0.0018936843	0.003842343	0.0013866643	-26.499996	39.4	-13.799988	
2.350085563444395	0.0	0.030412758180507853	0.14317708999999945	8.702421209999999	3.232271839999999	0.31658935546875	0.404736328125	102.23	-0.91817635	-9.762358	0.9935937	0.0012828186	0.003231478	0.00077579916	-26.600002	39.4	-13.799988	
2.360085927544148	0.0	-0.00808611000368008	0.12944778000000098	8.722034509999999	3.2577691300000002	0.31662597656249997	0.4048095703125	102.24000000000001	-0.92775315	-9.765948	0.9923966	0.00067195296	0.0013988819	-0.00044593122	-26.600002	39.4	-13.799988	
2.370086291643915	0.0	0.04384468535328754	0.14317708999999945	8.72595717	3.214619870000001	0.31666259765625	0.4048095703125	102.25	-0.94570965	-9.764751	0.9768343	-0.00054977834	-0.0016554445	-0.0010567966	-26.600002	39.5	-13.799988	
2.380086655743682	0.0	-0.022820799343719333	0.1588677299999999	8.76910643	3.26365312	0.31669921875	0.40488281249999997	102.26	-0.9552865	-9.776723	0.9947908	-0.0029932372	-0.0053206356	-0.0010567966	-26.600002	39.5	-13.799988	
2.390087019843449	0.0	0.02138326867639843	0.18044235999999972	8.71615052	3.208735879999999	0.31666259765625	0.40484619140625	102.27	-0.9696517	-9.781511	1.0115502	-0.0036041029	-0.0040989053	-0.00044593122	-26.600002	39.5	-13.799988	
2.4000873839432018	0.0	-0.020035583675785087	0.17651970000000014	8.767145099999999	3.24207849	0.31673583984375	0.404864501953125	102.28	-0.9696517	-9.781511	1.0115502	-0.0029932372	-0.0022663092	-0.00044593122	-26.600002	39.5	-13.799988	
2.4100877480429688	0.0	0.026234934678606478	0.14906108000000098	8.76322244	3.1753932700000007	0.316680908203125	0.404901123046875	102.29	-0.9804256	-9.7719345	1.0319009	-0.0023823716	-0.0004337132	0.00016493397	-26.600002	39.5	-13.899994	
2.420088112142736	0.0	-0.02565093784500736	0.13337044000000053	8.77302909	3.1930452399999987	0.31669921875	0.404901123046875	102.3	-0.9672575	-9.7563715	1.0510546	-0.001160644	0.0020097475	0.00016493397	-26.600002	39.5	-13.899994	
2.4300884762424886	0.0	0.017070676674435722	0.12748644999999903	8.75537712	3.2577691300000002	0.31669921875	0.40497436523437497	102.31	-0.9648633	-9.765948	1.043872	-0.001160644	0.003231478	0.00077579916	-26.600002	39.5	-13.899994	
2.4400888403422556	0.0	-0.00808611000368008	0.1588677299999999	8.747531799999999	3.249923809999999	0.31673583984375	0.404937744140625	102.32000000000001	-0.9600749	-9.757569	1.0474633	0.00067195296	0.003231478	0.00077579916	-26.600002	39.5	-13.899994	
2.4500892044420226	0.0	0.04586621285420756	0.12748644999999903	8.73184116	3.2165812000000007	0.316754150390625	0.405029296875	102.33	-0.9624691	-9.750386	1.0486604	0.0031154156	0.003231478	0.0013866643	-26.600002	39.4	-13.799988	
2.4600895685417896	0.0	-0.017250368007850837	0.14513841999999924	8.72595717	3.2969957300000003	0.3167724609375	0.405010986328125	102.34	-0.9600749	-9.757569	1.033098	0.0031154156	0.0026206127	0.0013866643	-26.600002	39.4	-13.799988	
2.4700899326415424	0.0	0.030906909347399415	0.10198915999999965	8.75341579	3.2361945000000003	0.31680908203124997	0.4049560546875	102.35000000000001	-0.9684546	-9.776723	1.0079589	0.0031154156	0.0013988819	0.00077579916	-26.600002	39.4	-13.899994	
2.4800902967413094	0.0	0.008445492670510304	0.12552511999999924	8.71026653	3.1930452399999987	0.3167724609375	0.405047607421875	102.36	-0.9636662	-9.770737	0.997185	0.00250455	0.0007880172	0.00077579916	-26.600002	39.4	-13.899994	
2.4900906608410764	0.0	0.04011609018492395	0.12552511999999924	8.747531799999999	3.2126585399999987	0.316845703125	0.405084228515625	102.37	-0.9636662	-9.770737	0.997185	0.0018936843	0.0020097475	0.00016493397	-26.600002	39.4	-13.899994	
2.5000910249408435	0.0	0.0005390740002453386	0.1824036899999995	8.68476924	3.208735879999999	0.31688232421875	0.405084228515625	102.38	-0.9528923	-9.773131	1.0031705	0.00067195296	0.003842343	0.00016493397	-26.600002	39.4	-13.899994	
2.5100913890405963	0.0	-0.08750967937315997	0.1588677299999999	8.708305199999998	3.2244265199999997	0.316845703125	0.4051025390625	102.39	-0.9528923	-9.773131	1.0031705	0.00067195296	0.0044532083	0.00016493397	-26.600002	39.4	-13.899994	
2.5200917531403633	0.0	-0.21814527876594703	0.13533177000000032	8.67692392	3.20089056	0.316845703125	0.40515747070312497	102.4	-0.9588778	-9.77792	1.0031705	6.108731e-05	0.0044532083	-0.00044593122	-26.600002	39.4	-13.899994	
2.5300921172401303	0.0	0.21437176076422965	0.1725970400000006	8.700459879999999	3.24207849	0.31688232421875	0.40517578125	102.41	-0.9588778	-9.77792	1.0031705	0.00067195296	0.003231478	0.00016493397	-26.7	39.4	-13.799988	
2.5400924813398973	0.0	1.0098652937929344	0.1902490100000008	8.700459879999999	3.27934376	0.316937255859375	0.4051025390625	102.42	-0.9540894	-9.764751	1.0067618	6.108731e-05	0.0026206127	0.0013866643	-26.7	39.4	-13.799988	
2.55009284543965	0.0	0.7719539683513249	0.14906108000000098	8.747531799999999	3.308763709999999	0.316845703125	0.405194091796875	102.43	-0.9540894	-9.764751	1.0067618	0.0012828186	0.0020097475	0.0013866643	-26.7	39.4	-13.799988	
2.560093209539417	0.0	0.24478451894473752	0.15102241000000077	8.71811185	3.247962479999999	0.31688232421875	0.40513916015625	102.44	-0.94690675	-9.762358	1.0103531	0.0018936843	0.0013988819	0.0019975295	-26.7	39.4	-13.799988	
2.570093573639184	0.0	0.04662990102122179	0.13337044000000053	8.708305199999998	3.2577691300000002	0.31690063476562497	0.40513916015625	102.45	-0.94331545	-9.757569	1.0067618	0.0031154156	0.0007880172	0.0019975295	-26.7	39.4	-13.799988	
2.580093937738951	0.0	-0.13059067655943327	0.1412157599999997	8.778913079999999	3.3499516399999987	0.31695556640625	0.40528564453125	102.46000000000001	-0.94331545	-9.763555	1.0043676	0.00250455	-0.0010445789	0.0019975295	-26.7	39.4	-13.799988	
2.590094301838704	0.0	-0.14033893139720316	0.16475171999999927	8.75537712	3.29895706	0.31695556640625	0.40528564453125	102.47	-0.94331545	-9.763555	1.0043676	0.00250455	-0.0034880396	0.0019975295	-26.7	39.4	-13.799988	
2.600094665938471	0.0	-0.19276387792106234	0.09414384000000052	8.71615052	3.1498959799999993	0.316973876953125	0.40521240234375	102.48	-0.93732995	-9.774328	1.0067618	0.0031154156	-0.0040989053	0.0026083947	-26.7	39.4	-13.799988	
2.610095030038238	0.0	-0.16360895907446027	0.1725970400000006	8.629851999999998	3.051829479999999	0.31699218749999997	0.40524902343749997	102.49000000000001	-0.93732995	-9.774328	1.0067618	0.00250455	-0.0053206356	0.0026083947	-26.600002	39.4	-13.700012	
2.620095394138005	0.0	-0.18827159458568452	0.2039783199999993	8.65534929	3.271498439999999	0.31699218749999997	0.405377197265625	102.5	-0.94810385	-9.763555	1.0115502	0.0012828186	-0.00470977	0.0013866643	-26.600002	39.4	-13.700012	
2.6300957582377578	0.0	-0.13436419456115065	0.19613300000000017	8.700459879999999	3.25973046	0.31702880859375	0.40534057617187497	102.51	-0.9672575	-9.731233	1.0151415	0.0012828186	-0.0022663092	0.0013866643	-26.600002	39.4	-13.700012	
2.6400961223375248	0.0	-0.1622612740738469	0.14317708999999945	8.71615052	3.310725039999999	0.31702880859375	0.405377197265625	102.52	-0.9816227	-9.726444	1.0115502	0.0018936843	-0.0010445789	0.0013866643	-26.600002	39.4	-13.700012	
2.650096486437292	0.0	-0.11787751472031405	0.14906108000000098	8.67888525	3.1695092799999993	0.31710205078125	0.405303955078125	102.53	-0.9816227	-9.726444	1.0115502	0.0031154156	0.00017715152	0.0013866643	-26.7	39.300003	-13.700012	
2.660096850537059	0.0	-0.17326736824552258	0.0862985199999992	8.700459879999999	3.2558078000000004	0.317047119140625	0.40543212890624997	102.54	-0.9923966	-9.755175	1.009156	0.0037262812	-0.0004337132	0.0013866643	-26.7	39.300003	-13.700012	
2.6700972146368116	0.0	-0.12776053805814525	0.13337044000000053	8.778913079999999	3.3695649399999987	0.317156982421875	0.405413818359375	102.55	-1.0043676	-9.7958765	1.0163386	0.004337147	-0.0016554445	0.00077579916	-26.7	39.300003	-13.700012	
2.6800975787365786	0.0	-0.1561517687377331	0.12356378999999945	8.765183769999998	3.406830209999999	0.3170654296875	0.405450439453125	102.56	-0.9983821	-9.817424	1.0271125	0.0031154156	-0.0010445789	0.0013866643	-26.7	39.300003	-13.700012	
2.6900979428363456	0.0	-0.10997109605004908	0.12748644999999903	8.747531799999999	3.3185703600000003	0.317047119140625	0.405450439453125	102.57000000000001	-1.0031705	-9.79827	1.0271125	0.00250455	0.0007880172	0.0013866643	-26.7	39.300003	-13.700012	
2.7000983069360984	0.0	-0.15740960807163887	0.11964112999999989	8.79656505	3.26169179	0.31708374023437497	0.405487060546875	102.58	-0.9864111	-9.782708	1.0247183	0.00067195296	0.003231478	0.0013866643	-26.7	39.300003	-13.700012	
2.7100986710358654	0.0	-0.10637726938174683	0.1725970400000006	8.77302909	3.214619870000001	0.317156982421875	0.40546875	102.59	-0.9816227	-9.762358	1.0283096	-0.0023823716	0.0062858043	0.0013866643	-26.7	39.300003	-13.600006	
2.7200990351356324	0.0	-0.14927857523460503	0.12552511999999924	8.75537712	3.18127726	0.317120361328125	0.40550537109375	102.60000000000001	-0.9768343	-9.745598	1.0498575	-0.0017715096	0.008118399	0.0019975295	-26.7	39.300003	-13.600006	
2.7300993992353995	0.0	-0.11086955271712465	0.12356378999999945	8.67496259	3.214619870000001	0.31708374023437497	0.4055419921875	102.61	-0.94930094	-9.730036	1.0474633	6.108731e-05	0.009950995	0.003830125	-26.7	39.300003	-13.600006	
2.7400997633351523	0.0	-0.12308856338935231	0.14906108000000098	8.700459879999999	3.1851999199999996	0.3170654296875	0.405450439453125	102.62	-0.93014735	-9.716867	1.0079589	0.0037262812	0.0117835915	0.0050518555	-26.7	39.300003	-13.600006	
2.7501001274349193	0.0	-0.07502113170080962	0.18044235999999972	8.65731062	3.16166396	0.317010498046875	0.405487060546875	102.63	-0.92176765	-9.721656	0.9768343	0.006169744	0.0117835915	0.0044409907	-26.8	39.300003	-13.600006	
2.7601004915346863	0.0	-0.10979140471663397	0.16475171999999927	8.66123328	3.1773546000000006	0.317047119140625	0.405413818359375	102.64	-0.91578215	-9.746795	0.9923966	0.008613199	0.0026206127	0.0044409907	-26.8	39.300003	-13.600006	
2.7701008556344533	0.0	-0.05480585669160943	0.1725970400000006	8.63181333	3.20089056	0.3170654296875	0.405413818359375	102.65	-0.91697925	-9.762358	0.9959879	0.009224065	-0.0022663092	0.003830125	-26.8	39.300003	-13.600006	
2.780101219734206	0.0	-0.07039407986537047	0.12356378999999945	8.70634387	3.1557799700000007	0.3170654296875	0.405487060546875	102.66	-0.92176765	-9.762358	1.0103531	0.008613199	-0.0059315013	0.0032192604	-26.8	39.300003	-13.600006	
2.790101583833973	0.0	-0.020305120675907756	0.14906108000000098	8.71222786	3.2165812000000007	0.3170654296875	0.405413818359375	102.67	-0.92895025	-9.768343	1.0199299	0.008613199	-0.0040989053	0.0019975295	-26.8	39.300003	-13.600006	
2.80010194793374	0.0	-0.05193079535696762	0.13337044000000053	8.73968648	3.230310509999999	0.317120361328125	0.405450439453125	102.68	-0.9504981	-9.773131	0.9959879	0.007391475	-0.0022663092	0.00077579916	-26.8	39.300003	-13.600006	
2.810102312033507	0.0	0.012219010672227675	0.1725970400000006	8.743609139999998	3.2558078000000004	0.317120361328125	0.40543212890624997	102.69	-0.9576807	-9.788693	0.9947908	0.006169744	-0.0016554445	0.00077579916	-26.7	39.300003	-13.600006	
2.82010267613326	0.0	-0.008265801337095192	0.18436501999999927	8.77302909	3.249923809999999	0.317120361328125	0.40543212890624997	102.7	-0.9816227	-9.803059	0.9959879	0.0049480125	-0.0028771749	0.00077579916	-26.7	39.300003	-13.600006	
2.830103040233027	0.0	0.034860118682531895	0.15298374000000056	8.79460372	3.24011716	0.31708374023437497	0.4053955078125	102.71000000000001	-0.9935937	-9.801862	1.009156	0.0037262812	-0.0040989053	0.0013866643	-26.7	39.199997	-13.5	
2.840103404332794	0.0	0.0006738425003066733	0.16475171999999927	8.778913079999999	3.1950065700000008	0.31710205078125	0.40543212890624997	102.72	-0.9935937	-9.7958765	1.0079589	0.0012828186	-0.0040989053	0.003830125	-26.7	39.199997	-13.5	
2.850103768432561	0.0	0.04923542535574093	0.1412157599999997	8.749493130000001	3.232271839999999	0.31708374023437497	0.405413818359375	102.73	-0.9804256	-9.7803135	1.0127473	0.0012828186	-0.0016554445	0.0044409907	-26.7	39.300003	-13.5	
2.8601041325323138	0.0	0.010107637504600099	0.14317708999999945	8.68476924	3.2734597700000005	0.31710205078125	0.40550537109375	102.74000000000001	-0.9780314	-9.757569	1.0235212	0.00067195296	-0.0010445789	0.0044409907	-26.7	39.300003	-13.5	
2.870104496632081	0.0	0.03521950134936212	0.13337044000000053	8.73968648	3.1636252899999997	0.317138671875	0.40550537109375	102.75	-0.9564836	-9.730036	1.0271125	0.0018936843	-0.0004337132	0.003830125	-26.600002	39.199997	-13.299988	
2.880104860731848	0.0	0.0044922833353778216	0.1412157599999997	8.74164781	3.2558078000000004	0.317156982421875	0.405487060546875	102.76	-0.9552865	-9.737218	1.043872	0.0037262812	-0.0004337132	0.0026083947	-26.600002	39.199997	-13.299988	
2.890105224831615	0.0	0.0422723861859053	0.14906108000000098	8.71615052	3.2263878499999996	0.31717529296874997	0.40552368164062497	102.77	-0.9684546	-9.7479925	1.0426749	0.0037262812	-0.0010445789	0.0013866643	-26.600002	39.199997	-13.299988	
2.9001055889313676	0.0	0.005570431335868499	0.18632634999999906	8.68476924	3.24011716	0.317120361328125	0.405450439453125	102.78	-0.9720459	-9.768343	1.0402806	0.0037262812	-0.0016554445	0.0013866643	-26.600002	39.199997	-13.299988	
2.9101059530311346	0.0	0.039397324851263495	0.13337044000000053	8.669078599999999	3.267575779999999	0.317193603515625	0.405487060546875	102.79	-0.9828198	-9.768343	1.0474633	0.0031154156	-0.0022663092	0.0013866643	-26.7	39.199997	-13.299988	
2.9201063171309016	0.0	-0.0076368816701422974	0.17455837000000035	8.702421209999999	3.2558078000000004	0.317120361328125	0.40557861328125	102.8	-0.9876082	-9.7719345	1.0319009	0.00250455	-0.0022663092	0.0013866643	-26.7	39.199997	-13.299988	
2.9301066812306686	0.0	0.030637372347276745	0.14906108000000098	8.73184116	3.24207849	0.31717529296874997	0.405487060546875	102.81	-0.9792285	-9.765948	1.0342951	0.0031154156	-0.0010445789	0.0019975295	-26.600002	39.199997	-13.299988	
2.9401070453304214	0.0	-0.005211048669038273	0.10395048999999944	8.79460372	3.2930730700000006	0.317156982421875	0.405560302734375	102.82000000000001	-0.9672575	-9.746795	1.0462662	0.004337147	0.0020097475	0.0019975295	-26.600002	39.199997	-13.299988	
2.9501074094301885	0.0	0.026145089011898923	0.12552511999999924	8.78871973	3.2969957300000003	0.317138671875	0.40557861328125	102.83	-0.9708488	-9.745598	1.0247183	0.0049480125	0.003231478	0.0026083947	-26.600002	39.199997	-13.399994	
2.9601077735299555	0.0	-0.01415069250644014	0.15298374000000056	8.800487709999999	3.271498439999999	0.317156982421875	0.40546875	102.84	-0.9696517	-9.752781	1.0247183	0.005558878	0.0026206127	0.0019975295	-26.600002	39.199997	-13.399994	
2.9701081376297225	0.0	0.026055243345191367	0.1588677299999999	8.771067760000001	3.232271839999999	0.3172119140625	0.405596923828125	102.85000000000001	-0.9804256	-9.767146	1.0259154	0.006169744	0.00017715152	0.0032192604	-26.600002	39.199997	-13.399994	
2.9801085017294753	0.0	-0.004132900668547596	0.16475171999999927	8.73380249	3.208735879999999	0.31717529296874997	0.405560302734375	102.86	-0.9816227	-9.776723	1.0319009	0.006169744	-0.0004337132	0.003830125	-26.600002	39.199997	-13.399994	
2.9901088658292423	0.0	0.03557888401619235	0.17455837000000035	8.71615052	3.1851999199999996	0.317138671875	0.40557861328125	102.87	-0.9804256	-9.783905	1.0283096	0.0049480125	-0.0010445789	0.0044409907	-26.600002	39.199997	-13.399994	
3.0001092299290093	0.0	-0.0025156786678115803	0.15494507000000035	8.71615052	3.20285189	0.317193603515625	0.40557861328125	102.88	-0.961272	-9.7803135	1.0283096	0.0037262812	-0.0004337132	0.003830125	-26.600002	39.199997	-13.399994	
3.010109594028762	0.0	0.029154918846602065	0.168674380000001	8.69261456	3.20089056	0.31717529296874997	0.405560302734375	102.89	-0.93852705	-9.773131	1.0199299	0.0037262812	0.0007880172	0.0032192604	-26.600002	39.199997	-13.399994	
3.020109958128529	0.0	-0.01415069250644014	0.1176798000000001	8.73772515	3.210697209999999	0.31717529296874997	0.405596923828125	102.9	-0.93613285	-9.767146	1.0055647	0.0037262812	0.0013988819	0.0032192604	-26.600002	39.199997	-13.399994	
3.030110322228296	0.0	0.01060178867149166	0.17455837000000035	8.69457589	3.24403982	0.317156982421875	0.40561523437499997	102.91	-0.93014735	-9.759963	0.997185	0.0031154156	0.00017715152	0.0026083947	-26.600002	39.199997	-13.299988	
3.040110686328063	0.0	-0.011140862671736997	0.1824036899999995	8.700459879999999	3.208735879999999	0.317156982421875	0.40557861328125	102.92	-0.93254155	-9.76954	1.009156	0.0018936843	-0.0016554445	0.0019975295	-26.600002	39.199997	-13.299988	
3.050111050427816	0.0	0.024348175677747795	0.18044235999999972	8.72007318	3.24011716	0.317120361328125	0.40561523437499997	102.93	-0.94331545	-9.763555	1.0223241	0.0018936843	-0.0034880396	0.0013866643	-26.600002	39.199997	-13.299988	
3.060111414527583	0.0	-0.029109996013248287	0.15690640000000014	8.723995839999999	3.214619870000001	0.31728515625	0.40561523437499997	102.94	-0.9516952	-9.763555	1.0342951	0.0018936843	-0.0028771749	0.0013866643	-26.600002	39.199997	-13.299988	
3.07011177862735	0.0	0.008984566670755643	0.17455837000000035	8.73184116	3.24011716	0.317230224609375	0.40565185546875	102.95	-0.9672575	-9.758766	1.0378864	0.00250455	-0.0022663092	0.00077579916	-26.600002	39.199997	-13.299988	
3.080112142727117	0.0	-0.025066941011408245	0.14906108000000098	8.747531799999999	3.2577691300000002	0.31726684570312497	0.40570678710937497	102.96000000000001	-0.9804256	-9.767146	1.0510546	0.0031154156	-0.0004337132	0.0019975295	-26.600002	39.199997	-13.299988	
3.0901125068268698	0.0	0.015812837340529934	0.14513841999999924	8.75537712	3.2165812000000007	0.31728515625	0.40561523437499997	102.97	-0.973243	-9.768343	1.0450691	0.0037262812	0.00017715152	0.0019975295	-26.499996	39.199997	-13.200012	
3.100112870926637	0.0	-0.024258330011040236	0.1608290599999997	8.72595717	3.1969679000000006	0.31724853515625	0.40565185546875	102.98	-0.9816227	-9.763555	1.0522517	0.0037262812	0.00017715152	0.0019975295	-26.499996	39.199997	-13.200012	
3.110113235026404	0.0	0.017430059341265947	0.1176798000000001	8.75929978	3.2126585399999987	0.31726684570312497	0.405670166015625	102.99000000000001	-0.9816227	-9.763555	1.0522517	0.0037262812	0.00017715152	0.0026083947	-26.499996	39.199997	-13.299988	
3.120113599126171	0.0	-0.008894721004048088	0.18044235999999972	8.73968648	3.2950344000000005	0.317230224609375	0.405780029296875	103.0	-0.9720459	-9.750386	1.0295067	0.004337147	-0.0004337132	0.0026083947	-26.499996	39.199997	-13.299988	
3.1301139632259236	0.0	0.040430550018400395	0.168674380000001	8.723995839999999	3.232271839999999	0.3172119140625	0.40572509765625	103.01	-0.9720459	-9.750386	1.0295067	0.005558878	-0.0010445789	0.0032192604	-26.499996	39.300003	-13.299988	
3.1401143273256906	0.0	0.0035938266683022573	0.1588677299999999	8.71615052	3.2773824300000003	0.31724853515625	0.40572509765625	103.02	-0.9660604	-9.739613	1.0319009	0.005558878	-0.0004337132	0.003830125	-26.499996	39.300003	-13.299988	
3.1501146914254576	0.0	0.0418680806857213	0.19613300000000017	8.765183769999998	3.2244265199999997	0.31728515625	0.40570678710937497	103.03	-0.9648633	-9.759963	1.0247183	0.006169744	0.00017715152	0.0032192604	-26.499996	39.199997	-13.299988	
3.1601150555252246	0.0	0.007007962003189402	0.2020169899999995	8.669078599999999	3.271498439999999	0.317303466796875	0.405816650390625	103.04	-0.961272	-9.764751	1.0175357	0.006169744	0.00017715152	0.0026083947	-26.499996	39.199997	-13.299988	
3.1701154196249774	0.0	0.04510252468719333	0.16475171999999927	8.723995839999999	3.230310509999999	0.31728515625	0.405780029296875	103.05	-0.9636662	-9.767146	1.0163386	0.005558878	0.0007880172	0.0013866643	-26.600002	39.199997	-13.200012	
3.1801157837247445	0.0	0.011140862671736997	0.22947561000000086	8.69065323	3.26365312	0.31732177734375	0.40579833984374997	103.06	-0.9756372	-9.767146	1.0295067	0.0037262812	0.0007880172	0.0013866643	-26.600002	39.199997	-13.200012	
3.1901161478245115	0.0	-0.038993019351079496	0.19613300000000017	8.708305199999998	3.24011716	0.317303466796875	0.4058349609375	103.07000000000001	-0.9828198	-9.7719345	1.033098	0.0037262812	0.0007880172	0.0013866643	-26.600002	39.199997	-13.200012	
3.2001165119242785	0.0	-0.23108305477183516	0.18828768000000104	8.65338796	3.1832385899999998	0.31726684570312497	0.40588989257812497	103.08	-0.9900024	-9.768343	1.0378864	0.0037262812	0.00017715152	0.00077579916	-26.600002	39.199997	-13.200012	
3.2101168760240313	0.0	0.1047600473810108	0.20593964999999909	8.723995839999999	3.210697209999999	0.317376708984375	0.405926513671875	103.09	-0.9947908	-9.775525	1.0319009	0.0037262812	0.0007880172	0.0019975295	-26.600002	39.199997	-13.200012	
3.2201172401237983	0.0	1.0849762711604516	0.19613300000000017	8.73968648	3.3028797199999995	0.31735839843749997	0.40594482421875	103.10000000000001	-0.9840169	-9.76116	1.0235212	0.0031154156	0.0020097475	0.0019975295	-26.600002	39.199997	-13.200012	
3.2301176042235653	0.0	1.0307094884690875	0.16475171999999927	8.735763819999999	3.232271839999999	0.31739501953125	0.405816650390625	103.11	-0.9780314	-9.755175	1.0259154	0.0031154156	0.0013988819	0.0032192604	-26.600002	39.300003	-13.200012	
3.2401179683233323	0.0	0.3047565014720314	0.1588677299999999	8.702421209999999	3.249923809999999	0.317340087890625	0.40588989257812497	103.12	-0.9576807	-9.762358	1.0283096	0.0018936843	0.0013988819	0.0032192604	-26.600002	39.300003	-13.200012	
3.250118332423085	0.0	0.04905573402232581	0.1902490100000008	8.700459879999999	3.2734597700000005	0.317340087890625	0.4058349609375	103.13	-0.9504981	-9.755175	1.033098	0.00250455	0.0007880172	0.0026083947	-26.600002	39.300003	-13.200012	
3.260118696522852	0.0	-0.1453702887328263	0.17455837000000035	8.75145446	3.287189079999999	0.317340087890625	0.40588989257812497	103.14	-0.9552865	-9.749189	1.0271125	0.0037262812	0.00017715152	0.0019975295	-26.600002	39.300003	-13.200012	
3.270119060622619	0.0	-0.15705022540480865	0.1725970400000006	8.72007318	3.1675479499999994	0.31735839843749997	0.405926513671875	103.15	-0.9648633	-9.746795	1.0271125	0.0049480125	-0.0010445789	0.0026083947	-26.600002	39.300003	-13.200012	
3.280119424722372	0.0	-0.1940666400883219	0.10983448000000096	8.735763819999999	3.1871612499999995	0.317376708984375	0.405963134765625	103.16	-0.9696517	-9.773131	1.0354922	0.0009162575	-0.0032131504	0.000109957065	-26.600002	39.300003	-13.200012	
3.290119788822139	0.0	-0.16873016207679098	0.18828768000000104	8.71026653	3.1577413000000005	0.31735839843749997	0.405926513671875	103.17	-0.9684546	-9.7803135	1.0402806	0.0015271232	-0.0038240151	0.000109957065	-26.499996	39.300003	-13.200012	
3.300120152921906	0.0	-0.20237736425877087	0.22163028999999954	8.73184116	3.1400893300000003	0.317340087890625	0.4060546875	103.18	-0.961272	-9.764751	1.0402806	0.0009162575	-0.0038240151	0.000109957065	-26.499996	39.300003	-13.200012	
3.310120517021673	0.0	-0.15651115140456331	0.16475171999999927	8.71615052	3.19892923	0.31735839843749997	0.40601806640625	103.19	-0.9624691	-9.753978	1.0462662	-0.0003054738	-0.0026022848	0.0013316879	-26.499996	39.4	-13.299988	
3.320120881121426	0.0	-0.17892764524809865	0.2137849700000004	8.68476924	3.21854253	0.317376708984375	0.405999755859375	103.2	-0.9660604	-9.758766	1.0402806	-0.0015272051	-0.00076968875	-0.0011117733	-26.499996	39.4	-13.299988	
3.330121245221193	0.0	-0.1326122040603533	0.2353596000000002	8.67888525	3.130282679999999	0.317376708984375	0.406036376953125	103.21000000000001	-0.9708488	-9.742006	1.0474633	0.0009162575	0.0010629063	-0.0017226385	-26.499996	39.4	-13.200012	
3.34012160932096	0.0	-0.1633394220743376	0.18044235999999972	8.708305199999998	3.21854253	0.317376708984375	0.40607299804687497	103.22	-0.9792285	-9.751583	1.0271125	0.0009162575	0.0010629063	-0.0017226385	-26.499996	39.4	-13.200012	
3.350121973420727	0.0	-0.12717654122454614	0.1392544299999999	8.778913079999999	3.3185703600000003	0.317431640625	0.4061279296875	103.23	-1.0019734	-9.7803135	1.0522517	0.0009162575	0.0010629063	-0.0017226385	-26.499996	39.4	-13.200012	
3.3601223375204796	0.0	-0.1561517687377331	0.12552511999999924	8.784797069999998	3.4029075499999997	0.317413330078125	0.406146240234375	103.24000000000001	-1.0019734	-9.801862	1.0426749	0.00030539185	0.001673772	-0.0005009081	-26.399998	39.4	-13.200012	
3.3701227016202466	0.0	-0.11913535405421984	0.14317708999999945	8.78087441	3.310725039999999	0.317413330078125	0.40609130859375	103.25	-1.0067618	-9.7803135	1.0510546	-0.0021380708	0.001673772	-0.0005009081	-26.399998	39.4	-13.200012	
3.3801230657200136	0.0	-0.15848775607212956	0.17455837000000035	8.77499042	3.234233170000001	0.317413330078125	0.406146240234375	103.26	-0.9876082	-9.759963	1.0642227	-0.003359802	0.0035063676	0.00072082225	-26.399998	39.4	-13.200012	
3.3901234298197807	0.0	-0.1243464027232581	0.14906108000000098	8.802449039999999	3.1636252899999997	0.317431640625	0.4060546875	103.27	-0.9792285	-9.757569	1.0570401	-0.0027489364	0.0041172327	0.000109957065	-26.399998	39.4	-13.200012	
3.4001237939195335	0.0	-0.15992528673945045	0.12552511999999924	8.78871973	3.18127726	0.31739501953125	0.40607299804687497	103.28	-0.973243	-9.750386	1.0654198	0.00030539185	0.005949829	0.00072082225	-26.399998	39.4	-13.200012	
3.4101241580193005	0.0	-0.11895566272080473	0.14906108000000098	8.743609139999998	3.2656144499999993	0.317376708984375	0.40594482421875	103.29	-0.9540894	-9.740809	1.0546459	0.0021379888	0.007171559	0.00072082225	-26.399998	39.4	-13.200012	
3.4201245221190675	0.0	-0.14429214073233565	0.14906108000000098	8.727918499999998	3.132244009999999	0.31739501953125	0.40594482421875	103.3	-0.9540894	-9.733627	1.0295067	0.0027488545	0.0065606935	0.00072082225	-26.399998	39.4	-13.200012	
3.4301248862188345	0.0	-0.08481430937193328	0.19613300000000017	8.67692392	3.0989014000000004	0.31735839843749997	0.40588989257812497	103.31	-0.9540894	-9.758766	1.0139444	0.00335972	0.0035063676	0.00072082225	-26.499996	39.4	-13.200012	
3.4401252503185873	0.0	-0.09883023337831208	0.1706357100000008	8.68476924	3.12243736	0.31732177734375	0.40587158203125	103.32000000000001	-0.9564836	-9.775525	1.0235212	0.0027488545	0.0010629063	0.0013316879	-26.499996	39.4	-13.200012	
3.4501256144183543	0.0	-0.050852647356476946	0.21182364000000062	8.69261456	3.173431940000001	0.31724853515625	0.40579833984374997	103.33	-0.94930094	-9.768343	1.0199299	0.00335972	-0.00015882403	0.00072082225	-26.499996	39.4	-13.200012	
3.4601259785181213	0.0	-0.06738425003066732	0.18828768000000104	8.70438254	3.1773546000000006	0.31728515625	0.40579833984374997	103.34	-0.93014735	-9.745598	1.033098	0.0021379888	0.0022846372	0.000109957065	-26.499996	39.4	-13.200012	
3.4701263426178883	0.0	-0.006738425003066733	0.1922103400000006	8.69457589	3.20285189	0.31726684570312497	0.405780029296875	103.35000000000001	-0.93014735	-9.745598	1.033098	0.00030539185	0.0035063676	-0.0005009081	-26.499996	39.4	-13.200012	
3.480126706717641	0.0	-0.039711784684739945	0.19613300000000017	8.71615052	3.2244265199999997	0.31724853515625	0.405780029296875	103.36	-0.9552865	-9.7803135	1.0067618	-0.0003054738	0.0041172327	-0.0017226385	-26.499996	39.5	-13.399994	
3.490127070817408	0.0	0.028076770846111387	0.1824036899999995	8.75341579	3.232271839999999	0.317303466796875	0.40572509765625	103.37	-0.9792285	-9.7803135	1.0103531	-0.0015272051	0.001673772	-0.0023335037	-26.499996	39.5	-13.5	
3.500127434917175	0.0	-0.0050313573356231605	0.15102241000000077	8.75145446	3.2126585399999987	0.31732177734375	0.40576171875	103.38	-0.9864111	-9.788693	1.0235212	-0.0027489364	-0.00199142	-0.0023335037	-26.499996	39.5	-13.5	
3.510127799016942	0.0	0.048965888355618256	0.1725970400000006	8.79460372	3.1832385899999998	0.317303466796875	0.4056884765625	103.39	-0.9864111	-9.788693	1.0235212	-0.0039706677	-0.0050457455	-0.0023335037	-26.499996	39.5	-13.5	
3.520128163116695	0.0	0.012398702005642788	0.19613300000000017	8.81029436	3.1851999199999996	0.31732177734375	0.405743408203125	103.4	-0.9744401	-9.77792	1.0606314	-0.0027489364	-0.004434881	-0.0005009081	-26.499996	39.5	-13.5	
3.530128527216462	0.0	0.053548017357703634	0.18044235999999972	8.778913079999999	3.2734597700000005	0.31728515625	0.405743408203125	103.41	-0.9768343	-9.762358	1.0498575	-0.0027489364	-0.0032131504	-0.0005009081	-26.499996	39.4	-13.5	
3.540128891316229	0.0	0.019586355342247303	0.17651970000000014	8.69065323	3.234233170000001	0.3172119140625	0.405743408203125	103.42	-0.9720459	-9.759963	1.055843	-0.0027489364	-0.0032131504	0.000109957065	-26.499996	39.4	-13.5	
3.550129255415996	0.0	0.051751104023552506	0.14906108000000098	8.771067760000001	3.0989014000000004	0.31724853515625	0.40565185546875	103.43	-0.9684546	-9.7479925	1.0594343	-0.0027489364	-0.004434881	0.000109957065	-26.499996	39.4	-13.399994	
3.560129619515749	0.0	0.012263933505581453	0.21770762999999996	8.735763819999999	3.1381280000000005	0.317230224609375	0.405670166015625	103.44	-0.9744401	-9.749189	1.0714053	-0.003359802	-0.0050457455	0.000109957065	-26.499996	39.4	-13.399994	
3.570129983615516	0.0	0.052829252024043184	0.18044235999999972	8.71222786	3.24207849	0.31724853515625	0.405633544921875	103.45	-0.9744401	-9.749189	1.0714053	-0.0021380708	-0.004434881	-0.0005009081	-26.499996	39.4	-13.399994	
3.580130347715283	0.0	0.00880487533734053	0.16475171999999927	8.71615052	3.2832664199999995	0.317193603515625	0.405670166015625	103.46000000000001	-0.9780314	-9.736021	1.0702082	-0.0015272051	-0.0032131504	0.000109957065	-26.499996	39.4	-13.399994	
3.5901307118150356	0.0	0.046180672687684006	0.1176798000000001	8.71615052	3.21854253	0.317138671875	0.40570678710937497	103.47	-0.9864111	-9.745598	1.0654198	-0.00091633946	-0.0026022848	-0.0005009081	-26.499996	39.5	-13.5	
3.6001310759148026	0.0	0.005929814002698725	0.1412157599999997	8.700459879999999	3.208735879999999	0.317193603515625	0.40565185546875	103.48	-0.9911995	-9.750386	1.055843	-0.00091633946	-0.0032131504	-0.0011117733	-26.499996	39.5	-13.5	
3.6101314400145696	0.0	0.0408348555185844	0.13337044000000053	8.72595717	3.2558078000000004	0.317230224609375	0.405560302734375	103.49000000000001	-0.9911995	-9.750386	1.055843	-0.00091633946	-0.004434881	-0.0011117733	-26.499996	39.4	-13.399994	
3.6201318041143367	0.0	-0.006513810836297842	0.13533177000000032	8.77302909	3.289150409999999	0.31724853515625	0.4056884765625	103.5	-1.0007763	-9.765948	1.0474633	0.00030539185	-0.004434881	0.000109957065	-26.499996	39.4	-13.399994	
3.6301321682140895	0.0	0.034321044682286556	0.168674380000001	8.75537712	3.267575779999999	0.317138671875	0.405633544921875	103.51	-0.9947908	-9.774328	1.0295067	-0.0003054738	-0.0038240151	0.000109957065	-26.499996	39.5	-13.5	
3.6401325323138565	0.0	0.0016621448340897941	0.12356378999999945	8.76322244	3.20285189	0.317138671875	0.40557861328125	103.52	-0.9768343	-9.76954	1.0283096	-0.0003054738	-0.0038240151	0.000109957065	-26.499996	39.5	-13.5	
3.6501328964136235	0.0	0.04141885235218352	0.15690640000000014	8.72595717	3.173431940000001	0.317193603515625	0.40565185546875	103.53	-0.9768343	-9.76954	1.0283096	-0.0003054738	-0.0032131504	0.0013316879	-26.499996	39.5	-13.5	
3.6601332605133905	0.0	0.007591958836788519	0.14906108000000098	8.72007318	3.208735879999999	0.31708374023437497	0.405596923828125	103.54	-0.9600749	-9.768343	1.0462662	-0.0003054738	-0.0026022848	0.0019425526	-26.499996	39.5	-13.5	
3.6701336246131433	0.0	0.05269448352398185	0.18828768000000104	8.747531799999999	3.24207849	0.31710205078125	0.40552368164062497	103.55	-0.94451255	-9.776723	1.0378864	-0.00091633946	-0.0013805544	0.0013316879	-26.499996	39.5	-13.399994	
3.6801339887129103	0.0	0.014015924006378805	0.2039783199999993	8.69261456	3.20089056	0.31710205078125	0.40552368164062497	103.56	-0.94092125	-9.76116	1.0342951	-0.0021380708	0.00045204163	0.00072082225	-26.499996	39.5	-13.399994	
3.6901343528126773	0.0	0.04995419068940138	0.17455837000000035	8.723995839999999	3.1930452399999987	0.31710205078125	0.40550537109375	103.57000000000001	-0.9552865	-9.768343	1.0366893	-0.0021380708	0.0010629063	-0.0011117733	-26.399998	39.5	-13.5	
3.7001347169124443	0.0	0.009209180837524535	0.19613300000000017	8.71615052	3.24011716	0.317120361328125	0.40552368164062497	103.58	-0.9672575	-9.759963	1.0235212	-0.003359802	0.0010629063	-0.0017226385	-26.399998	39.5	-13.5	
3.710135081012197	0.0	0.040430550018400395	0.1588677299999999	8.71615052	3.24207849	0.31710205078125	0.40550537109375	103.59	-0.973243	-9.759963	1.021127	-0.003359802	-0.00015882403	-0.0017226385	-26.499996	39.5	-13.5	
3.720135445111964	0.0	0.007367344670019628	0.12552511999999924	8.74164781	3.173431940000001	0.31708374023437497	0.40546875	103.60000000000001	-0.9744401	-9.758766	1.0271125	-0.003359802	-0.00076968875	-0.0017226385	-26.499996	39.5	-13.5	
3.730135809211731	0.0	0.020754349009445536	0.1588677299999999	8.72007318	3.2558078000000004	0.31708374023437497	0.40550537109375	103.61	-0.9744401	-9.757569	1.0366893	-0.0027489364	-0.0013805544	-0.0023335037	-26.399998	39.5	-13.5	
3.740136173311498	0.0	-0.011320554005152111	0.17455837000000035	8.735763819999999	3.20285189	0.317156982421875	0.405450439453125	103.62	-0.9708488	-9.762358	1.0510546	-0.003359802	-0.0013805544	-0.0017226385	-26.399998	39.5	-13.5	
3.750136537411251	0.0	0.035399192682777234	0.1725970400000006	8.71811185	3.20089056	0.3170654296875	0.40546875	103.63	-0.9768343	-9.763555	1.0474633	-0.0039706677	0.00045204163	-0.0023335037	-26.399998	39.5	-13.399994	
3.760136901511018	0.0	-0.014554998006624143	0.14906108000000098	8.71811185	3.210697209999999	0.317047119140625	0.40552368164062497	103.64	-0.9720459	-9.770737	1.0498575	-0.003359802	0.00045204163	-0.0017226385	-26.399998	39.5	-13.399994	
3.770137265610785	0.0	0.015453454673699707	0.20593964999999909	8.71615052	3.1930452399999987	0.317010498046875	0.40557861328125	103.65	-0.9792285	-9.767146	1.0654198	-0.003359802	0.0010629063	-0.0017226385	-26.499996	39.4	-13.399994	
3.780137629710552	0.0	-0.019721123842308636	0.18828768000000104	8.749493130000001	3.24011716	0.317047119140625	0.40550537109375	103.66	-0.9720459	-9.750386	1.0582372	-0.003359802	0.00045204163	-0.0011117733	-26.499996	39.4	-13.399994	
3.790137993810305	0.0	0.02138326867639843	0.16671304999999906	8.708305199999998	3.2165812000000007	0.31702880859375	0.40552368164062497	103.67	-0.9684546	-9.750386	1.0642227	-0.0021380708	0.0010629063	-0.0005009081	-26.399998	39.5	-13.399994	
3.800138357910072	0.0	-0.026234934678606478	0.13337044000000053	8.747531799999999	3.22050386	0.317047119140625	0.40550537109375	103.68	-0.9648633	-9.750386	1.0462662	-0.0015272051	0.00045204163	-0.0011117733	-26.399998	39.5	-13.399994	
3.810138722009839	0.0	0.010781480004906772	0.1824036899999995	8.723995839999999	3.2126585399999987	0.317010498046875	0.40550537109375	103.69	-0.9624691	-9.764751	1.0462662	0.00030539185	-0.0026022848	-0.0005009081	-26.399998	39.4	-13.5	
3.820139086109606	0.0	-0.010961171338321885	0.14906108000000098	8.72987983	3.2656144499999993	0.3170654296875	0.40552368164062497	103.7	-0.9672575	-9.750386	1.043872	0.00030539185	-0.004434881	-0.0011117733	-26.399998	39.4	-13.5	
3.8301394502093586	0.0	0.047034206521405796	0.18044235999999972	8.72595717	3.24011716	0.31702880859375	0.40546875	103.71000000000001	-0.9684546	-9.763555	1.0498575	0.00030539185	-0.004434881	-0.0005009081	-26.499996	39.4	-13.399994	
3.8401398143091257	0.0	0.0023359873343964674	0.15690640000000014	8.708305199999998	3.2558078000000004	0.31699218749999997	0.40546875	103.72	-0.9768343	-9.765948	1.0378864	-0.00091633946	-0.004434881	-0.0017226385	-26.499996	39.4	-13.399994	
3.8501401784088927	0.0	0.03809456268400393	0.1725970400000006	8.700459879999999	3.2558078000000004	0.316973876953125	0.405487060546875	103.73	-0.9780314	-9.7719345	1.0462662	-0.0021380708	-0.0038240151	-0.0023335037	-26.3	39.4	-13.100006	
3.8601405425086455	0.0	-0.002650447167872915	0.18436501999999927	8.700459879999999	3.26365312	0.31699218749999997	0.40550537109375	103.74000000000001	-0.9792285	-9.774328	1.0426749	-0.0027489364	-0.0013805544	-0.0023335037	-26.3	39.4	-13.100006	
3.8701409066084125	0.0	0.02497709534470069	0.15690640000000014	8.71811185	3.1851999199999996	0.31699218749999997	0.40550537109375	103.75	-0.9840169	-9.774328	1.0486604	-0.0039706677	0.00045204163	-0.0023335037	-26.3	39.300003	-13.0	
3.8801412707081795	0.0	-0.002695370001226693	0.19613300000000017	8.708305199999998	3.2165812000000007	0.317010498046875	0.405450439453125	103.76	-0.985214	-9.765948	1.0582372	-0.0045815334	0.0022846372	-0.0017226385	-26.3	39.300003	-13.0	
3.8901416348079465	0.0	-0.001437530667320903	0.1725970400000006	8.68476924	3.208735879999999	0.317010498046875	0.40546875	103.77	-0.985214	-9.763555	1.0378864	-0.0039706677	0.0022846372	-0.0017226385	-26.3	39.300003	-13.100006	
3.9001419989076993	0.0	-0.26410133728686214	0.16671304999999906	8.71026653	3.230310509999999	0.31702880859375	0.40543212890624997	103.78	-0.9864111	-9.758766	1.0414777	-0.0045815334	0.001673772	-0.0011117733	-26.3	39.300003	-13.100006	
3.9101423630074663	0.0	-0.11338523138493622	0.16279038999999948	8.71615052	3.24403982	0.317010498046875	0.40550537109375	103.79	-0.9696517	-9.755175	1.0522517	-0.0027489364	0.0010629063	-0.0005009081	-26.3	39.300003	-13.0	
3.9201427271072333	0.0	0.9480514750981355	0.2039783199999993	8.747531799999999	3.247962479999999	0.316973876953125	0.40550537109375	103.8	-0.9600749	-9.752781	1.0486604	-0.0027489364	0.0010629063	0.000109957065	-26.3	39.300003	-13.0	
3.9301430912070003	0.0	1.2409483485647694	0.21182364000000062	8.75537712	3.3264156799999993	0.317010498046875	0.40546875	103.81	-0.9624691	-9.742006	1.055843	-0.0021380708	0.00045204163	-0.0017226385	-26.3	39.300003	-13.0	
3.940143455306753	0.0	0.44599388953631014	0.14317708999999945	8.708305199999998	3.27934376	0.3169189453125	0.40546875	103.82000000000001	-0.9648633	-9.751583	1.0402806	-0.0015272051	-0.00015882403	-0.0023335037	-26.3	39.300003	-13.0	
3.95014381940652	0.0	0.06397011469578018	0.16671304999999906	8.747531799999999	3.289150409999999	0.31699218749999997	0.40557861328125	103.83	-0.9648633	-9.739613	1.0474633	-0.0003054738	-0.00015882403	-0.0023335037	-26.3	39.300003	-13.0	
3.960144183506287	0.0	-0.16693324874263984	0.10395048999999944	8.72595717	3.2244265199999997	0.31695556640625	0.40550537109375	103.84	-0.9744401	-9.749189	1.0450691	0.0009162575	-0.0013805544	-0.0023335037	-26.3	39.300003	-13.0	
3.970144547606054	0.0	-0.19635770458936458	0.13337044000000053	8.686730569999998	3.153818640000001	0.31695556640625	0.40552368164062497	103.85000000000001	-0.9816227	-9.764751	1.0402806	-0.0003054738	-0.00199142	-0.0017226385	-26.3	39.300003	-13.0	
3.980144911705807	0.0	-0.24617712677870462	0.12748644999999903	8.700459879999999	3.1871612499999995	0.31699218749999997	0.40557861328125	103.86	-0.9828198	-9.791088	1.0187328	-0.0003054738	-0.0013805544	-0.0011117733	-26.3	39.300003	-13.0	
3.990145275805574	0.0	-0.21419206943081454	0.19613300000000017	8.68476924	3.3205316899999997	0.31695556640625	0.40561523437499997	103.87	-0.9864111	-9.787497	1.0199299	-0.0027489364	-0.0013805544	-0.0011117733	-26.3	39.300003	-12.899994	
4.000145639905341	0.0	-0.24042700410942103	0.18828768000000104	8.73772515	3.2950344000000005	0.316973876953125	0.4055419921875	103.88	-0.9708488	-9.783905	1.0235212	-0.003359802	-0.00076968875	-0.0011117733	-26.3	39.300003	-12.899994	
4.010146004005108	0.0	-0.1961330904225957	0.1392544299999999	8.708305199999998	3.2558078000000004	0.316937255859375	0.405560302734375	103.89	-0.9588778	-9.774328	1.0342951	-0.0045815334	0.00045204163	-0.0011117733	-26.3	39.300003	-12.899994	
4.020146368104861	0.0	-0.22227817943449463	0.10983448000000096	8.700459879999999	3.2244265199999997	0.3169189453125	0.405633544921875	103.9	-0.9588778	-9.76116	1.0342951	-0.0045815334	0.0022846372	-0.0023335037	-26.3	39.300003	-12.899994	
4.030146732204628	0.0	-0.18813682608562318	0.21770762999999996	8.702421209999999	3.153818640000001	0.31695556640625	0.40561523437499997	103.91	-0.9660604	-9.743204	1.0402806	-0.005192399	0.0028955024	-0.002944369	-26.3	39.300003	-12.899994	
4.040147096304395	0.0	-0.21419206943081454	0.27262487000000046	8.708305199999998	3.210697209999999	0.31695556640625	0.40561523437499997	103.92	-0.9911995	-9.758766	1.0319009	-0.0039706677	0.001673772	-0.0035552343	-26.3	39.300003	-12.899994	
4.050147460404162	0.0	-0.16998800141069678	0.17455837000000035	8.69261456	3.3028797199999995	0.31690063476562497	0.405633544921875	103.93	-0.9983821	-9.793482	1.0426749	-0.003359802	-0.00015882403	-0.002944369	-26.2	39.199997	-12.700012	
4.060147824503915	0.0	-0.19294356925447745	0.17455837000000035	8.71026653	3.446056809999999	0.31695556640625	0.405670166015625	103.94	-1.0019734	-9.788693	1.0570401	-0.003359802	-0.00076968875	-0.0023335037	-26.2	39.199997	-12.700012	
4.070148188603682	0.0	-0.1550736207372424	0.13533177000000032	8.74164781	3.2773824300000003	0.316937255859375	0.405743408203125	103.95	-0.9876082	-9.776723	1.0486604	-0.003359802	-0.00015882403	-0.0017226385	-26.2	39.199997	-12.700012	
4.080148552703449	0.0	-0.18400392541707558	0.17455837000000035	8.708305199999998	3.26169179	0.3169189453125	0.4056884765625	103.96000000000001	-0.9804256	-9.749189	1.0642227	-0.0045815334	0.0010629063	-0.002944369	-26.2	39.199997	-12.700012	
4.090148916803216	0.0	-0.13872170939646714	0.16671304999999906	8.76322244	3.2263878499999996	0.31690063476562497	0.40565185546875	103.97	-0.9624691	-9.739613	1.0570401	-0.0039706677	0.0028955024	-0.0017226385	-26.2	39.199997	-12.600006	
4.1001492809029685	0.0	-0.18094917274901867	0.1176798000000001	8.79656505	3.26365312	0.31688232421875	0.40552368164062497	103.98	-0.973243	-9.740809	1.0534488	-0.0015272051	0.005338963	-0.0017226385	-26.2	39.199997	-12.600006	
4.1101496450027355	0.0	-0.15022195473503436	0.15690640000000014	8.76910643	3.2558078000000004	0.31680908203124997	0.405560302734375	103.99000000000001	-0.9780314	-9.749189	1.0426749	-0.0003054738	0.0077824243	-0.0023335037	-26.100002	39.300003	-12.600006	
4.1201500091025025	0.0	-0.18503715058421247	0.13337044000000053	8.73184116	3.230310509999999	0.316827392578125	0.405413818359375	104.0	-0.9804256	-9.755175	1.0366893	0.0009162575	0.007171559	-0.0023335037	-26.100002	39.300003	-12.600006	
4.1301503732022695	0.0	-0.12865899472522083	0.13533177000000032	8.743609139999998	3.1891225799999994	0.316845703125	0.405322265625	104.01	-0.9720459	-9.764751	1.0223241	0.0009162575	0.004728098	-0.0011117733	-26.2	39.300003	-12.600006	
4.140150737302022	0.0	-0.1552533120706575	0.13337044000000053	8.71615052	3.2165812000000007	0.3167724609375	0.405267333984375	104.02	-0.94810385	-9.776723	1.0259154	-0.0003054738	0.00045204163	-0.0011117733	-26.2	39.300003	-12.600006	
4.150151101401789	0.0	-0.10152560337953877	0.16671304999999906	8.708305199999998	3.2734597700000005	0.31673583984375	0.40521240234375	104.03	-0.93852705	-9.776723	1.0283096	-0.0015272051	-0.0013805544	-0.0011117733	-26.2	39.300003	-12.600006	
4.160151465501556	0.0	-0.11927012255428117	0.18044235999999972	8.69261456	3.1930452399999987	0.316680908203125	0.40521240234375	104.04	-0.93373865	-9.763555	1.0366893	-0.0015272051	-0.00076968875	-0.0005009081	-26.2	39.300003	-12.600006	
4.170151829601309	0.0	-0.06450918869602552	0.1588677299999999	8.68476924	3.20089056	0.31673583984375	0.405194091796875	104.05	-0.91817635	-9.762358	1.0307038	-0.00091633946	0.00045204163	-0.0017226385	-26.100002	39.300003	-12.600006	
4.180152193701076	0.0	-0.07385313803361139	0.1725970400000006	8.669078599999999	3.21854253	0.31666259765625	0.40517578125	104.06	-0.93134445	-9.762358	1.0223241	-0.0021380708	0.0022846372	-0.0023335037	-26.100002	39.300003	-12.600006	
4.190152557800843	0.0	-0.02120357734298332	0.18436501999999927	8.68476924	3.2165812000000007	0.316644287109375	0.40506591796874997	104.07000000000001	-0.94331545	-9.762358	1.0175357	-0.0021380708	0.001673772	-0.0035552343	-26.100002	39.300003	-12.5	
4.20015292190061	0.0	-0.05013388202281649	0.18044235999999972	8.72595717	3.232271839999999	0.31669921875	0.405029296875	104.08	-0.9564836	-9.76116	1.0271125	-0.003359802	-0.00076968875	-0.0035552343	-26.100002	39.300003	-12.5	
4.210153286000363	0.0	-0.0005390740002453386	0.16671304999999906	8.76322244	3.24403982	0.316607666015625	0.40497436523437497	104.09	-0.9552865	-9.763555	1.0474633	-0.0027489364	-0.0038240151	-0.0035552343	-26.100002	39.300003	-12.5	
4.22015365010013	0.0	-0.029289687346663398	0.2039783199999993	8.76322244	3.2460011499999992	0.316571044921875	0.404937744140625	104.10000000000001	-0.9624691	-9.77792	1.0606314	-0.0027489364	-0.005656611	-0.002944369	-26.100002	39.300003	-12.5	
4.230154014199897	0.0	0.022281725343473995	0.16475171999999927	8.80441037	3.3068023799999993	0.31653442382812497	0.404937744140625	104.11	-0.973243	-9.76954	1.055843	-0.0021380708	-0.005656611	-0.002944369	-26.100002	39.300003	-12.5	
4.240154378299664	0.0	-0.016711294007605498	0.1412157599999997	8.70634387	3.21854253	0.316497802734375	0.404937744140625	104.12	-0.9768343	-9.770737	1.0570401	-0.0021380708	-0.005656611	-0.0023335037	-26.100002	39.300003	-12.5	
4.250154742399417	0.0	0.020305120675907756	0.15298374000000056	8.747531799999999	3.18127726	0.316497802734375	0.404937744140625	104.13	-0.9995792	-9.7563715	1.0498575	-0.0021380708	-0.006267477	-0.0023335037	-26.100002	39.300003	-12.5	
4.260155106499184	0.0	-0.020484812009322867	0.16475171999999927	8.73968648	3.1871612499999995	0.316497802734375	0.404864501953125	104.14	-1.0019734	-9.763555	1.0534488	-0.0021380708	-0.006267477	-0.0017226385	-26.100002	39.300003	-12.5	
4.270155470598951	0.0	0.018193747508280178	0.21770762999999996	8.708305199999998	3.3146477000000005	0.316497802734375	0.404864501953125	104.15	-0.9911995	-9.76116	1.0642227	-0.003359802	-0.0068783415	-0.0005009081	-26.100002	39.300003	-12.5	
4.280155834698718	0.0	-0.01922697267541708	0.21966895999999975	8.723995839999999	3.310725039999999	0.3164794921875	0.4048095703125	104.16	-0.9947908	-9.767146	1.0845734	-0.003359802	-0.00076968875	-0.0017226385	-26.100002	39.300003	-12.5	
4.290156198798471	0.0	0.0181488246749264	0.1824036899999995	8.70634387	3.271498439999999	0.316497802734375	0.40479125976562497	104.17	-0.9840169	-9.76116	1.0785879	-0.003359802	0.0028955024	-0.0017226385	-26.100002	39.300003	-12.5	
4.300156562898238	0.0	-0.0017969133341511287	0.12356378999999945	8.73184116	3.3028797199999995	0.316424560546875	0.40477294921875	104.18	-0.9780314	-9.745598	1.0594343	-0.003359802	0.0028955024	-0.0017226385	-26.100002	39.300003	-12.5	
4.310156926998005	0.0	0.03809456268400393	0.15298374000000056	8.73184116	3.232271839999999	0.31636962890625	0.404754638671875	104.19	-0.9756372	-9.749189	1.0630256	-0.003359802	0.001673772	-0.0023335037	-26.100002	39.199997	-12.5	
4.320157291097772	0.0	-0.00035938266683022574	0.13337044000000053	8.723995839999999	3.3244543499999994	0.31640625	0.40469970703124997	104.2	-0.9828198	-9.751583	1.0618285	-0.0027489364	0.001673772	-0.002944369	-26.100002	39.199997	-12.5	
4.3301576551975245	0.0	0.033602279348626106	0.14317708999999945	8.73184116	3.3185703600000003	0.31636962890625	0.40458984375	104.21000000000001	-0.9816227	-9.762358	1.0546459	-0.0010262281	-0.0004214961	-0.0011056648	-26.100002	39.300003	-12.5	
4.3401580192972915	0.0	-0.0004941511668915604	0.1725970400000006	8.73380249	3.3656422799999994	0.316278076171875	0.40458984375	104.22	-0.9840169	-9.76954	1.0546459	-0.0010262281	-0.0016432274	-0.0017165302	-26.100002	39.300003	-12.5	
4.3501583833970585	0.0	0.04838189152201914	0.1392544299999999	8.73380249	3.2656144499999993	0.316278076171875	0.40455322265625	104.23	-0.9780314	-9.782708	1.055843	-0.0016370937	-0.0034758225	-0.0017165302	-25.999996	39.300003	-12.5	
4.3601587474968255	0.0	0.012219010672227675	0.15690640000000014	8.69261456	3.208735879999999	0.31629638671875	0.404571533203125	104.24000000000001	-0.9744401	-9.77792	1.0522517	-0.002858825	-0.0028649578	-0.0004947996	-25.999996	39.300003	-12.5	
4.370159111596578	0.0	0.04456345068694799	0.14906108000000098	8.73968648	3.208735879999999	0.31622314453125	0.40462646484375	104.25	-0.9576807	-9.782708	1.0570401	-0.0034696907	-0.0010323618	-0.0004947996	-25.999996	39.300003	-12.399994	
4.380159475696345	0.0	0.008625184003925418	0.12748644999999903	8.73184116	3.230310509999999	0.316204833984375	0.40451660156249997	104.26	-0.94570965	-9.765948	1.0534488	-0.0040805563	0.0020219646	-0.0011056648	-25.999996	39.300003	-12.399994	
4.390159839796112	0.0	0.04258684601938175	0.1725970400000006	8.708305199999998	3.2930730700000006	0.31622314453125	0.404498291015625	104.27	-0.94930094	-9.76116	1.055843	-0.0040805563	0.0038545602	-0.0011056648	-25.999996	39.300003	-12.399994	
4.400160203895879	0.0	0.008849798170694308	0.16475171999999927	8.700459879999999	3.271498439999999	0.31625976562499997	0.404498291015625	104.28	-0.93493575	-9.746795	1.0522517	-0.0034696907	0.0044654254	-0.0011056648	-25.999996	39.300003	-12.399994	
4.410160567995632	0.0	0.05103233868989206	0.16279038999999948	8.73184116	3.267575779999999	0.31614990234375	0.40442504882812497	104.29	-0.93972415	-9.744401	1.0462662	-0.0040805563	0.0038545602	-0.0011056648	-25.999996	39.300003	-12.399994	
4.420160932095399	0.0	0.007906418670264967	0.1725970400000006	8.723995839999999	3.3048410499999994	0.31607666015624997	0.40440673828125	104.3	-0.94331545	-9.745598	1.0474633	-0.002858825	0.001411099	-0.0017165302	-25.999996	39.300003	-12.399994	
4.430161296195166	0.0	0.04514744752054711	0.16475171999999927	8.722034509999999	3.210697209999999	0.31614990234375	0.40442504882812497	104.31	-0.9564836	-9.752781	1.0522517	-0.0022479594	-0.0010323618	-0.0017165302	-25.999996	39.300003	-12.399994	
4.440161660294919	0.0	0.009164258004170757	0.1412157599999997	8.73184116	3.287189079999999	0.316094970703125	0.40433349609374997	104.32000000000001	-0.9672575	-9.76954	1.043872	-0.002858825	-0.0034758225	-0.0017165302	-25.999996	39.300003	-12.399994	
4.450162024394686	0.0	0.04492283335377822	0.1725970400000006	8.71615052	3.26365312	0.31611328125	0.404278564453125	104.33	-0.9768343	-9.770737	1.0498575	-0.0034696907	-0.004086688	-0.0017165302	-26.100002	39.4	-12.799988	
4.460162388494453	0.0	0.010422097338076546	0.15102241000000077	8.723995839999999	3.2460011499999992	0.3160400390625	0.404388427734375	104.34	-0.9636662	-9.764751	1.0426749	-0.0034696907	-0.0028649578	-0.0017165302	-26.100002	39.4	-12.799988	
4.47016275259422	0.0	0.052290178023797845	0.168674380000001	8.723995839999999	3.228349179999999	0.31607666015624997	0.404315185546875	104.35000000000001	-0.9600749	-9.77792	1.0402806	-0.0040805563	-0.0004214961	-0.0023273954	-26.100002	39.4	-12.799988	
4.480163116693973	0.0	0.010467020171430325	0.1725970400000006	8.71811185	3.2244265199999997	0.316021728515625	0.404296875	104.36	-0.961272	-9.7803135	1.0378864	-0.0046914183	0.001411099	-0.0017165302	-26.100002	39.4	-12.700012	
4.49016348079374	0.0	0.037645334350466145	0.13140911000000077	8.743609139999998	3.2577691300000002	0.31600341796875	0.404278564453125	104.37	-0.961272	-9.7803135	1.0378864	-0.0059131496	0.0020219646	-0.0023273954	-25.999996	39.4	-12.700012	
4.500163844893507	0.0	-0.0005390740002453386	0.1824036899999995	8.749493130000001	3.2656144499999993	0.316021728515625	0.40433349609374997	104.38	-0.9636662	-9.768343	1.0546459	-0.0059131496	0.0038545602	-0.0017165302	-25.999996	39.4	-12.700012	
4.510164208993274	0.0	0.02520170951146958	0.15690640000000014	8.73968648	3.27934376	0.3160400390625	0.40424194335937497	104.39	-0.9636662	-9.768343	1.0546459	-0.0059131496	0.0044654254	-0.0023273954	-25.999996	39.4	-12.799988	
4.520164573093027	0.0	-0.011635013838628559	0.16475171999999927	8.71615052	3.3028797199999995	0.31598510742187497	0.404278564453125	104.4	-0.9744401	-9.7563715	1.0474633	-0.007134881	0.0038545602	-0.0023273954	-25.999996	39.4	-12.799988	
4.530164937192794	0.0	0.022371571010181553	0.16475171999999927	8.73184116	3.230310509999999	0.316021728515625	0.40433349609374997	104.41	-0.9744401	-9.7563715	1.0474633	-0.005302284	0.0026328298	-0.0017165302	-25.999996	39.4	-12.700012	
4.540165301292561	0.0	-0.010152560337953878	0.1412157599999997	8.722034509999999	3.3028797199999995	0.315966796875	0.404296875	104.42	-0.9576807	-9.744401	1.0498575	-0.0046914183	0.00018936861	-0.0011056648	-25.999996	39.4	-12.700012	
4.550165665392328	0.0	0.0282564621795265	0.11179581000000074	8.73184116	3.24207849	0.31598510742187497	0.404296875	104.43	-0.9516952	-9.763555	1.0390835	-0.0034696907	-0.0010323618	-0.0011056648	-25.999996	39.4	-12.700012	
4.5601660294920805	0.0	-0.00035938266683022574	0.1412157599999997	8.73184116	3.2930730700000006	0.315911865234375	0.404205322265625	104.44	-0.9516952	-9.763555	1.0390835	-0.0022479594	0.00018936861	-0.0011056648	-25.999996	39.4	-12.700012	
4.5701663935918475	0.0	0.038498868184187934	0.16475171999999927	8.73184116	3.3421063199999996	0.31593017578125	0.404296875	104.45	-0.94331545	-9.764751	1.0378864	-0.0034696907	0.00018936861	-0.0011056648	-25.999996	39.4	-12.799988	
4.5801667576916145	0.0	0.011679936671982336	0.14906108000000098	8.708305199999998	3.328377009999999	0.31589355468749997	0.404315185546875	104.46000000000001	-0.9516952	-9.7719345	1.0342951	-0.002858825	0.00018936861	-0.0017165302	-25.999996	39.4	-12.799988	
4.5901671217913815	0.0	0.05049326468964672	0.18044235999999972	8.708305199999998	3.27934376	0.31593017578125	0.404351806640625	104.47	-0.94930094	-9.783905	1.0342951	-0.0040805563	0.00080023427	-0.0023273954	-25.999996	39.4	-12.700012	
4.600167485891134	0.0	0.01585776017388371	0.15102241000000077	8.71615052	3.2656144499999993	0.31589355468749997	0.404278564453125	104.48	-0.961272	-9.779117	1.0378864	-0.0034696907	0.0026328298	-0.0017165302	-25.999996	39.4	-12.700012	
4.610167849990901	0.0	0.043530225519811096	0.18632634999999906	8.723995839999999	3.3224930199999996	0.31589355468749997	0.40426025390625	104.49000000000001	-0.961272	-9.779117	1.0378864	-0.0046914183	0.0026328298	-0.0011056648	-25.899998	39.4	-12.799988	
4.620168214090668	0.0	0.004851666002208047	0.14906108000000098	8.73184116	3.271498439999999	0.31585693359375	0.404296875	104.5	-0.9552865	-9.765948	1.0271125	-0.0046914183	0.0020219646	-0.0011056648	-25.899998	39.4	-12.799988	
4.630168578190435	0.0	0.0007187653336604515	0.15298374000000056	8.71615052	3.247962479999999	0.31589355468749997	0.404315185546875	104.51	-0.9564836	-9.765948	1.0402806	-0.0046914183	0.00080023427	-0.0011056648	-25.899998	39.4	-12.700012	
4.640168942290188	0.0	-0.24078638677625125	0.1412157599999997	8.708305199999998	3.2244265199999997	0.31589355468749997	0.404278564453125	104.52	-0.94930094	-9.7563715	1.0414777	-0.005302284	-0.0004214961	-0.0004947996	-25.899998	39.4	-12.700012	
4.650169306389955	0.0	-0.008580261170571639	0.18044235999999972	8.69653722	3.247962479999999	0.31585693359375	0.40424194335937497	104.53	-0.94930094	-9.7563715	1.0414777	-0.005302284	-0.0004214961	0.00011606561	-25.999996	39.5	-13.0	
4.660169670489722	0.0	1.0463426344762023	0.1588677299999999	8.75145446	3.232271839999999	0.31585693359375	0.404315185546875	104.54	-0.9504981	-9.763555	1.0366893	-0.0046914183	-0.0004214961	0.00011606561	-25.999996	39.5	-13.0	
4.670170034589489	0.0	1.1263052778459275	0.19809432999999996	8.73184116	3.3342610000000006	0.31578369140625	0.404278564453125	104.55	-0.94690675	-9.763555	1.0378864	-0.0034696907	-0.0004214961	0.00011606561	-25.999996	39.5	-12.899994	
4.680170398689242	0.0	0.46450209687806676	0.14906108000000098	8.702421209999999	3.3185703600000003	0.31580200195312497	0.40424194335937497	104.56	-0.94930094	-9.7479925	1.0307038	-0.0046914183	-0.0004214961	-0.0004947996	-25.999996	39.5	-12.899994	
4.690170762789009	0.0	0.07133745936579981	0.13337044000000053	8.723995839999999	3.27934376	0.31580200195312497	0.40426025390625	104.57000000000001	-0.9528923	-9.751583	1.0402806	-0.0034696907	-0.0004214961	-0.0011056648	-25.999996	39.5	-12.799988	
4.700171126888776	0.0	-0.14698751073356234	0.10198915999999965	8.749493130000001	3.24011716	0.315765380859375	0.404296875	104.58	-0.9552865	-9.767146	1.0342951	-0.0016370937	-0.0004214961	-0.0004947996	-25.999996	39.5	-12.799988	
4.710171490988529	0.0	-0.17573812407998038	0.1922103400000006	8.68476924	3.073404109999999	0.31580200195312497	0.4043701171875	104.59	-0.9552865	-9.774328	1.0223241	-0.0016370937	-0.0010323618	-0.0011056648	-25.999996	39.5	-12.799988	
4.720171855088296	0.0	-0.21868435276619236	0.14317708999999945	8.68476924	3.1851999199999996	0.31578369140625	0.404315185546875	104.60000000000001	-0.961272	-9.782708	1.0307038	-0.0034696907	-0.0022540921	-0.0017165302	-25.999996	39.5	-12.799988	
4.730172219188063	0.0	-0.18382423408366047	0.1902490100000008	8.71615052	3.3205316899999997	0.315728759765625	0.404315185546875	104.61	-0.9648633	-9.779117	1.0271125	-0.0034696907	-0.0016432274	-0.0004947996	-25.999996	39.5	-12.899994	
4.74017258328783	0.0	-0.20808256409470072	0.18044235999999972	8.75537712	3.26169179	0.3157470703125	0.404296875	104.62	-0.9648633	-9.779117	1.0175357	-0.0034696907	-0.0010323618	0.00011606561	-25.999996	39.5	-12.899994	
4.750172947387583	0.0	-0.1650015669084274	0.13337044000000053	8.73968648	3.271498439999999	0.31580200195312497	0.40433349609374997	104.63	-0.9708488	-9.765948	1.0342951	-0.005302284	0.00080023427	-0.0023273954	-26.100002	39.5	-12.799988	
4.76017331148735	0.0	-0.1843633080839058	0.08825984999999899	8.723995839999999	3.2244265199999997	0.315765380859375	0.404388427734375	104.64	-0.973243	-9.757569	1.0354922	-0.005302284	0.0020219646	-0.0023273954	-26.100002	39.5	-12.799988	
4.770173675587117	0.0	-0.13764356139597647	0.12748644999999903	8.747531799999999	3.1557799700000007	0.31571044921874997	0.40433349609374997	104.65	-0.9768343	-9.7563715	1.0342951	-0.005302284	0.001411099	-0.0011056648	-25.999996	39.5	-12.799988	
4.780174039686884	0.0	-0.15722991673822376	0.168674380000001	8.747531799999999	3.20285189	0.3157470703125	0.4043701171875	104.66	-0.9636662	-9.750386	1.0378864	-0.0046914183	0.001411099	-0.0004947996	-25.999996	39.5	-12.799988	
4.7901744037866365	0.0	-0.11266646605127577	0.18044235999999972	8.75537712	3.289150409999999	0.3157470703125	0.404388427734375	104.67	-0.9672575	-9.773131	1.0378864	-0.0040805563	0.00080023427	0.00011606561	-26.100002	39.5	-12.700012	
4.8001747678864035	0.0	-0.15058133740186458	0.14906108000000098	8.723995839999999	3.3224930199999996	0.315728759765625	0.40440673828125	104.68	-0.9720459	-9.787497	1.0390835	-0.0034696907	0.00080023427	0.0007269308	-26.100002	39.5	-12.700012	
4.8101751319861705	0.0	-0.11585598721939402	0.1372931000000001	8.727918499999998	3.3126863700000007	0.3157470703125	0.40440673828125	104.69	-0.9624691	-9.779117	1.0522517	-0.005302284	0.001411099	0.00011606561	-25.999996	39.5	-12.700012	
4.8201754960859375	0.0	-0.14676289656679345	0.1588677299999999	8.72595717	3.249923809999999	0.3157470703125	0.404351806640625	104.7	-0.9564836	-9.76954	1.0546459	-0.0059131496	0.00080023427	-0.0011056648	-25.999996	39.5	-12.700012	
4.83017586018569	0.0	-0.11154339521743131	0.12748644999999903	8.76322244	3.2165812000000007	0.315655517578125	0.404315185546875	104.71000000000001	-0.9552865	-9.7563715	1.0414777	-0.005302284	0.00080023427	-0.0011056648	-25.999996	39.5	-12.700012	
4.840176224285457	0.0	-0.14249522739818452	0.13533177000000032	8.778913079999999	3.2244265199999997	0.31571044921874997	0.404296875	104.72	-0.9588778	-9.749189	1.0618285	-0.0046914183	0.0026328298	-0.0017165302	-25.999996	39.5	-12.700012	
4.850176588385224	0.0	-0.10062714671246321	0.12552511999999924	8.74164781	3.234233170000001	0.315673828125	0.40411376953125	104.73	-0.9684546	-9.734824	1.0594343	-0.0016370937	0.0050762906	-0.0004947996	-26.100002	39.5	-12.700012	
4.860176952484991	0.0	-0.14069831406403338	0.10983448000000096	8.71615052	3.130282679999999	0.315673828125	0.4042236328125	104.74000000000001	-0.9864111	-9.746795	1.0378864	0.00019550323	0.0044654254	-0.0004947996	-26.100002	39.5	-12.700012	
4.870177316584744	0.0	-0.09649424604391561	0.10198915999999965	8.73772515	3.2165812000000007	0.31552734374999997	0.40405883789062497	104.75	-0.973243	-9.757569	1.0283096	-0.00041536242	0.0020219646	0.00011606561	-26.100002	39.5	-12.700012	
4.880177680684511	0.0	-0.12183072405544652	0.16671304999999906	8.69457589	3.1793159300000005	0.315545654296875	0.40405883789062497	104.76	-0.9564836	-9.774328	1.0259154	-0.0010262281	0.00080023427	0.0007269308	-26.100002	39.5	-12.700012	
4.890178044784278	0.0	-0.08463461803851817	0.16671304999999906	8.71615052	3.2577691300000002	0.315509033203125	0.40400390625	104.77	-0.94451255	-9.768343	1.0342951	-0.0010262281	0.001411099	0.001337796	-26.100002	39.5	-12.700012	
4.900178408884045	0.0	-0.10413112771405791	0.1588677299999999	8.669078599999999	3.20089056	0.3154541015625	0.4039306640625	104.78	-0.93373865	-9.768343	1.0319009	-0.00041536242	0.0038545602	0.0007269308	-26.100002	39.5	-12.700012	
4.910178772983798	0.0	-0.042317309019259085	0.1608290599999997	8.72595717	3.2165812000000007	0.315472412109375	0.40387573242187497	104.79	-0.92176765	-9.763555	1.0307038	-0.0016370937	0.0056871558	-0.0004947996	-25.999996	39.5	-12.600006	
4.920179137083565	0.0	-0.05318863469087341	0.15102241000000077	8.708305199999998	3.16166396	0.315380859375	0.40378417968749997	104.8	-0.92176765	-9.759963	1.0127473	-0.0016370937	0.006908886	-0.0017165302	-25.999996	39.5	-12.600006	
4.930179501183332	0.0	-0.005390740002453386	0.1176798000000001	8.735763819999999	3.18127726	0.315362548828125	0.403765869140625	104.81	-0.93732995	-9.770737	1.0175357	-0.002858825	0.0044654254	-0.0023273954	-25.999996	39.5	-12.600006	
4.940179865283099	0.0	-0.01967620100895486	0.12552511999999924	8.723995839999999	3.208735879999999	0.31534423828124997	0.4037109375	104.82000000000001	-0.94570965	-9.7803135	1.0199299	-0.0040805563	0.0026328298	-0.0023273954	-25.999996	39.5	-12.600006	
4.950180229382852	0.0	0.016351911340775273	0.14906108000000098	8.771067760000001	3.2558078000000004	0.3153076171875	0.403656005859375	104.83	-0.94570965	-9.7803135	1.0199299	-0.0040805563	0.00018936861	-0.0017165302	-25.999996	39.5	-12.700012	
4.960180593482619	0.0	-0.014914380673454368	0.1824036899999995	8.79656505	3.1891225799999994	0.315289306640625	0.40369262695312497	104.84	-0.94690675	-9.776723	1.0295067	-0.0040805563	-0.0016432274	-0.0023273954	-25.999996	39.5	-12.700012	
4.970180957582386	0.0	0.02897522751318695	0.1176798000000001	8.786758399999998	3.39702356	0.315362548828125	0.4036376953125	104.85000000000001	-0.9504981	-9.783905	1.0307038	-0.0046914183	-0.0028649578	-0.0023273954	-25.999996	39.5	-12.600006	
