# OpenSignals Text File Format
# {"00:07:80:4D:2E:99": {"sensor": ["ECG", "XYZ", "XYZ", "XYZ", "SpO2", "SpO2"], "device name": "00:07:80:4D:2E:99", "column": ["nSeq", "DI", "ECG", "XYZ", "XYZ", "XYZ", "SpO2", "SpO2"], "sync interval": 2, "time": "15:37:02", "comments": "", "keywords": "", "device connection": "BTH00:07:80:4D:2E:99", "channels": [1, 2, 3, 4, 9, 10], "date": "2020-09-11", "mode": 0, "digital IO": [0, 1], "firmware version": 775, "device": "biosignalsplux", "position": 0, "sampling rate": 100, "label": ["ECG", "XYZ", "XYZ", "XYZ", "SpO2", "SpO2"], "resolution": [16, 16, 16, 16, 16, 16], "special": [{}, {}, {}, {}, {}, {}], "sleeve color": ["UNKNOWN", "UNKNOWN", "UNKNOWN", "UNKNOWN", "UNKNOWN", "UNKNOWN"]}, "internal sensors": {"sensor": ["xAcc", "yAcc", "zAcc", "xGyr", "yGyr", "zGyr", "xMag", "yMag", "zMag"], "device name": "internal sensors", "column": ["nSeq", "xAcc", "yAcc", "zAcc", "xGyr", "yGyr", "zGyr", "xMag", "yMag", "zMag"], "sync interval": 2, "time": "15:37:04", "comments": "", "keywords": "", "device connection": "UNKNOWNinternal sensors", "channels": [0, 1, 2, 3, 4, 5, 6, 7, 8], "date": "2020-09-11", "mode": 0, "digital IO": [], "firmware version": 0, "device": "android", "position": 0, "sampling rate": 100, "label": ["xAcc", "yAcc", "zAcc", "xGyr", "yGyr", "zGyr", "xMag", "yMag", "zMag"], "resolution": [1, 1, 1, 1, 1, 1, 1, 1, 1], "special": [{}, {}, {}, {}, {}, {}, {}, {}, {}], "sleeve color": ["UNKNOWN", "UNKNOWN", "UNKNOWN", "UNKNOWN", "UNKNOWN", "UNKNOWN", "UNKNOWN", "UNKNOWN", "UNKNOWN"]}}
# EndOfHeader
0.0	0.0	0.1936174117547841	0.2039783199999993	10.640215249999999	6.099736300000001	0.30866088867187497	0.4007080078125	49.13	-1.1575965	-4.783615	-1.1192893	0.64569676	-0.60303396	-0.4748561	37.731	35.412003	15.602997	
0.010000344009085893	0.0	0.22596185176950442	0.3550007300000001	11.797399949999997	5.821227439999999	0.308734130859375	0.400653076171875	49.14	-1.4556746	-4.9895163	-1.4927847	0.89981675	-0.46558926	-0.4363716	37.731	35.412003	15.602997	
0.02000068801816468	0.0	0.2725917527907262	1.1218807600000005	14.166686589999998	4.6287388	0.30882568359375	0.40074462890625	49.15	-1.7681179	-5.4659624	-2.6384103	1.1692083	-0.29393613	-0.35940257	33.869	39.018005	6.4179993	
0.030001032027250574	0.0	0.3225459434801276	0.880637170000001	13.172292279999999	3.7284883300000007	0.30882568359375	0.400799560546875	49.160000000000004	-2.1176715	-6.4882865	-4.0138793	1.3952284	-0.14488502	-0.24333817	33.869	39.018005	6.4179993	
0.04000137603632936	0.0	0.3385384721540727	-0.5785923500000005	11.509084439999999	4.60520284	0.308807373046875	0.40081787109375	49.17	-1.7836803	-8.074445	-6.1327477	1.5082384	-0.010494662	-0.10100657	34.491	39.447	5.531006	
0.05000172004540815	0.0	0.37613888367118503	-1.3180137599999995	10.373474369999999	3.85205212	0.30867919921875	0.400799560546875	49.18	1.0115502	-12.446258	-11.3880205	1.4392107	0.07685907	0.0052839834	34.491	39.447	5.531006	
0.06000206405449404	0.0	0.3866957495093229	-1.2081792799999997	9.657588919999998	2.457546489999999	0.308697509765625	0.400799560546875	49.19	1.0115502	-12.446258	-11.3880205	1.1502714	0.13489126	0.0071165795	34.377	39.757996	5.072998	
0.07000240806357283	0.0	0.3989147601815506	-1.0434275600000005	9.23590297	1.372930999999999	0.308697509765625	0.400836181640625	49.2	1.3084313	-15.448586	-13.830106	0.73060703	0.12817174	-0.08329148	34.377	39.757996	5.072998	
0.08000275207265872	0.0	0.3584842101631502	-0.7766866800000004	8.87305692	1.1238420900000003	0.30867919921875	0.400872802734375	49.21	1.3084313	-15.448586	-13.830106	0.3427076	0.016383408	-0.16575828	34.28	40.037994	4.875	
0.09000309608173751	0.0	0.33188989281771347	-0.67273619	8.857366279999999	1.2081792799999997	0.308697509765625	0.40089111328125	49.22	0.19033903	-14.769831	-12.338518	0.080035545	-0.24079086	-0.21401665	34.28	40.037994	4.875	
0.1000034400908234	0.0	0.3403353854882238	-0.7845319999999996	8.920128839999999	1.4670748399999995	0.308770751953125	0.4010009765625	49.230000000000004	0.19033903	-14.769831	-12.338518	-0.049467888	-0.53095186	-0.2463925	34.28	40.037994	4.875	
0.11000378409990219	0.0	0.36099988883096173	-0.7923773199999998	8.95739411	1.710279760000001	0.308770751953125	0.400982666015625	49.24	-0.10295067	-13.821727	-11.262324	-0.08489807	-0.7575829	-0.2463925	35.382	40.156	9.912994	
0.12000412810898098	0.0	0.35044302299282387	-0.7394214100000002	9.004466029999998	1.8299208900000008	0.308807373046875	0.40094604492187497	49.25	0.4165911	-11.358093	-8.72088	-0.09283932	-0.9359555	-0.22134702	34.356	39.998	4.897003	
0.13000447211806687	0.0	0.3268585354820903	-0.6413549100000001	9.000543369999999	1.8005009399999998	0.308770751953125	0.40107421875	49.26	0.9792285	-9.838972	-7.916428	-0.09161759	-0.97993785	-0.20485365	34.356	39.998	4.897003	
0.14000481612714566	0.0	0.32883514014965654	-0.5785923500000005	8.857366279999999	1.6180972500000002	0.3087890625	0.40107421875	49.27	1.1959038	-8.226477	-7.381324	-0.09528278	-0.8504344	-0.19569068	34.348	40.007996	4.9660034	
0.15000516013623155	0.0	0.3316203558175908	-0.48640983999999976	8.841675639999998	1.6082905999999992	0.308697509765625	0.40107421875	49.28	0.45250413	-6.5601125	-7.503428	-0.07451336	-0.6109752	-0.21096231	34.348	40.007996	4.9660034	
0.16000550414531034	0.0	0.32308501748037294	-0.3138128000000003	8.9044382	1.727931729999999	0.30875244140624997	0.40107421875	49.29	0.45250413	-6.5601125	-7.503428	-0.03663972	-0.36540735	-0.22379048	33.519	39.742004	5.173004	
0.17000584815439623	0.0	0.32542100481476943	0.06276255999999962	8.825985	1.7593130099999998	0.3087158203125	0.401092529296875	49.300000000000004	-7.571663	-9.40203	-2.4887726	-0.047635294	-0.22551924	-0.20912972	33.519	39.742004	5.173004	
0.18000619216347502	0.0	0.33031759365033125	0.2981221599999998	8.69653722	1.8750314800000003	0.308697509765625	0.40112915039062497	49.31	-7.571663	-9.40203	-2.4887726	-0.021368086	-0.10090272	-0.10161743	35.107	40.469	5.251007	
0.1900065361725538	0.0	0.30547526680569187	0.4471832400000008	8.52786284	2.09470044	0.308807373046875	0.4011474609375	49.32	-11.337742	-18.199524	-1.3156139	0.27978846	0.3419746	0.20870212	35.107	40.469	5.251007	
0.2000068801816397	0.0	0.2857092201300295	0.4805258499999993	8.292503239999998	2.3496733400000003	0.3087158203125	0.401055908203125	49.33	-8.383297	-17.808073	-5.93762	0.6432533	0.7958474	0.5966015	37.885	38.287994	10.166992	
0.2100072241907185	0.0	0.08193924803729147	0.5746696899999998	7.959077140000001	2.5654196400000004	0.308697509765625	0.40107421875	49.34	-2.541445	-15.850812	-2.8886044	0.57972336	0.95894843	0.71510935	37.885	38.287994	10.166992	
0.22000756819980438	0.0	0.18032025308206576	0.5413270799999992	7.517777889999999	2.69094476	0.3087158203125	0.40112915039062497	49.35	-2.541445	-15.850812	-2.8886044	0.06476391	1.1641992	0.4200615	34.756	39.96	5.3919983	
0.23000791220888317	0.0	0.9656612257728165	0.5413270799999992	7.139241199999999	2.7929339199999994	0.308697509765625	0.40112915039062497	49.36	-0.19512744	-7.5932107	-0.075417355	-0.23333833	1.4677993	0.13173309	34.756	39.96	5.3919983	
0.24000825621796906	0.0	1.466281280667321	0.40011131999999944	6.874461650000001	2.9027684000000002	0.30866088867187497	0.40111083984375	49.370000000000005	-0.19512744	-7.5932107	-0.075417355	0.68540305	1.1177735	-0.079626285	34.458	40.224	5.925995	
0.25000860022704785	0.0	0.7818369916891561	0.2745862000000002	6.63910205	2.8792324400000004	0.30867919921875	0.40112915039062497	49.38	-3.90614	-5.397728	3.2273839	1.1007913	0.105569735	0.07125743	34.458	40.224	5.925995	
0.26000894423612664	0.0	0.36621093750000006	0.18044235999999972	6.5037702799999995	2.7321326899999994	0.3087158203125	0.40112915039062497	49.39	-4.4424415	-5.221754	4.938041	1.328644	0.57288164	0.3931834	34.949	40.408005	4.8399963	
0.27000928824521253	0.0	0.21149669942958785	0.15690640000000014	6.464543679999999	2.42812654	0.30866088867187497	0.401165771484375	49.4	-4.3837833	-5.8083334	3.1663318	1.3396397	1.301644	0.6925074	34.949	40.408005	4.8399963	
0.2800096322542913	0.0	0.13135436472644751	0.025497289999999367	6.4272784099999996	2.8007792400000007	0.308697509765625	0.401202392578125	49.410000000000004	-3.2728736	-7.0341644	2.1164744	1.2364035	1.8550879	0.91241884	35.032	41.123	5.0029907	
0.2900099762633772	0.0	0.1210670358884323	-0.10395049000000052	6.48807964	2.4712758	0.30867919921875	0.401202392578125	49.42	-0.48123455	-8.258799	4.072537	1.3237572	2.1336424	1.056583	35.032	41.123	5.0029907	
0.300010320272456	0.0	0.13602633939524045	-0.3216581200000005	6.63517939	2.659563480000001	0.3087158203125	0.401239013671875	49.43	1.6208745	-9.506178	5.5880666	1.7751865	2.1110404	1.0407006	35.619	41.666	5.54599	
0.3100106642815419	0.0	0.1384072495629907	-0.4471832399999997	6.644986039999999	2.557574319999999	0.3087158203125	0.40118408203125	49.44	1.6208745	-9.506178	5.5880666	2.3732235	1.8263772	0.90508854	35.619	41.666	5.54599	
0.3200110082906207	0.0	0.14141707939769382	-0.5864376699999996	6.788163129999999	2.6124915599999996	0.30866088867187497	0.401165771484375	49.45	2.7988217	-10.334572	5.673061	2.7996075	1.5661485	0.7474853	36.546	42.175003	5.003998	
0.33001135229969947	0.0	0.13935062906342002	-0.57270836	6.89799761	2.69094476	0.30866088867187497	0.401239013671875	49.46	2.9161377	-11.775881	2.1859062	2.8985677	1.5050621	0.6283666	36.546	42.175003	5.003998	
0.34001169630878536	0.0	0.12380732872301277	-0.43737658999999973	6.97448948	2.7321326899999994	0.30867919921875	0.401202392578125	49.47	2.9161377	-11.775881	2.1859062	2.6682715	1.5569856	0.5984341	35.854	42.244003	6.5690002	
0.35001204031786415	0.0	0.11329538571822867	-0.3432327500000003	7.086285289999998	2.7792046100000007	0.308734130859375	0.4012939453125	49.480000000000004	2.1176715	-11.240777	-1.6687586	2.2547157	1.6363981	0.62409043	35.854	42.244003	6.5690002	
0.36001238432695004	0.0	0.12057288472154074	-0.2902768399999996	7.209849080000001	2.84785116	0.3087158203125	0.401239013671875	49.49	2.1176715	-11.240777	-1.6687586	1.8790337	1.6693848	0.59049284	35.743	42.574005	6.5029907	
0.37001272833602883	0.0	0.1117680093842002	-0.2588955599999998	7.36675548	2.894923079999999	0.3087158203125	0.4011474609375	49.5	1.6136919	-10.491392	-2.123657	1.6279681	1.5319401	0.49886313	35.743	42.574005	6.5029907	
0.3800130723451147	0.0	0.09829115937806675	-0.22751427999999996	7.419711389999999	2.9655309599999997	0.30866088867187497	0.4011474609375	49.51	0.49679685	-9.767146	-2.610877	1.4752517	1.3077526	0.4182289	32.484	40.945	8.761993	
0.3900134163541935	0.0	0.10732064888217616	-0.10198915999999965	7.376562129999999	2.934149679999999	0.308697509765625	0.401019287109375	49.52	-1.2054806	-9.361329	-1.9776106	1.4269934	1.2515529	0.42128322	32.484	40.945	8.761993	
0.4000137603632723	0.0	0.11338523138493622	-0.07453054000000049	7.39029144	2.9733762799999988	0.308642578125	0.4010009765625	49.53	-2.5115175	-9.150639	-0.9504981	1.4770843	1.3816673	0.49519792	32.17	40.747	7.8690033	
0.4100141043723582	0.0	0.10516435288119481	-0.06080122999999983	7.3353741999999995	3.0008349000000005	0.3087158203125	0.40103759765624997	49.54	-2.8670566	-9.028535	-0.34835634	1.5974247	1.5362161	0.5843842	32.17	40.747	7.8690033	
0.420014448381437	0.0	0.12093226738837096	-0.007845320000000225	7.319683559999999	3.0145642099999987	0.30860595703125	0.4010009765625	49.550000000000004	-2.7629087	-8.91481	-0.1388637	1.7122674	1.6761043	0.63875127	30.935	39.432	7.0119934	
0.43001479239052287	0.0	0.12277410355587587	-0.03138127999999981	7.36675548	3.10282406	0.30867919921875	0.40089111328125	49.56	-1.9500773	-8.67539	-0.23582886	1.7739649	1.6614436	0.61676013	30.935	39.432	7.0119934	
0.44001513639960166	0.0	0.13944047473012758	-0.0862985200000003	7.50797124	3.1695092799999993	0.30866088867187497	0.40094604492187497	49.57	-0.6991069	-8.955511	0.20470424	1.8045081	1.5649269	0.5715561	30.334	38.507004	6.1359863	
0.45001548040868755	0.0	0.15637638290450198	-0.18044235999999972	7.676645619999999	3.2558078000000004	0.308642578125	0.400927734375	49.58	-0.12330139	-9.824607	0.2693477	1.822834	1.4659667	0.512913	30.334	38.507004	6.1359863	
0.46001582441776634	0.0	0.16567540940873407	-0.12552512000000032	7.9198505400000005	3.412714200000001	0.30866088867187497	0.400909423828125	49.59	0.5315128	-9.76116	0.15682021	1.7757975	1.3505131	0.42739186	30.43	38.08	4.9410095	
0.4700161684268451	0.0	0.17627719808022574	-0.0215746299999998	8.206204719999999	3.6010018799999997	0.30867919921875	0.400909423828125	49.6	0.92296475	-9.239224	-0.20949265	1.6407962	1.2087924	0.32232305	30.43	38.08	4.9410095	
0.480016512435931	0.0	0.15705022540480865	0.07060788000000093	8.590625399999999	3.77359892	0.308642578125	0.400909423828125	49.61	0.8439561	-8.649054	-0.04070143	1.4416541	0.9919352	0.24779749	30.644	37.680008	3.7009888	
0.4900168564450098	0.0	0.14429214073233565	0.22751428000000107	8.943664799999999	3.9873838900000003	0.308642578125	0.400872802734375	49.620000000000005	0.7158663	-8.446744	1.0953473	1.2681684	0.8074539	0.23863451	30.644	37.680008	3.7009888	
0.5000172004540957	0.0	0.12847930339180572	0.31185147000000046	9.38496405	4.277660729999999	0.30867919921875	0.400836181640625	49.63	0.5734113	-8.529344	2.1164744	1.2333491	0.7793541	0.2422997	30.906	37.744003	3.098999	
0.5100175444631745	0.0	0.11769782338689894	0.47856451999999955	9.74388744	4.50713634	0.308642578125	0.40089111328125	49.64	-0.34955344	-9.186552	1.4413095	1.356133	0.8832012	0.20625865	30.906	37.744003	3.098999	
0.5200178884722604	0.0	0.0963145547105005	0.47464185999999997	9.987092360000002	4.5777442200000005	0.30860595703125	0.400799560546875	49.65	-0.7721301	-9.739613	0.760159	1.4795278	1.2032946	0.15005904	32.59	37.12401	5.980011	
0.5300182324813392	0.0	0.101884986046369	0.37265270000000034	10.27344654	4.922938299999999	0.30866088867187497	0.40081787109375	49.660000000000004	-1.0319009	-9.92636	0.6679823	1.4532605	1.6889325	0.12379184	32.59	37.12401	5.980011	
0.540018576490418	0.0	0.08768937070657508	0.27654753	10.567646039999998	4.8640984	0.308642578125	0.400836181640625	49.67	-1.4532804	-9.969456	0.35434186	1.3781241	2.1599095	0.14639385	31.863	38.011	2.9599915	
0.5500189204995038	0.0	0.09703332004416095	0.3216581199999994	10.93637608	4.871943719999999	0.308642578125	0.400799560546875	49.68	-1.827973	-9.974244	-0.47524905	1.369572	2.5056593	0.20381519	31.863	38.011	2.9599915	
0.5600192645085826	0.0	0.09874038771160452	0.42364727999999907	11.18742632	4.954319580000001	0.308642578125	0.40081787109375	49.69	-1.8746599	-9.970653	-1.5526398	1.4453193	2.5771306	0.30888402	31.817	38.018997	3.4760132	
0.5700196085176685	0.0	0.11518214471908735	0.3746140300000001	11.37767533	5.12299396	0.308642578125	0.40074462890625	49.7	-1.9177556	-10.041282	-1.7812861	1.5613837	2.2869697	0.44877216	31.817	38.018997	3.4760132	
0.5800199525267473	0.0	0.11325046288487489	0.3589233899999996	11.407095279999997	5.295591	0.30866088867187497	0.400799560546875	49.71	-1.9177556	-10.041282	-1.7812861	1.6530135	1.6980954	0.5843842	32.076	38.291	2.8970032	
0.5900202965358332	0.0	0.10583819538150148	0.3393100899999996	11.336487400000001	5.43876809	0.3087158203125	0.40085449218749997	49.72	-1.8579005	-10.038888	-1.5586253	1.7061588	1.0102612	0.7083899	32.076	38.291	2.8970032	
0.600020640544912	0.0	0.09972869004538765	0.21182364000000062	11.22665292	5.640785079999999	0.30867919921875	0.400836181640625	49.730000000000004	-1.8579005	-10.038888	-1.5586253	1.709824	0.36946353	0.83972585	34.886	38.651993	5.041992	
0.6100209845539908	0.0	0.09793177671123651	0.19613300000000017	11.040326569999998	5.7663102	0.30867919921875	0.40085449218749997	49.74	-1.3611037	-9.901221	-1.0103531	1.687222	-0.039816193	0.95884466	34.886	38.651993	5.041992	
0.6200213285630767	0.0	0.10008807271221787	0.2824315199999994	10.62452461	5.82907276	0.30867919921875	0.400726318359375	49.75	-0.8619126	-9.793482	-1.328782	1.6414071	-0.072802916	1.0333701	32.941	38.628998	2.9349976	
0.6300216725721555	0.0	0.10242406004661433	0.5374044199999995	10.655905889999998	5.844763400000001	0.308587646484375	0.40089111328125	49.76	-0.30645782	-9.546879	-2.1320367	1.5045732	0.1782627	1.0620809	32.941	38.628998	2.9349976	
0.6400220165812414	0.0	0.09797669954459029	0.9806650000000008	11.954306349999998	5.272055040000001	0.308624267578125	0.400836181640625	49.77	0.108936176	-9.441534	-2.6408045	1.2535076	0.503243	1.0266507	33.406	38.003998	1.4450073	
0.6500223605903201	0.0	0.13135436472644751	1.30428445	13.03892184	4.36199792	0.30866088867187497	0.400872802734375	49.78	0.45968673	-9.730036	-2.4157495	0.95418376	0.72193277	0.9441838	33.406	38.003998	1.4450073	
0.660022704599406	0.0	0.15130010273552505	1.096383469999999	12.864363469999997	4.04818512	0.308642578125	0.400872802734375	49.79	0.7422025	-10.383653	-1.4640543	0.68479216	0.8141734	0.84522367	33.315	37.548004	1.5820007	
0.6700230486084848	0.0	0.1606889749064647	0.7139241199999997	12.277925799999997	3.83243882	0.30867919921875	0.40081787109375	49.800000000000004	0.90381116	-11.057621	-0.37948096	0.4477764	0.8563231	0.7652004	33.315	37.548004	1.5820007	
0.6800233926175636	0.0	0.17088645807777234	0.013729310000000664	11.34433272	3.3421063199999996	0.308642578125	0.400799560546875	49.81	0.8834604	-11.63582	0.6368576	0.24008223	0.85387963	0.70228124	33.86	37.345	2.2569885	
0.6900237366266495	0.0	0.16711294007605498	-0.2745862000000002	10.31855713	2.639950180000001	0.30867919921875	0.400799560546875	49.82	0.7445967	-11.84651	1.2892777	0.117909186	0.77080196	0.6405839	33.86	37.345	2.2569885	
0.7000240806357283	0.0	0.1520188680691855	0.14906108000000098	9.24963228	1.908374090000001	0.308587646484375	0.40085449218749997	49.83	0.5590461	-11.761516	1.1264719	0.10385928	0.6400768	0.5685017	33.952	37.317	1.9949951	
0.7100244246448142	0.0	0.13908109206329736	0.7825706700000009	8.404299049999999	1.3807763200000003	0.308551025390625	0.400872802734375	49.84	0.35194764	-11.699266	0.25977087	0.146009	0.49530178	0.38890734	33.952	37.317	1.9949951	
0.720024768653893	0.0	0.14249522739818452	1.4062736099999997	8.10617689	1.2317152399999993	0.308514404296875	0.40081787109375	49.85	-0.0023942017	-11.741165	-0.6895301	0.083089866	0.18314962	0.3107166	36.538	35.276993	6.175995	
0.7300251126629789	0.0	0.14267491873159963	1.827959559999999	7.839436010000001	1.3748923300000009	0.308551025390625	0.400726318359375	49.86	-0.45370123	-11.926716	-0.7445967	-0.019535493	0.18253875	0.2655126	36.538	35.276993	6.175995	
0.7400254566720577	0.0	0.14510075173270365	1.8613021699999996	7.74921483	1.6553625200000004	0.30849609375	0.40085449218749997	49.870000000000005	-1.1180922	-12.472593	0.45370123	-0.11666307	0.3926764	0.24352142	33.75	36.51201	1.6300049	
0.7500258006811364	0.0	0.12937776005888127	2.084893789999999	7.915927879999999	1.7769649800000002	0.30853271484375	0.400799560546875	49.88	-1.1180922	-12.472593	0.45370123	-0.1936321	0.68283737	0.23374759	33.75	36.51201	1.6300049	
0.7600261446902223	0.0	0.10925233071638862	2.1496176800000004	8.0610663	1.8005009399999998	0.30853271484375	0.400836181640625	49.89	-1.3383588	-12.714408	0.60094464	-0.24066871	0.8722056	0.22519547	33.361	36.207993	1.847992	
0.7700264886993011	0.0	0.10817418271589795	2.15354034	8.0806796	2.0182085699999996	0.30856933593749997	0.400799560546875	49.9	-1.1851299	-12.740745	-0.19273324	-0.2828184	0.86059916	0.19831741	33.361	36.207993	1.847992	
0.780026832708387	0.0	0.10336743954704368	2.2378775299999996	7.931618519999999	2.204534920000001	0.308587646484375	0.40085449218749997	49.910000000000004	-0.90261406	-12.480973	-1.5059528	-0.37322646	0.71887845	0.1543351	33.144	35.494995	2.2260132	
0.7900271767174658	0.0	0.09739270271099118	2.2672974800000008	7.7433308400000005	2.184921620000001	0.308587646484375	0.40089111328125	49.92	-0.47405192	-12.130223	-2.8179753	-0.58764017	0.55455565	0.09202685	33.144	35.494995	2.2260132	
0.8000275207265517	0.0	0.09343949337585869	2.2064962500000007	7.674684289999999	2.0025179299999993	0.308587646484375	0.40096435546875	49.93	0.51834464	-12.220005	-3.867833	-0.996309	0.3737396	-0.019150626	32.603	35.479996	2.447998	
0.8100278647356305	0.0	0.08750967937315997	1.79657828	7.868855959999999	1.8828767999999994	0.30860595703125	0.400927734375	49.94	1.6723499	-12.99453	-2.8095956	-1.4856122	0.2485122	-0.19385809	32.603	35.479996	2.447998	
0.8200282087447093	0.0	0.08193924803729147	1.5357213900000006	8.268967279999998	1.8122689200000006	0.30856933593749997	0.40096435546875	49.95	2.0003555	-13.552379	0.29328972	-1.7482842	0.20514077	-0.3832263	33.701	35.742996	3.4490051	
0.8300285527537952	0.0	0.09146288870829246	1.2003339600000005	8.67692392	1.9770206399999999	0.308642578125	0.40096435546875	49.96	1.887828	-12.706028	1.9524715	-1.7018584	0.11839791	-0.6116899	33.701	35.742996	3.4490051	
0.840028896762874	0.0	0.08665614553943818	0.8610238700000009	8.77302909	2.0123245800000005	0.30867919921875	0.400982666015625	49.97	1.2617443	-11.824963	0.760159	-1.6059526	-0.10517877	-0.86153376	30.611	34.787994	4.0390015	
0.8500292407719598	0.0	0.08140017403704614	0.5982056499999994	8.67300126	2.25356817	0.308642578125	0.40094604492187497	49.980000000000004	-0.39384618	-11.622652	-1.5119383	-1.7110214	-0.3311989	-0.9940915	30.611	34.787994	4.0390015	
0.8600295847810386	0.0	0.08050171736997057	0.49425515999999997	8.58278008	2.44773984	0.30867919921875	0.400982666015625	49.99	-1.9680338	-11.224017	-3.2549171	-2.02073	-0.45398283	-0.98920465	30.132	35.313995	3.855011	
0.8700299287901245	0.0	0.0983810050447743	0.3393100899999996	8.590625399999999	2.5673809700000003	0.30866088867187497	0.40107421875	50.0	-2.896984	-10.242394	-3.655946	-2.3829732	-0.46986532	-0.9757656	30.132	35.313995	3.855011	
0.8800302727992033	0.0	0.09905484754508097	0.21966895999999975	8.433719	2.6046462400000006	0.308642578125	0.401019287109375	50.01	-3.1974564	-9.473856	-3.3399115	-2.7067318	-0.44787416	-1.0295218	29.068	36.097	7.270996	
0.8900306168082821	0.0	0.07870480403581943	0.20593964999999909	8.18266876	2.7007514100000005	0.308624267578125	0.401019287109375	50.02	-3.0945058	-9.443929	-2.2709002	-2.941304	-0.42649388	-1.1437535	29.068	36.097	7.270996	
0.900030960817368	0.0	-0.014195615339793917	0.22751428000000107	7.996342409999999	2.8164698799999988	0.30867919921875	0.401055908203125	50.03	-2.882619	-10.109517	-0.51954174	-3.0616446	-0.3788464	-1.2964699	28.528	36.440002	8.018997	
0.9100313048264468	0.0	-0.13926078339671247	0.2667408799999989	7.868855959999999	3.0263321899999998	0.308697509765625	0.401092529296875	50.04	-2.7234044	-11.140221	2.0614076	-3.109292	-0.30370998	-1.4699556	28.528	36.440002	8.018997	
0.9200316488355327	0.0	0.24662635511224243	0.3000834899999996	7.6884136	3.0890947499999992	0.308624267578125	0.40107421875	50.050000000000004	-3.514688	-13.253103	2.896984	-3.1422787	-0.08257677	-1.622672	29.682	37.798996	15.722	
0.9300319928446115	0.0	1.2095023652171248	0.3628460499999992	7.44913134	3.1695092799999993	0.308587646484375	0.40111083984375	50.06	-5.221754	-14.954184	4.3299136	-3.1526635	0.28272066	-1.7014736	29.682	37.798996	15.722	
0.9400323368536974	0.0	1.0272953531342004	0.4667965400000008	7.241230359999999	3.130282679999999	0.30860595703125	0.4011474609375	50.07	-5.221754	-14.954184	4.3299136	-3.0561466	0.7139915	-1.6642108	29.108	38.787994	13.302994	
0.9500326808627761	0.0	0.26742562695504174	0.5099458000000004	7.037252039999999	2.9988735700000007	0.30867919921875	0.40122070312499997	50.08	-6.281188	-15.18283	0.9995792	-2.819131	1.1489276	-1.4375798	29.108	38.787994	13.302994	
0.9600330248718549	0.0	0.09883023337831208	0.5119071300000002	6.81169909	2.8321605199999995	0.30867919921875	0.40118408203125	50.09	-6.281188	-15.18283	0.9995792	-2.5082006	1.4238169	-1.0521238	29.154	38.707	15.110001	
0.9700333688809408	0.0	-0.03881332801766438	0.4491445700000006	6.568494169999999	2.8635418	0.308770751953125	0.40125732421875	50.1	-0.6691794	-13.154942	-3.764882	-2.1881073	1.2747658	-0.6807177	29.154	38.707	15.110001	
0.9800337128900196	0.0	-0.079603260702895	0.5001391499999993	6.315482599999998	2.9184590400000006	0.308734130859375	0.4012939453125	50.11	-1.1647792	-12.431892	-3.1639376	-1.8130358	0.43971303	-0.6342919	29.73	38.522995	16.016006	
0.9900340568991055	0.0	-0.07789619303545144	0.53348176	6.135040239999999	2.6124915599999996	0.308697509765625	0.401239013671875	50.120000000000005	1.4257472	-10.374076	-4.999093	-1.3652717	-0.9011362	-0.87924886	29.73	38.522995	16.016006	
1.0000344009081843	0.0	-0.06684517603042199	0.6099736300000003	6.10562029	2.7713592899999995	0.30867919921875	0.401239013671875	50.13	1.4257472	-10.374076	-4.999093	-0.941942	-2.2535918	-1.0777801	31.695	39.512	13.850998	
1.0100347449172702	0.0	-0.05390740002453386	0.5354430899999998	6.117388269999998	2.840005840000001	0.30875244140624997	0.4012939453125	50.14	3.8642416	-9.78989	-3.6236243	-0.86680555	-3.7300532	-1.4895033	31.695	39.512	13.850998	
1.020035088926349	0.0	-0.07367344670019628	0.5511337300000002	6.18211216	3.08517209	0.3087890625	0.401275634765625	50.15	3.8642416	-9.78989	-3.6236243	-1.8050946	-4.0098295	-1.9952997	33.426	39.052994	20.347	
1.0300354329354278	0.0	-0.07942356936947989	0.6845041700000007	6.1899574799999995	3.3126863700000007	0.3087890625	0.40125732421875	50.160000000000004	2.4145525	-10.466252	2.4911668	-2.7983615	-3.345208	-2.2048264	33.426	39.052994	20.347	
1.0400357769445137	0.0	-0.07187653336604514	0.682542840000001	6.1134656099999996	3.3342610000000006	0.30867919921875	0.401348876953125	50.17	-0.5291186	-11.042058	3.8546648	-3.2070303	-2.3641584	-2.0777664	32.125	38.052994	14.141006	
1.0500361209535924	0.0	-0.06140951319461482	0.7472667300000004	6.036973739999999	3.232271839999999	0.3087158203125	0.40133056640625	50.18	-0.82240826	-8.271967	0.4177882	-3.217415	-1.8143797	-1.6556586	32.125	38.052994	14.141006	
1.0600364649626783	0.0	-0.05220033235709029	0.6943108199999997	6.033051079999999	3.06163613	0.308642578125	0.401239013671875	50.19	-0.5422867	-7.1107793	0.022744916	-3.1154006	-1.8516425	-1.291583	32.949	37.595993	14.375	
1.0700368089717571	0.0	-0.025875552011776253	0.604089640000001	6.017360439999999	3.0675201199999993	0.308642578125	0.401202392578125	50.2	-0.5422867	-7.1107793	0.022744916	-3.0268252	-2.0287933	-1.1761295	32.949	37.595993	14.375	
1.080037152980843	0.0	-0.006289196669528951	0.6060509700000007	6.058548369999999	3.075365440000001	0.30866088867187497	0.40111083984375	50.21	-1.6723499	-7.4387846	-1.1073183	-2.9565756	-2.1192014	-1.2195009	32.907	36.518997	14.479004	
1.0900374969899218	0.0	0.012443624838996567	0.604089640000001	6.30763728	3.1636252899999997	0.308642578125	0.401092529296875	50.22	-2.1057005	-7.926005	-2.0159178	-2.8557827	-2.1314187	-1.268981	32.907	36.518997	14.479004	
1.1000378409990006	0.0	0.018508207341756625	0.6511615600000001	6.748936529999999	3.3028797199999995	0.308642578125	0.40096435546875	50.230000000000004	-1.9800048	-7.7679873	-1.174356	-2.7262795	-2.2138855	-1.2243878	32.787	34.67	15.130005	
1.1100381850080865	0.0	0.035399192682777234	0.604089640000001	7.39225277	3.4833220799999993	0.308587646484375	0.400909423828125	50.24	-1.7417817	-7.478289	-0.82360536	-2.5656219	-2.366602	-1.127871	32.787	34.67	15.130005	
1.1200385290171653	0.0	0.06666548469700688	0.4158019599999999	7.94730916	3.8383228099999993	0.30853271484375	0.40089111328125	50.25	-1.7381904	-7.1466923	-0.3842694	-2.365258	-2.4234123	-1.0289109	36.083	35.061996	15.735992	
1.1300388730262512	0.0	0.0963145547105005	0.22751428000000107	8.36311112	4.120754329999999	0.308624267578125	0.400799560546875	50.26	-1.7381904	-7.1466923	-0.3842694	-2.1697812	-2.4851098	-0.9244529	36.083	35.061996	15.735992	
1.14003921703533	0.0	0.1453702887328263	0.023535959999999585	8.645542639999999	4.4169151599999985	0.30847778320312497	0.40074462890625	50.27	-2.1045034	-6.908469	0.02633622	-2.0091236	-2.4796119	-0.83771	33.9	34.362	13.014999	
1.1500395610444158	0.0	0.24586266694522818	-0.08041452999999985	8.857366279999999	4.495368359999999	0.30847778320312497	0.400726318359375	50.28	-2.553416	-5.801151	1.0043676	-1.8637377	-2.4136386	-0.7637954	33.9	34.362	13.014999	
1.1600399050534946	0.0	0.3854379101754171	-0.0862985200000003	9.120184499999999	4.377688559999998	0.30853271484375	0.4007080078125	50.29	-2.553416	-5.801151	1.0043676	-1.6890303	-2.3049045	-0.7069849	34.335	33.542007	13.207001	
1.1700402490625734	0.0	0.45623629554097156	0.04118792999999982	9.50852784	4.33061664	0.30853271484375	0.400653076171875	50.300000000000004	-2.7234044	-4.703409	1.4772224	-1.4428515	-2.008024	-0.6489527	34.335	33.542007	13.207001	
1.1800405930716593	0.0	0.525237767572375	0.3216581199999994	9.80665	4.371804569999999	0.30853271484375	0.40074462890625	50.31	-2.9364884	-3.6894648	1.1935096	-1.1129843	-1.6054637	-0.5896988	34.351	33.621002	12.326996	
1.190040937080738	0.0	0.565937854590898	0.5256364400000009	10.026318960000001	4.60520284	0.30849609375	0.400634765625	50.32	-2.895787	-2.943671	0.79966336	-0.3830003	-1.2322251	-0.45653015	34.351	33.621002	12.326996	
1.200041281089824	0.0	0.5838171422657017	0.77080269	10.11261748	4.750341259999999	0.308551025390625	0.400634765625	50.33	-2.4636335	-2.7688942	0.4417302	0.01528383	-0.7765197	-0.4327064	34.614	33.996002	12.481003	
1.2100416250989028	0.0	0.5976533749386654	0.7570733799999994	10.226374620000001	5.03669544	0.308514404296875	0.400653076171875	50.34	-1.7429788	-2.9652188	-0.033518825	0.4233418	-0.69527465	-0.4308738	34.614	33.996002	12.481003	
1.2200419691079887	0.0	0.5931610916032876	0.841410570000001	10.27148521	5.2563644	0.308551025390625	0.40057983398437497	50.35	-1.2677298	-3.4715924	-0.80325466	0.7794763	-0.69527465	-0.40888265	34.685	34.918	11.725998	
1.2300423131170675	0.0	0.5902860302686458	0.7806093399999989	10.134192109999999	5.368160210000001	0.30845947265625	0.400634765625	50.36	-0.5231331	-3.7349546	-1.5119383	1.0714698	-0.68733335	-0.39849794	34.685	34.918	11.725998	
1.2400426571261463	0.0	0.5721372055937194	0.6884268300000004	10.065545560000002	5.41523213	0.30845947265625	0.400616455078125	50.370000000000005	-0.023942016	-3.8833952	-2.067393	1.3029877	-0.60547745	-0.38628063	34.701	35.397995	10.207001	
1.2500430011352321	0.0	0.5518320849178117	0.604089640000001	9.979247039999997	5.5407572499999995	0.30849609375	0.400543212890625	50.38	-0.094570965	-4.2544966	-2.5127146	1.4844147	-0.42405042	-0.34718525	34.701	35.397995	10.207001	
1.260043345144311	0.0	0.5354801735770364	0.4589512199999995	9.941981769999998	5.6682437000000006	0.30847778320312497	0.4005615234375	50.39	-0.075417355	-4.620809	-3.1112652	1.6383528	-0.15099367	-0.31053334	34.598	35.692	9.746994	
1.2700436891533968	0.0	0.4926687133908857	0.3236194499999992	9.916484480000001	5.67216636	0.30849609375	0.4005615234375	50.4	0.04070143	-5.353435	-4.1934443	1.7434216	0.12084137	-0.28793132	34.598	35.692	9.746994	
1.2800440331624756	0.0	0.4411871463674559	0.19613300000000017	10.059661569999998	5.4524974	0.30849609375	0.400543212890625	50.410000000000004	0.34835634	-6.5206084	-5.759252	1.7654127	0.29921404	-0.29831603	34.313	36.707993	8.794998	
1.2900443771715615	0.0	0.4328764221970069	0.6590068799999993	11.869969159999998	4.8640984	0.30853271484375	0.400653076171875	50.42	0.5470751	-7.952341	-7.3549876	1.6945523	0.34930497	-0.33496797	34.313	36.707993	8.794998	
1.3000447211806403	0.0	0.0050313573356231605	1.1532620399999993	14.2000292	3.73437232	0.308587646484375	0.400634765625	50.43	0.3866636	-9.534908	-9.006987	1.5296187	0.3205943	-0.36917642	34.101	37.341995	10.001007	
1.310045065189719	0.0	-0.21863942993283858	0.5177911199999996	13.337043999999999	4.15017428	0.308697509765625	0.400634765625	50.44	0.011971008	-10.969035	-10.808623	1.2895486	0.18498221	-0.38261545	34.101	37.341995	10.001007	
1.320045409198805	0.0	0.02219187967676644	-0.22751427999999996	12.397566930000002	4.5110589999999995	0.308642578125	0.400689697265625	50.45	-0.260968	-11.993753	-11.992557	1.0482569	-0.007440337	-0.37833938	34.108	38.164993	9.1349945	
1.3300457532078838	0.0	0.3750158128373406	-0.3510780700000005	11.354139369999999	3.83636148	0.308587646484375	0.40067138671874997	50.46	-0.61650693	-12.666524	-12.427104	0.86621916	-0.208415	-0.33130276	34.108	38.164993	9.1349945	
1.3400460972169697	0.0	0.4432985195350835	-0.85906254	10.410739639999997	3.1714706099999987	0.30853271484375	0.400634765625	50.47	-1.1073183	-13.084312	-12.156559	0.77336764	-0.42405042	-0.23784038	34.187	38.091995	8.367004	
1.3500464412260484	0.0	0.6707877476386164	-1.10619012	9.66543424	2.549729	0.30856933593749997	0.40057983398437497	50.480000000000004	-1.3227965	-13.135788	-11.008539	0.7654264	-0.5706581	-0.14376713	34.187	38.091995	8.367004	
1.3600467852351343	0.0	0.8129235923699706	-1.02773692	8.83186899	1.9632913299999992	0.308587646484375	0.400634765625	50.49	-1.1264719	-12.744335	-9.731233	0.7800871	-0.54866695	-0.086956665	33.742	38.043	8.2369995	
1.3700471292442131	0.0	0.8688075970620708	-0.78060934	8.24739265	1.3101684399999993	0.30860595703125	0.40067138671874997	50.5	-1.0426749	-12.191275	-8.53892	0.7605395	-0.32753372	-0.05030475	33.742	38.043	8.2369995	
1.380047473253292	0.0	0.966784296606661	-0.7845319999999996	8.16697812	1.0316595799999995	0.30860595703125	0.4007080078125	50.51	-1.234211	-11.58674	-7.937976	0.6786835	0.012107351	0.0003970617	33.407	38.041	7.656006	
1.3900478172623778	0.0	1.0355611544712955	-0.8767145100000003	8.43568033	0.9885103199999999	0.30856933593749997	0.40067138671874997	50.52	-1.2378023	-10.922348	-9.012972	0.5662843	0.31326392	0.05842926	33.407	38.041	7.656006	
1.4000481612714566	0.0	1.0116622071270855	-0.8061066300000005	8.841675639999998	1.2317152399999993	0.308587646484375	0.400726318359375	50.53	-1.4329298	-8.514978	-9.764751	0.45388505	0.3645766	0.0999681	34.158	38.362	7.7559967	
1.4100485052805425	0.0	0.9809349891131012	-0.7433440699999997	9.31239484	1.8122689200000006	0.308642578125	0.40076293945312497	50.54	-2.8455088	-6.9024835	-9.345766	0.34331846	0.023102924	0.13112223	34.158	38.362	7.7559967	
1.4200488492896213	0.0	0.9507468450993622	-0.38049801999999944	9.75173276	2.3379053599999993	0.308587646484375	0.400726318359375	50.550000000000004	-5.4683566	-7.1514807	-4.9224787	0.31949472	-0.49857596	0.20198259	33.841	38.37401	7.371002	
1.4300491932987072	0.0	0.922849765586666	-0.07845320000000007	10.102810829999997	2.5438450100000005	0.308624267578125	0.40078125	50.56	-7.785944	-10.904391	-1.0594343	0.544904	-0.5590517	0.34003815	33.841	38.37401	7.371002	
1.440049537307786	0.0	0.8515572290542199	0.168674380000001	10.1596894	2.871387119999999	0.30860595703125	0.40078125	50.57	-9.002198	-15.468937	-1.7944542	0.8564453	-0.053866096	0.5526192	33.799	37.753006	7.699997	
1.4500498813168647	0.0	0.7507953138416954	0.24516624999999911	9.92825246	3.24011716	0.308624267578125	0.400799560546875	50.58	-8.608353	-19.298462	-5.8382607	0.8912646	0.51851463	0.7138877	33.799	37.753006	7.699997	
1.4600502253259506	0.0	0.6485060222951423	0.30596747999999896	9.66543424	3.5107807000000006	0.30856933593749997	0.40076293945312497	50.59	-1.9488802	-20.465635	-9.624691	0.49786738	0.8685404	0.58194077	34.483	38.397995	7.427994	
1.4700505693350294	0.0	0.534941099576791	0.48248717999999907	9.31435617	3.704952369999999	0.308624267578125	0.40076293945312497	50.6	5.6431336	-17.280151	-3.108871	-0.14598459	1.0359175	0.019333884	34.483	38.397995	7.427994	
1.4800509133441153	0.0	0.41778235019013743	0.4805258499999993	8.92797416	3.844206799999999	0.30866088867187497	0.4007080078125	50.61	4.832696	-11.7627125	1.0881647	-0.15026066	1.0010982	-0.47913215	34.21	39.050003	8.2859955	
1.490051257353194	0.0	0.29145934279931307	0.42364727999999907	8.370956439999999	3.83636148	0.308642578125	0.400836181640625	50.620000000000005	0.5650316	-7.8182654	-1.5143325	0.4233418	0.308377	-0.61779857	34.21	39.050003	8.2859955	
1.50005160136228	0.0	0.192629109421001	0.3216581199999994	7.760982810000001	3.7186816799999995	0.308697509765625	0.400836181640625	50.63	-1.5071499	-4.8781857	2.0398598	0.89248633	-0.36052045	-0.5200602	34.465	39.938004	7.203003	
1.5100519453713588	0.0	0.13458880872791953	0.1824036899999995	7.241230359999999	3.428404839999999	0.30853271484375	0.40081787109375	50.64	-3.1615434	-3.1783028	6.8988924	1.1398867	0.20208643	-0.2323426	34.465	39.938004	7.203003	
1.5200522893804376	0.0	0.07636881670142297	0.2039783199999993	6.866616329999999	3.1518573099999987	0.308642578125	0.40081787109375	50.65	-4.5920787	-2.5629928	6.2404866	1.1056782	1.4519168	0.18854356	35.716	38.503998	12.535004	
1.5300526333895235	0.0	0.001033225167136899	0.1588677299999999	6.615566090000001	2.9733762799999988	0.30867919921875	0.40089111328125	50.660000000000004	-5.865794	-3.5087025	1.6639702	0.9175318	2.1611314	0.53856933	35.716	38.503998	12.535004	
1.5400529773986023	0.0	-0.05772584085960501	0.15298374000000056	6.39785846	2.934149679999999	0.308697509765625	0.400799560546875	50.67	-6.597223	-5.345055	-3.4021606	0.69762033	2.1873984	0.8745452	38.166	37.582993	14.985992	
1.5500533214076881	0.0	-0.10691634338199216	0.16475171999999927	6.301753290000001	2.8792324400000004	0.30866088867187497	0.40085449218749997	50.68	-4.24492	-7.515399	-0.7098808	0.7281636	1.6944302	1.1995255	38.166	37.582993	14.985992	
1.560053665416767	0.0	-0.14909888390118992	0.11375714000000053	6.231145409999999	2.8792324400000004	0.30867919921875	0.400799560546875	50.69	-0.016759412	-9.434352	3.393781	1.3274224	1.0401936	1.2758837	35.92	39.852005	8.617996	
1.5700540094258528	0.0	-0.1996370714241904	0.06080122999999983	6.12719492	2.855696479999999	0.30867919921875	0.40089111328125	50.7	2.3930047	-10.967838	6.4164605	2.2070682	0.643742	1.020542	35.92	39.852005	8.617996	
1.5800543534349316	0.0	-0.43750347403244605	-0.02745862000000024	6.150730879999999	2.8164698799999988	0.308642578125	0.40089111328125	50.71	3.071761	-12.137405	6.281188	2.8735223	0.8141734	0.65829897	35.419	40.094	8.391006	
1.5900546974440104	0.0	-0.7755477950196271	-0.09806650000000008	6.1193496000000005	2.8223538700000006	0.30867919921875	0.400927734375	50.72	2.6276364	-12.631808	3.645172	3.0085235	1.3444045	0.39623773	35.419	40.094	8.391006	
1.6000550414530963	0.0	-0.6237984639505644	-0.15690640000000014	6.1899574799999995	2.86746446	0.308697509765625	0.40085449218749997	50.730000000000004	2.7377696	-12.435484	0.81043726	2.7226386	1.8098838	0.28506026	37.703	40.502	13.011002	
1.610055385462175	0.0	0.2666619387880275	-0.16475172000000035	6.213493439999999	2.9518016499999993	0.30866088867187497	0.400909423828125	50.74	2.8574798	-12.040441	-2.1332338	2.3121371	1.9271699	0.2404671	37.703	40.502	13.011002	
1.620055729471261	0.0	0.21598898276496567	-0.1176798000000001	6.337057230000001	3.0204482	0.308642578125	0.40094604492187497	50.75	1.8626889	-11.419145	-3.4620156	1.8515447	1.6852673	0.18976529	34.152	40.794	10.074005	
1.6300560734803398	0.0	-0.5990909056059863	-0.1294477799999999	6.52730624	3.036138840000001	0.30866088867187497	0.40089111328125	50.76	0.49440265	-10.382456	-3.5769374	1.4050022	1.3651739	0.14272866	34.152	40.794	10.074005	
1.6400564174894257	0.0	-0.3509371741597154	-0.07060787999999985	6.644986039999999	3.0381001700000008	0.30860595703125	0.40089111328125	50.77	-1.2294226	-9.489418	-2.6791117	1.0849088	1.1257148	0.104855016	32.691	40.270996	10.748993	
1.6500567614985044	0.0	-0.14698751073356234	0.0	6.51946092	2.9753376099999986	0.308642578125	0.40089111328125	50.78	-2.9113493	-9.246407	-1.1109096	0.9712879	1.0695151	0.114018	32.691	40.270996	10.748993	
1.6600571055075903	0.0	0.0181488246749264	0.04903324999999895	6.315482599999998	3.2734597700000005	0.308642578125	0.40096435546875	50.79	-3.9492357	-9.193734	0.20829555	1.0812436	1.2045163	0.47320676	31.327	39.692	10.498993	
1.6700574495166691	0.0	0.1173384407200687	0.06080122999999983	6.080123	3.20285189	0.30867919921875	0.400982666015625	50.800000000000004	-4.1599255	-9.11712	0.78529817	1.623692	1.6058549	0.7016704	31.327	39.692	10.498993	
1.680057793525748	0.0	0.15853267890548334	-0.039226600000000035	6.054625709999999	3.1145920400000007	0.308624267578125	0.400927734375	50.81	-3.345897	-8.844181	0.770933	1.8026755	1.8025534	0.8220109	30.667	39.050995	10.475006	
1.6900581375348338	0.0	0.15543300340407262	-0.18044235999999972	6.14484689	3.2263878499999996	0.308624267578125	0.400982666015625	50.82	-2.3582888	-8.599973	0.82360536	1.8790337	1.9656545	0.82567596	30.667	39.050995	10.475006	
1.7000584815439126	0.0	0.12632300739082436	-0.30596748	6.464543679999999	3.41663686	0.30866088867187497	0.40094604492187497	50.83	-1.8375498	-8.841787	0.7529764	1.895527	2.0218542	0.78963494	29.859	38.324997	9.054993	
1.7100588255529985	0.0	0.09146288870829246	-0.36873003999999965	6.982334799999999	3.7598696099999995	0.3087158203125	0.4010009765625	50.84	-1.3371617	-9.222465	1.0223241	1.9077443	1.9955869	0.7358788	29.859	38.324997	9.054993	
1.7200591695620773	0.0	0.05552462202526988	-0.3530394000000003	7.4138274	4.22862748	0.308770751953125	0.401055908203125	50.85	-0.5434838	-9.390059	1.2066777	1.9401202	1.8367618	0.6228688	29.12	37.306	7.1950073	
1.7300595135711632	0.0	0.022326648176827776	-0.10983447999999987	7.98653576	4.40122452	0.30867919921875	0.40107421875	50.86	0.4357447	-9.504981	0.80684596	1.963944	1.478184	0.44693956	29.12	37.306	7.1950073	
1.740059857580242	0.0	0.0012578393339057901	0.31185147000000046	8.59258673	4.471832399999999	0.308770751953125	0.40103759765624997	50.870000000000005	0.5746084	-9.540894	0.45370123	1.8814771	1.1947426	0.30949488	30.748	36.194	8.966995	
1.7500602015893207	0.0	-0.017250368007850837	0.4393379199999995	8.99269805	4.7699545599999995	0.30867919921875	0.401019287109375	50.88	0.33997664	-9.630676	0.10654198	1.673783	1.0634065	0.28139508	30.748	36.194	8.966995	
1.7600605455984066	0.0	-0.0317604431811212	0.5060231400000008	9.15744977	5.0210048	0.308697509765625	0.400927734375	50.89	0.142455	-9.574412	-0.009576807	1.4221065	1.0744021	0.33148602	29.789	37.005005	5.621002	
1.7700608896074854	0.0	-0.016531602674190383	0.3746140300000001	9.28689755	4.9425516	0.3087158203125	0.40085449218749997	50.9	0.21428105	-9.192537	0.1316811	1.211358	1.1977968	0.35958582	29.789	37.005005	5.621002	
1.7800612336165713	0.0	0.05781568652631257	0.33734875999999986	9.40850001	4.62089348	0.30866088867187497	0.400836181640625	50.910000000000004	0.17836803	-8.977059	0.18076223	1.0714698	1.3437936	0.36019668	30.391	37.205	5.07901	
1.79006157762565	0.0	0.1451905973994112	0.21182364000000062	9.528141139999999	4.44829644	0.308642578125	0.40076293945312497	50.92	0.19153613	-9.17099	-0.18315643	1.0445918	1.3993824	0.36264014	30.391	37.205	5.07901	
1.800061921634736	0.0	0.2316221287720805	0.18436501999999927	9.58698104	4.46398708	0.30866088867187497	0.40076293945312497	50.93	0.20111294	-9.400833	-0.06703765	1.1753169	1.4311473	0.3546989	30.305	37.115005	5.557007	
1.8100622656438148	0.0	0.3031842023046492	0.11179581000000074	9.78311404	4.48163905	0.308624267578125	0.400689697265625	50.94	0.3184288	-9.379285	0.33159694	1.3842328	1.5404922	0.30644056	30.305	37.115005	5.557007	
1.8200626096528936	0.0	0.3202099561457311	0.18044235999999972	9.97140172	4.738573280000001	0.30860595703125	0.400653076171875	50.95	0.11611878	-9.5971575	0.34955344	1.4978538	1.7329148	0.27162123	30.643	38.098007	4.8349915	
1.8300629536619795	0.0	0.3349446454857704	0.3079288100000009	10.096926839999998	5.050424749999999	0.30860595703125	0.400634765625	50.96	-0.5351041	-9.812635	-0.020350715	1.4202739	1.935722	0.32598823	30.643	38.098007	4.8349915	
1.8400632976710583	0.0	0.34356982948969583	0.5393657499999993	10.175380039999999	5.47603336	0.30853271484375	0.400616455078125	50.97	-1.1348516	-9.759963	0.29328972	1.2675575	2.0743885	0.45732427	31.437	37.766006	10.567001	
1.8500636416801441	0.0	0.3541716181611875	0.81002929	10.23029728	5.821227439999999	0.30853271484375	0.40052490234375	50.980000000000004	-2.1511903	-9.01776	0.6835446	1.1869234	2.1104295	0.63630784	31.437	37.766006	10.567001	
1.860063985689223	0.0	0.34177291615554467	1.02773692	10.277369199999999	6.111504279999999	0.308551025390625	0.4005615234375	50.99	-2.1511903	-9.01776	0.6835446	1.2803857	2.0297954	0.8293412	31.317	38.136	4.8599854	
1.8700643296983088	0.0	0.34949964349239454	1.0650021900000002	10.20283866	6.24487472	0.30856933593749997	0.4005615234375	51.0	-2.2182279	-8.702923	-3.0418332	1.5241209	1.7054259	1.0107682	31.317	38.136	4.8599854	
1.8800646737073876	0.0	0.34141353348871445	1.14737805	10.31855713	6.1899574799999995	0.308551025390625	0.400506591796875	51.01	-1.2006922	-8.018182	-4.4783545	1.6847785	1.1495385	1.1182804	31.447	38.138	5.369995	
1.8900650177164664	0.0	0.328340988982765	1.514146760000001	11.22861425	5.485840009999999	0.30853271484375	0.400506591796875	51.02	-0.076614454	-7.5429325	-3.558981	1.6847785	1.1495385	1.1182804	31.447	38.138	5.369995	
1.9000653617255523	0.0	0.31086600680814525	2.0123245800000005	12.893783419999998	4.118792999999999	0.30856933593749997	0.40048828124999997	51.03	1.3503298	-8.842984	-0.7254431	1.6847785	1.1495385	1.1182804	31.447	38.138	5.369995	
1.910065705734631	0.0	0.28575414296338325	1.9319100500000006	13.378231929999998	3.9540412799999998	0.30856933593749997	0.40052490234375	51.04	1.3503298	-8.842984	-0.7254431	1.0042746	0.21735807	1.0455874	31.652	37.75	4.9849854	
1.920066049743717	0.0	0.2837326154624632	1.2630965200000002	13.692044729999997	4.04818512	0.30853271484375	0.40045166015625	51.050000000000004	2.146402	-10.157401	-1.5514427	0.77092415	0.39023295	0.9741162	32.057	37.542007	4.4830017	
1.9300663937527958	0.0	0.27133391345682045	0.24320491999999932	13.258590799999999	3.73437232	0.308514404296875	0.40045166015625	51.06	2.146402	-10.157401	-1.5514427	0.57911247	0.4598716	0.85560846	32.057	37.542007	4.4830017	
1.9400667377618817	0.0	0.26167550428575814	-0.06668522000000027	12.387760279999998	3.822632169999999	0.30838623046874997	0.400433349609375	51.07	2.0913353	-11.654974	-0.051475335	0.48992613	0.46720198	0.7517613	32.057	37.542007	4.4830017	
1.9500670817709604	0.0	0.26091181611874387	0.7492280600000002	11.003061299999999	3.69514572	0.30823974609375	0.40039672851562497	51.08	1.400608	-11.275493	-0.0047884034	0.43861344	0.4598716	0.6595206	32.663	35.987	11.153	
1.9600674257800392	0.0	0.2303642894381747	2.0692031500000008	9.343776120000001	2.679176780000001	0.308331298828125	0.400433349609375	51.09	1.0247183	-10.940305	-0.7625532	0.35064885	0.42077622	0.5703343	32.378	37.164993	3.6329956	
1.9700677697891251	0.0	0.19927768875736018	2.8164698799999988	8.30819388	1.58083198	0.308258056640625	0.400323486328125	51.1	0.7278373	-10.911574	-1.3275849	0.24863434	0.39023295	0.48908925	32.378	37.164993	3.6329956	
1.980068113798204	0.0	0.1602846694062807	2.8086245599999997	7.81001606	1.1532620399999993	0.30829467773437497	0.40037841796875	51.11	0.7278373	-10.911574	-1.3275849	0.146009	0.35785708	0.41334197	32.47	37.061005	3.665985	
1.9900684578072898	0.0	0.11500245338567223	2.7458620000000002	7.54719784	1.3023231200000003	0.30829467773437497	0.400360107421875	51.120000000000005	0.45370123	-11.095928	-1.2952632	0.030555457	0.3541919	0.34187073	32.47	37.061005	3.665985	
2.0000688018163686	0.0	0.08589245737242396	2.2574908299999996	7.5942697599999995	1.514146760000001	0.308258056640625	0.400323486328125	51.13	-0.022744916	-11.368867	-0.6895301	-0.08734153	0.40183938	0.2722321	32.713	36.78099	4.692993	
2.0100691458254545	0.0	0.07187653336604514	1.8809154699999997	8.31800053	1.6573238500000003	0.30823974609375	0.400341796875	51.14	-1.3060371	-11.906365	0.46447513	-0.16797575	0.48186272	0.21603249	32.713	36.78099	4.692993	
2.0200694898345333	0.0	0.046719746687929345	1.5043401099999998	9.145681790000001	1.947600690000001	0.30823974609375	0.400286865234375	51.15	-1.3060371	-11.906365	0.46447513	-0.18263651	0.58998585	0.18671097	32.168	36.322998	4.906006	
2.030069833843612	0.0	-0.002470755834457802	0.959090370000001	9.75173276	2.4555851599999996	0.308258056640625	0.400250244140625	51.160000000000004	-1.7776948	-11.9853735	0.15562311	-0.13621075	0.7121589	0.18365663	32.168	36.322998	4.906006	
2.040070177852698	0.0	-0.06612641069676153	0.6845041700000007	10.089081519999999	2.9518016499999993	0.308258056640625	0.40021362304687497	51.17	-2.0231004	-11.766304	-1.0737995	-0.07695682	0.82028204	0.19343048	33.629	34.869995	8.742996	
2.0500705218617767	0.0	-0.10835387404931306	0.5570177199999996	10.255794569999997	3.28130509	0.308148193359375	0.40021362304687497	51.18	-1.9668367	-11.549629	-2.8203697	-0.08489807	0.89725107	0.21175644	33.629	34.869995	8.742996	
2.0600708658708626	0.0	-0.14680781940014723	0.5982056499999994	10.175380039999999	3.1950065700000008	0.30823974609375	0.400250244140625	51.19	-0.4285621	-11.228806	-4.9069166	-0.22967315	0.9497855	0.23130412	33.032	34.511	7.470001	
2.0700712098799414	0.0	-0.19370725742149167	0.5256364400000009	9.940020439999998	3.208735879999999	0.30820312499999997	0.4001953125	51.2	1.400608	-11.585542	-4.0773253	-0.53510576	0.9601702	0.25696045	33.032	34.511	7.470001	
2.0800715538890273	0.0	-0.22924121860433025	0.4177632899999997	9.72035148	3.1930452399999987	0.30811157226562497	0.4002685546875	51.21	2.5558102	-12.633005	-1.1504139	-1.018911	0.85387963	0.254517	31.365	34.994003	5.901001	
2.090071897898106	0.0	-0.26738070412168796	0.5491724000000004	9.47714656	3.1969679000000006	0.3081298828125	0.40021362304687497	51.22	2.5558102	-12.633005	-1.1504139	-1.5870157	0.5869315	0.1384526	31.365	34.994003	5.901001	
2.100072241907185	0.0	-0.2973891568020118	0.6688135300000003	9.082919229999998	3.1675479499999994	0.308148193359375	0.40021362304687497	51.230000000000004	1.0893618	-13.566744	1.8483237	-2.0005715	0.23201883	-0.13277157	30.548	34.071	5.9119873	
2.110072585916271	0.0	-0.31082108397479147	0.7139241199999997	8.44156432	3.1871612499999995	0.308184814453125	0.4001953125	51.24	-1.6555905	-13.723564	-1.0761937	-2.116025	0.015772542	-0.50539935	30.548	34.071	5.9119873	
2.1200729299253496	0.0	-0.31607705547718357	0.7001948099999991	7.837474679999999	3.24403982	0.308184814453125	0.400286865234375	51.25	-3.86903	-13.350069	-4.9404354	-1.9590327	-0.09357233	-0.84137523	28.689	34.134003	8.093002	
2.1300732739344355	0.0	-0.2941547128005398	0.4471832400000008	7.341258189999999	3.3028797199999995	0.308148193359375	0.400323486328125	51.26	-4.5920787	-12.103887	-5.6120086	-1.8429683	-0.29027092	-0.97515476	28.689	34.134003	8.093002	
2.1400736179435143	0.0	-0.2880452074644259	0.3295034400000007	7.01567741	3.3028797199999995	0.30816650390625	0.400286865234375	51.27	-3.8893807	-11.056423	-3.6750996	-2.0818167	-0.41427657	-0.8340448	27.259	34.337997	9.022003	
2.1500739619526	0.0	-0.29756884813542694	0.42364727999999907	6.68617397	3.26365312	0.30816650390625	0.400250244140625	51.28	-3.1711202	-11.000159	-1.4030021	-2.9064846	-0.26522547	-0.9085704	27.259	34.337997	9.022003	
2.160074305961679	0.0	-0.2773984959595805	0.5040618099999989	6.28606265	3.2244265199999997	0.308074951171875	0.4002685546875	51.29	-2.790442	-11.136629	1.3096284	-3.109292	-0.38495505	-1.0869431	26.087	34.653	12.037994	
2.1700746499707577	0.0	-0.26163058145240436	0.5491724000000004	6.06639369	3.04594549	0.3081298828125	0.40030517578124997	51.300000000000004	-2.303222	-11.52449	3.2968156	-3.0628662	-0.54561263	-1.2781439	26.087	34.653	12.037994	
2.1800749939798436	0.0	-0.22120003143400394	0.7943386499999996	5.834956749999999	3.04594549	0.30811157226562497	0.4002685546875	51.31	-2.303222	-11.52449	3.2968156	-2.9449692	-0.4839152	-1.4394124	26.016	35.867996	14.1609955	
2.1900753379889224	0.0	-0.25731798945044165	0.7472667300000004	5.6564757199999995	2.9263043599999996	0.308056640625	0.400286865234375	51.32	-2.9712043	-12.753913	5.2875943	-2.8124115	-0.28355142	-1.4925576	26.016	35.867996	14.1609955	
2.2000756819980083	0.0	-0.24680604644565754	0.7296147600000001	5.49368533	2.8811937700000003	0.308001708984375	0.4002685546875	51.33	-3.86903	-12.928689	5.4563856	-2.6315954	-0.10090272	-1.4418558	27.406	37.388992	16.067993	
2.210076026007087	0.0	-0.23216120277232583	0.662929540000001	5.332856270000001	2.9459176599999997	0.3079833984375	0.400323486328125	51.34	-3.86903	-12.928689	5.4563856	-2.3933578	0.102515414	-1.28242	27.406	37.388992	16.067993	
2.220076370016173	0.0	-0.26306811211972525	0.6982334799999993	5.17987253	3.0890947499999992	0.307965087890625	0.400250244140625	51.35	-4.9763484	-13.559562	5.0122614	-2.0555494	0.28149894	-0.9531636	28.447	38.285995	18.432999	
2.2300767140252518	0.0	-0.32578038748159965	0.6354709199999996	5.11514864	3.287189079999999	0.30802001953124997	0.40023193359375	51.36	-4.0426097	-13.263878	2.9735985	-1.5399791	0.30471182	-0.5060102	28.447	38.285995	18.432999	
2.2400770580343305	0.0	-0.4937917842247302	0.6256642700000007	5.028850119999999	3.5382393199999997	0.308001708984375	0.400177001953125	51.370000000000005	0.6584055	-11.317391	-0.50517654	-0.95538104	0.29738143	-0.30747902	31.949	38.636	21.029999	
2.2500774020434164	0.0	-0.1913712700870952	0.5452497400000009	5.013159480000001	3.6794550799999994	0.30794677734375	0.40015869140625	51.38	0.6584055	-11.317391	-0.50517654	-0.54976654	0.426274	-0.63673544	31.949	38.636	21.029999	
2.2600777460524952	0.0	0.6556936756317469	0.47268053000000015	5.2563644	3.824593499999999	0.3079833984375	0.40021362304687497	51.39	2.5594015	-10.500969	-5.234922	-0.43981078	0.5643295	-1.119319	30.771	38.604996	19.169998	
2.270078090061581	0.0	0.45381046253986757	0.2588955599999998	5.7663102	4.03445581	0.3079833984375	0.4002685546875	51.4	2.5594015	-10.500969	-5.234922	-0.52960795	0.41344583	-1.4064256	30.771	38.604996	19.169998	
2.28007843407066	0.0	-0.12470578539008834	-0.07845320000000007	6.22133876	4.05014645	0.30794677734375	0.400250244140625	51.410000000000004	1.9883845	-10.029311	-5.7903767	-0.68721116	-0.49429992	-1.6025133	30.385	37.520004	18.251007	
2.290078778079746	0.0	-0.2871018279639966	-0.3844206800000001	6.707748599999999	3.9873838900000003	0.308001708984375	0.40023193359375	51.42	0.48243165	-10.07121	-3.0765493	-1.0842737	-1.585916	-1.7918816	30.385	37.520004	18.251007	
2.3000791220888246	0.0	-0.4058777993513862	-0.6354709199999996	7.31183824	3.95011862	0.30794677734375	0.400286865234375	51.43	0.48243165	-10.07121	-3.0765493	-1.5882375	-2.0507846	-1.7869947	30.767	37.576004	17.376007	
2.3100794660979034	0.0	-0.45659567820780184	-0.6609682100000002	7.44520868	4.156058269999999	0.30802001953124997	0.400286865234375	51.44	-0.5267244	-10.527305	-0.1400608	-1.9352089	-2.2047226	-1.7143017	30.767	37.576004	17.376007	
2.3200798101069893	0.0	-0.44284929120154565	-0.47856451999999955	7.617805719999999	4.156058269999999	0.308001708984375	0.400286865234375	51.45	-0.92296475	-11.066	-0.3890578	-2.1942158	-2.5278702	-1.6422197	30.628	36.677002	16.449997	
2.330080154116068	0.0	-0.4174229675233072	-0.25105023999999954	7.90612123	4.144290290000001	0.3079833984375	0.4002685546875	51.46	-1.1336545	-10.773908	-0.32321724	-2.3408234	-2.8815613	-1.5854092	30.628	36.677002	16.449997	
2.340080498125154	0.0	-0.416659279356293	-0.06276255999999962	8.52786284	4.20705285	0.30792846679687497	0.400323486328125	51.47	-1.3000516	-9.8042555	1.0366893	-2.2950087	-3.0293906	-1.5518116	30.621	36.386	15.738007	
2.3500808421342327	0.0	-0.3941978626794039	0.4354152599999999	9.34769878	4.44829644	0.308038330078125	0.40037841796875	51.480000000000004	-1.5442601	-7.511808	3.0573955	-2.056771	-2.9395936	-1.5066075	30.621	36.386	15.738007	
2.3600811861433186	0.0	-0.35974204949705596	0.7453054000000007	10.057700239999997	4.928822289999999	0.308038330078125	0.40037841796875	51.49	-1.7597382	-6.805518	2.9125464	-1.7611123	-2.7343428	-1.4424667	31.217	36.283997	15.813995	
2.3700815301523974	0.0	-0.34770273015824343	0.8551398799999994	10.44408225	5.39954149	0.308056640625	0.400323486328125	51.5	-1.661576	-5.985504	2.4983494	-1.5082141	-2.4527338	-1.3380088	31.217	36.283997	15.813995	
2.380081874161476	0.0	-0.32739760948233565	0.8237586000000007	10.7480884	5.642746409999999	0.308038330078125	0.40037841796875	51.51	-1.5765818	-5.33069	2.0135236	-1.2913569	-2.1833422	-1.2396594	31.464	36.309006	15.080002	
2.390082218170562	0.0	-0.3162567468105987	0.9080957900000001	11.03051992	5.703547639999998	0.308056640625	0.40039672851562497	51.52	-1.6136919	-4.9667716	1.5167267	-1.0787759	-2.003748	-1.1657447	31.464	36.309006	15.080002	
2.400082562179641	0.0	-0.310102318641131	0.917902439999999	11.30510612	5.91537128	0.307965087890625	0.40037841796875	51.53	-2.030283	-5.011064	1.448492	-0.8417601	-1.9328876	-1.100993	31.577	36.017	14.871994	
2.410082906188727	0.0	-0.30309435663794165	0.8119906199999998	11.42082459	6.256642699999999	0.30802001953124997	0.400286865234375	51.54	-2.4744074	-5.1116204	1.2665327	-0.58092064	-1.907842	-1.0111958	31.577	36.017	14.871994	
2.4200832501978056	0.0	-0.3014322118038518	0.5374044199999995	11.29922213	6.48807964	0.307965087890625	0.40023193359375	51.550000000000004	-2.779668	-5.1343656	1.0151415	-0.3274116	-1.9341093	-0.89879656	31.892	35.362	14.285004	
2.4300835942068915	0.0	-0.30682295180630526	0.29223817000000046	11.8072066	6.490040969999999	0.30791015625	0.4001953125	51.56	-2.9233203	-4.784812	1.541866	-0.09345019	-1.9677069	-0.7943386	31.892	35.362	14.285004	
2.4400839382159702	0.0	-0.3379993981538273	0.9826263300000005	15.149312919999998	5.687857	0.30794677734375	0.40023193359375	51.57	-3.072958	-4.4364557	1.7178397	0.1527285	-1.8797423	-0.71370447	31.486	36.091003	12.4869995	
2.450084282225049	0.0	-0.9288245024227184	2.1574629999999995	17.27539464	3.59315656	0.30811157226562497	0.4002685546875	51.58	-3.1112652	-4.1575313	1.590947	0.42273095	-1.7123652	-0.63184845	31.486	36.091003	12.4869995	
2.460084626234135	0.0	-1.0671868291523554	1.039504900000001	14.404007519999999	4.62481614	0.308001708984375	0.400140380859375	51.59	-3.0538042	-3.9947255	1.3383588	0.7073942	-1.4839016	-0.5383861	32.258	37.18199	12.016006	
2.4700849702432137	0.0	-1.2341200778949952	-1.2160246	12.481904120000001	5.03865677	0.30791015625	0.399993896484375	51.6	-3.074155	-4.128801	0.9959879	0.7073942	-1.4839016	-0.5383861	32.258	37.18199	12.016006	
2.4800853142522996	0.0	-1.0799449138248283	-1.5553346899999996	11.367868679999997	3.804980199999999	0.307855224609375	0.40003051757812497	51.61	-2.9855695	-4.473566	0.45729253	1.3121507	-0.8284432	-0.30686817	32.155	37.474	11.296997	
2.4900856582613784	0.0	-0.6529983056305202	-1.7024344399999998	11.079553169999999	2.6929060899999993	0.30780029296875	0.400103759765625	51.620000000000005	-3.0657754	-5.2684407	-0.46806642	1.6139182	-0.48330435	-0.20179933	32.155	37.474	11.296997	
2.5000860022704643	0.0	-0.44734157453692347	-1.3101684400000004	11.234498239999999	2.318292059999999	0.30791015625	0.399993896484375	51.63	-3.2872388	-6.525397	-1.4544775	1.8802553	-0.23773654	-0.09917397	32.193	37.832	9.720993	
2.510086346279543	0.0	-0.31459460197650885	-1.0904994799999996	10.914801449999999	2.0025179299999993	0.307818603515625	0.400048828125	51.64	-3.3279405	-7.821857	-2.2266076	2.0622933	-0.09662667	0.013836097	32.193	37.832	9.720993	
2.520086690288622	0.0	-0.1913712700870952	-0.8374879100000002	10.293059839999998	1.8436501999999995	0.30787353515625	0.40001220703125	51.65	-3.41892	-9.478644	-3.6212301	2.1026103	0.013329081	0.13417655	31.624	37.904007	10.281998	
2.5300870342977078	0.0	-0.12308856338935231	-0.6452775699999996	10.0420096	1.6788984800000002	0.307818603515625	0.40003051757812497	51.660000000000004	-3.2225955	-11.410766	-7.3298483	1.90469	0.05853311	0.2703995	31.624	37.904007	10.281998	
2.5400873783067865	0.0	-0.08229863070412169	-0.3608847200000005	9.99493768	1.7887329599999988	0.30780029296875	0.399920654296875	51.67	-1.6112977	-12.941857	-11.417948	1.3756807	-0.22551924	0.3846313	32.55	38.194992	8.25	
2.5500877223158724	0.0	-0.015453454673699707	-0.013729309999999577	9.83606995	1.8201142399999997	0.30783691406249997	0.399957275390625	51.68	0.89303726	-14.049175	-13.522451	0.6414207	-0.9438968	0.38218784	32.55	38.194992	8.25	
2.5600880663249512	0.0	0.006693502169712954	-0.24124358999999954	9.35358277	2.2163028999999996	0.307781982421875	0.39986572265625	51.69	3.0059202	-14.409503	-13.437457	-0.1478172	-1.6066855	0.20870212	32.979	38.34401	8.0890045	
2.570088410334037	0.0	0.025336478011530914	-0.5785923500000005	8.786758399999998	2.047628520000001	0.307708740234375	0.399920654296875	51.7	4.2760444	-14.465767	-12.017695	-0.8380949	-1.7691756	-0.10528263	32.979	38.34401	8.0890045	
2.580088754343116	0.0	0.04892096552226448	-0.6884268300000004	8.45725496	1.6553625200000004	0.307672119140625	0.39979248046875	51.71	4.453215	-14.688427	-9.872491	-1.2033924	-1.5040601	-0.4168239	32.964	38.324005	9.173004	
2.5900890983521947	0.0	0.049999113522755156	-0.4158019599999999	8.237586	1.3964669600000008	0.30774536132812497	0.3998291015625	51.72	4.1383777	-14.293385	-8.440758	-1.1991163	-1.0226983	-0.6116899	32.964	38.324005	9.173004	
2.6000894423612806	0.0	0.04258684601938175	-0.1510224099999997	8.051259649999999	1.4945334600000009	0.3076904296875	0.39979248046875	51.730000000000004	3.6272156	-13.221979	-7.538144	-0.9663766	-0.6665639	-0.6770525	32.3	38.345993	8.8849945	
2.6100897863703594	0.0	0.08018725753649412	0.16671304999999906	7.915927879999999	1.8750314800000003	0.3076904296875	0.39975585937499997	51.74	3.0202854	-11.939884	-7.2352777	-0.7360804	-0.5095716	-0.6416223	32.3	38.345993	8.8849945	
2.6200901303794453	0.0	0.10296313404685968	0.3432327499999992	7.82374537	2.222186889999999	0.30765380859374997	0.39971923828125	51.75	2.554613	-10.547656	-7.6530657	-0.5888619	-0.72520703	-0.5176166	32.374	38.15001	8.839996	
2.630090474388524	0.0	0.11787751472031405	0.36088471999999944	7.6491869999999995	2.4006679199999987	0.30765380859374997	0.399700927734375	51.76	2.3020248	-9.325416	-8.285135	-0.56992507	-1.1289889	-0.48646253	32.374	38.15001	8.839996	
2.64009081839761	0.0	0.10907263938297351	0.18632634999999906	7.4295180400000005	2.68898343	0.307598876953125	0.39966430664062497	51.77	2.0494366	-8.2037325	-7.429208	-0.53693837	-1.5101688	-0.4449237	32.414	38.903	7.8350067	
2.6500911624066887	0.0	0.11019571021681797	0.0862985199999992	7.225539719999999	2.7458620000000002	0.30756225585937497	0.39964599609375	51.78	1.8303672	-6.849811	-6.319495	-0.5412144	-1.717863	-0.4064392	32.414	38.903	7.8350067	
2.6600915064157675	0.0	0.08445492670510305	0.06080122999999983	7.007832089999999	2.834121849999999	0.30756225585937497	0.399609375	51.79	1.1791444	-5.1463366	-4.0976763	-0.5412144	-1.717863	-0.4064392	32.952	38.936996	7.218994	
2.6700918504248534	0.0	0.05103233868989206	-0.02745862000000024	6.843080369999999	2.894923079999999	0.307489013671875	0.399554443359375	51.800000000000004	-0.7398083	-4.739322	0.20231004	-0.19974074	-0.7215418	-0.29831603	32.952	38.936996	7.218994	
2.680092194433932	0.0	0.016801139674313053	-0.10983447999999987	6.66067668	2.9184590400000006	0.307452392578125	0.399517822265625	51.81	-4.607641	-7.633912	4.8362875	0.2950601	0.48858225	0.035827246	33.112	39.28099	6.9340057	
2.690092538443018	0.0	0.0035938266683022573	-0.25693423	6.456698360000001	2.7890112599999997	0.307415771484375	0.399517822265625	51.82	-7.428011	-11.665748	4.654328	0.8503366	1.1263256	0.42250493	33.112	39.28099	6.9340057	
2.700092882452097	0.0	-0.011320554005152111	-0.4236472800000001	6.409626439999999	2.738016679999999	0.30743408203125	0.399444580078125	51.83	-10.348937	-15.95496	-1.7980455	1.0946827	0.8318885	0.71510935	33.359	39.087997	6.701996	
2.710093226461183	0.0	-0.026234934678606478	-0.4079566399999997	6.3998197900000005	2.6830994400000003	0.30743408203125	0.39938964843749997	51.84	-12.531252	-22.13679	-9.348161	0.7776437	0.26500556	0.7603134	33.359	39.087997	6.701996	
2.7200935704702616	0.0	-0.03018814401373896	-0.5295591000000004	6.4821956499999995	2.5968009199999993	0.30743408203125	0.399371337890625	51.85	-7.538144	-25.708939	-7.7368627	0.5644517	-0.33425322	0.31682527	33.414	39.091003	6.0339966	
2.7300939144793404	0.0	-0.045821290020853785	-0.5491724000000004	6.52142225	2.636027519999999	0.30743408203125	0.39931640625	51.86	-2.4552538	-23.372196	-5.317522	0.19365647	-0.92190564	-0.053969946	33.414	39.091003	6.0339966	
2.7400942584884262	0.0	-0.05372770869111875	-0.5805536800000003	6.572416829999999	2.6438728400000007	0.30743408203125	0.39929809570312497	51.870000000000005	0.04309563	-16.40866	-3.691859	-0.38788724	-0.938399	-0.039920043	34.836	39.729996	6.29599	
2.750094602497505	0.0	-0.05408709135794897	-0.6354709199999996	6.652831359999999	2.620336880000001	0.30737915039062497	0.39927978515625	51.88	-1.8698715	-10.623073	5.4324436	-0.48073876	-0.55049956	0.3443142	34.836	39.729996	6.29599	
2.760094946506591	0.0	-0.07996264336972522	-0.6962721499999995	6.77247249	2.6124915599999996	0.307452392578125	0.39929809570312497	51.89	-3.7924154	-5.4192758	7.2927384	-0.3781134	-0.45215023	0.72732675	38.71	39.056	10.102005	
2.7700952905156697	0.0	-0.11491260771896468	-0.7198081100000001	6.90192027	2.716442049999999	0.3073974609375	0.399261474609375	51.9	-4.1419687	-2.0147207	3.7696705	-0.284651	-0.39778322	0.9258579	38.71	39.056	10.102005	
2.7800956345247556	0.0	-0.11500245338567223	-0.6903881600000001	6.97841214	2.7419393400000005	0.30737915039062497	0.39929809570312497	51.910000000000004	-3.7002387	-0.037110128	-0.2908955	-0.040915772	-0.023322834	1.0242072	35.582	39.581	6.173004	
2.7900959785338344	0.0	-0.12834453489174438	-0.6256642699999997	7.005870759999999	2.8243152	0.307269287109375	0.39927978515625	51.92	-2.932897	-0.61291564	3.2668881	0.6909008	0.93268126	1.1457694	35.582	39.581	6.173004	
2.800096322542913	0.0	-0.12416671138984299	-0.5883990000000004	7.101975929999999	2.9204203700000004	0.30728759765624997	0.399224853515625	51.93	0.39863458	-3.3363202	7.1311297	1.6572896	1.954048	1.1860864	36.09	40.104004	6.9629974	
2.810096666551999	0.0	-0.1396201660635427	-0.7021561399999999	7.147086519999998	2.9498403199999994	0.30736083984375	0.399261474609375	51.94	2.2242134	-7.48188	8.191761	2.4471383	2.5496416	1.1408825	36.09	40.104004	6.9629974	
2.820097010561078	0.0	-0.13926078339671247	-0.8080679600000003	7.15100918	3.1557799700000007	0.3073974609375	0.399224853515625	51.95	1.8650831	-12.4390745	8.717288	2.9181154	2.9381518	0.8916495	36.244	40.839005	7.742996	
2.8300973545701638	0.0	-0.13045590805937193	-0.8139519499999995	7.119627899999999	3.2950344000000005	0.30728759765624997	0.39927978515625	51.96	0.50158525	-13.14297	4.763264	2.960876	3.2893994	0.62592304	36.244	40.839005	7.742996	
2.8400976985792425	0.0	-0.12587377905728656	-0.8708305199999998	7.090207950000001	3.289150409999999	0.307342529296875	0.39931640625	51.97	-0.5638345	-13.153744	1.5286977	2.70248	3.4024096	0.49641964	33.445	41.722	10.550003	
2.8500980425883284	0.0	-0.12340302322282877	-0.9179024400000001	6.947030859999999	3.45978612	0.30728759765624997	0.3992431640625	51.980000000000004	-0.25139117	-13.304579	-0.545878	2.386052	3.2154846	0.5239086	33.445	41.722	10.550003	
2.8600983865974072	0.0	-0.11509229905237979	-0.9728196799999995	7.037252039999999	3.444095479999999	0.307305908203125	0.39931640625	51.99	0.9516952	-13.455414	-3.833117	2.0641258	2.806205	0.51230216	32.356	39.992996	15.278	
2.870098730606486	0.0	-0.10830895121595928	-0.76099604	6.97448948	3.091056079999999	0.3072509765625	0.399334716796875	52.0	1.4197617	-13.802573	-7.28795	1.6792808	2.112873	0.35714236	32.356	39.992996	15.278	
2.880099074615572	0.0	-0.1173384407200687	-0.76099604	6.982334799999999	2.996912240000001	0.307305908203125	0.39938964843749997	52.01	0.59974754	-13.456611	-7.347805	1.2999334	1.0798998	0.15738943	30.483	39.727005	12.307999	
2.8900994186246507	0.0	-0.1326122040603533	-0.7139241199999997	7.180429129999999	3.055752140000001	0.30728759765624997	0.39931640625	52.02	-1.3323733	-12.154165	-4.012682	1.1569909	0.21552548	0.066981375	30.483	39.727005	12.307999	
2.9000997626337366	0.0	-0.3121238461420511	-0.6982334800000004	7.4844352800000005	3.3244543499999994	0.307305908203125	0.39929809570312497	52.03	-2.3953989	-10.214862	-1.270124	1.2956574	-0.14916107	0.12501357	29.751	38.671005	9.837997	
2.9101001066428154	0.0	-0.2287470674374387	-0.6040896399999999	7.853165319999999	3.59315656	0.307305908203125	0.39935302734375	52.04	-2.742558	-8.941146	0.63206923	1.4428759	-0.16504358	0.19098702	29.751	38.671005	9.837997	
2.9201004506519013	0.0	0.5807623895976448	-0.43149260000000034	8.370956439999999	3.77163759	0.30728759765624997	0.399334716796875	52.050000000000004	-2.3953989	-8.230068	1.3934253	1.4721974	0.06525263	0.23130412	29.214	37.927994	9.057007	
2.93010079466098	0.0	1.244901557899902	-0.2588955599999998	8.857366279999999	4.159980929999999	0.30732421875	0.399407958984375	52.06	-1.7609353	-8.001422	1.365892	1.4447085	0.25828606	0.23313671	29.214	37.927994	9.057007	
2.940101138670059	0.0	0.5755513409286065	-0.1392544299999999	9.375157399999999	4.299235359999999	0.30732421875	0.399371337890625	52.07	-1.9847932	-7.929596	2.3139958	1.4489845	0.285775	0.23863451	32.527	36.755997	9.365997	
2.9501014826791447	0.0	-0.058399683359911685	-0.07845320000000007	9.89294852	4.411031169999999	0.3072509765625	0.39942626953125	52.08	-1.1755531	-8.498219	3.1507695	1.5235101	0.54294926	0.30827314	32.527	36.755997	9.365997	
2.9601018266882235	0.0	-0.21706713076545636	0.039226600000000035	10.253833239999999	4.338461959999999	0.307269287109375	0.39942626953125	52.09	-1.1755531	-8.498219	3.1507695	1.7220412	0.9919352	0.34553593	30.447	37.23799	5.3580017	
2.9701021706973094	0.0	-0.3217822553131134	0.1412157599999997	10.449966239999998	4.893518350000001	0.3072509765625	0.39938964843749997	52.1	-1.3371617	-9.066842	2.814384	2.004261	1.3804456	0.35225543	30.447	37.23799	5.3580017	
2.980102514706388	0.0	-0.33377665181857213	0.22751428000000107	10.693171159999997	4.793490519999999	0.30719604492187497	0.399462890625	52.11	-1.400608	-9.176975	2.3630772	2.2877026	1.727417	0.37485746	33.162	38.197998	7.768997	
2.990102858715474	0.0	-0.34536674282384694	0.2863541799999989	10.850077559999997	4.9425516	0.307159423828125	0.39942626953125	52.120000000000005	-1.1767502	-9.090784	0.6500258	2.4563012	2.0414016	0.42983532	33.162	38.197998	7.768997	
3.000103202724553	0.0	-0.36189834549803734	0.18044235999999972	10.855961550000002	5.146529919999999	0.307269287109375	0.399517822265625	52.13	-0.8379706	-8.844181	0.7158663	2.4098756	2.2136657	0.49519792	31.064	37.808	3.7200012	
3.0101035467336317	0.0	-0.37609396083783125	0.11375714000000053	10.93833741	5.39561883	0.307232666015625	0.39949951171875	52.14	-0.8822633	-8.596381	1.5263035	2.3591738	2.3046846	0.5306281	31.064	37.808	3.7200012	
3.0201038907427176	0.0	-0.374117356170265	0.27654753	10.97952534	5.852608719999999	0.30721435546875	0.399554443359375	52.15	-1.0953473	-8.583213	1.6041151	2.412319	2.3046846	0.5837734	30.951	37.789993	4.2059937	
3.0301042347517964	0.0	-0.3740724333369112	0.49817781999999955	10.773585689999997	6.1566148699999985	0.3072509765625	0.399554443359375	52.160000000000004	-1.0654198	-8.549694	0.90381116	2.4428623	2.1935072	0.6839553	30.951	37.789993	4.2059937	
3.0401045787608822	0.0	-0.37748656867179836	0.6237029400000009	10.536264759999998	6.1899574799999995	0.307232666015625	0.399609375	52.17	-0.9552865	-7.9870567	0.5734113	2.3432913	2.0841622	0.7761959	30.951	37.789993	4.2059937	
3.050104922769961	0.0	-0.35165593949337587	0.7453054000000007	10.35386107	6.18603482	0.307232666015625	0.399554443359375	52.18	-0.9552865	-7.9870567	0.5734113	2.2162313	2.1574662	0.8568301	31.76	38.003006	3.9240112	
3.060105266779047	0.0	-0.3440190578232336	1.0826541600000004	10.818696280000001	6.050703049999999	0.307177734375	0.399554443359375	52.19	-0.70509243	-7.1071877	-2.942474	2.1374297	2.1660182	0.91241884	32.445	38.111008	4.049011	
3.0701056107881257	0.0	-0.33764001548699707	1.7377383800000001	12.732954359999999	4.958242240000001	0.30721435546875	0.39949951171875	52.2	-1.2318168	-8.327033	-4.701015	2.0024285	1.622959	1.0199311	32.445	38.111008	4.049011	
3.0801059547972045	0.0	-0.3282960661494112	2.126081720000001	13.80187921	4.22862748	0.30710449218749997	0.39948120117187497	52.21	-0.46806642	-10.217256	-4.2461166	1.823445	0.67611784	1.1512672	32.619	37.175995	4.4630127	
3.0901062988062904	0.0	-0.31814350581145734	1.372930999999999	13.11345238	5.02492746	0.306939697265625	0.39935302734375	52.22	-0.46806642	-10.217256	-4.2461166	1.5797096	-0.05814215	1.2123537	32.619	37.175995	4.4630127	
3.100106642815369	0.0	-0.33530402815260063	0.26085688999999956	11.550272369999998	4.926860959999999	0.3068115234375	0.399188232421875	52.230000000000004	1.0019734	-12.54442	-2.753332	0.9279165	0.04020715	1.1329412	33.277	37.466995	2.5740051	
3.110106986824455	0.0	-0.3203896474791463	-0.32754210999999983	10.1596894	4.063875760000001	0.3068115234375	0.39902343749999997	52.24	1.2030864	-12.606669	-2.2816741	0.6786835	0.39389813	1.0407006	33.277	37.466995	2.5740051	
3.120107330833534	0.0	-0.32164748681305205	0.44129924999999925	9.359466759999998	2.9106137199999993	0.30677490234375	0.398895263671875	52.25	1.067814	-12.192472	-1.5945383	0.4251744	0.64618546	0.9447948	35.245	35.067	8.651001	
3.1301076748426198	0.0	-0.29541255213444556	1.5455280399999995	8.95935544	2.0574351699999998	0.306683349609375	0.39876708984375	52.26	0.92416185	-11.848905	-0.533907	0.15883717	0.7097154	0.8549975	35.245	35.067	8.651001	
3.1401080188516985	0.0	-0.2778028014597645	2.0319378800000005	9.05153795	1.7357770500000003	0.306610107421875	0.398712158203125	52.27	0.92416185	-11.848905	-0.533907	0.0061208457	0.57288164	0.75603735	33.702	36.716995	2.0239868	
3.1501083628607773	0.0	-0.263921645953447	1.9279873900000009	9.03780864	1.8789541399999998	0.30655517578124997	0.398602294921875	52.28	0.62967503	-11.6825075	0.7338228	0.03422065	0.3877895	0.6326426	33.702	36.716995	2.0239868	
3.1601087068698632	0.0	-0.27870125812684005	1.7377383800000001	8.88286357	2.3477120100000004	0.30655517578124997	0.398529052734375	52.29	0.36032736	-11.894394	0.046686932	0.116687454	0.34319633	0.49458703	34.157	36.434998	3.3129883	
3.170109050878942	0.0	-0.2889436641315015	1.91818074	8.99073672	2.4320492	0.3065185546875	0.39847412109374997	52.300000000000004	-0.17597382	-12.380417	-0.31004912	0.088587664	0.5148494	0.36141843	34.157	36.434998	3.3129883	
3.180109394888028	0.0	-0.2905608861322375	2.122159059999999	9.20452169	2.51246373	0.30646362304687497	0.398455810546875	52.31	-1.0319009	-12.700043	-0.28491	-0.037861448	0.7653042	0.24718662	34.405	36.451004	2.4769897	
3.1901097388971067	0.0	-0.27811726129324094	2.21238024	9.10841652	2.7105580599999994	0.30640869140625	0.398455810546875	52.32	-2.0482395	-12.571953	-0.21787235	-0.13498902	0.82516897	0.1842675	34.405	36.451004	2.4769897	
3.2001100829061926	0.0	-0.2619899641192346	2.1809989599999993	8.778913079999999	2.78704993	0.306427001953125	0.39838256835937497	52.33	-2.0482395	-12.571953	-0.21787235	-0.12765864	0.67978305	0.18976529	34.734	35.740005	5.255005	
3.2101104269152714	0.0	-0.27115422212340534	2.2574908299999996	8.472945600000001	2.63014353	0.3064453125	0.398309326171875	52.34	-2.813187	-12.16853	-0.533907	-0.10322403	0.55638826	0.2300824	34.734	35.740005	5.255005	
3.22011077092435	0.0	-0.3162118239772449	2.1378496999999994	8.41802836	2.222186889999999	0.30640869140625	0.3982177734375	52.35	-2.707842	-11.859678	-1.7477672	-0.34023976	0.5325645	0.22886066	33.824	35.473007	3.2879944	
3.230111114933436	0.0	-0.35538453466173947	1.8358048800000002	8.45529363	2.1594243299999993	0.30637207031249997	0.398272705078125	52.36	-1.2162545	-12.993333	-2.5234885	-0.95843536	0.48858225	0.1280679	33.824	35.473007	3.2879944	
3.240111458942515	0.0	-0.3911880328447007	1.3670470099999996	8.52786284	2.102545759999999	0.3064453125	0.39818115234375	52.370000000000005	0.748188	-15.435418	-0.2705448	-0.95843536	0.48858225	0.1280679	33.234	35.154007	2.9140015	
3.2501118029516007	0.0	-0.8909096310721296	0.7943386499999996	8.567089439999998	2.21238024	0.30640869140625	0.3982177734375	52.38	2.3475149	-14.459781	3.8750155	-1.6511565	0.42993918	-0.41071525	33.234	35.154007	2.9140015	
3.2601121469606795	0.0	-1.1475987008556183	0.26085688999999956	8.55336013	2.457546489999999	0.306353759765625	0.39819946289062497	52.39	2.3475149	-14.459781	3.8750155	-1.2547051	0.31692913	-0.86092293	32.663	35.240005	3.6220093	
3.2701124909697654	0.0	-1.1475088551889108	-0.06276255999999962	8.347420479999998	2.714480719999999	0.30637207031249997	0.39814453125	52.4	0.40581718	-14.079103	-1.103727	-1.1154277	-0.11312002	-1.1675773	32.663	35.240005	3.6220093	
3.280112834978844	0.0	-1.0691634338199216	-0.05491724000000048	8.0806796	2.7693979599999996	0.30640869140625	0.39818115234375	52.410000000000004	-2.3247697	-14.198813	-4.547786	-1.4672861	-0.42038524	-1.1468079	32.631	35.285995	4.703003	
3.29011317898793	0.0	-0.949578851432164	0.019613300000000018	7.868855959999999	2.7537073199999993	0.306298828125	0.398089599609375	52.42	-3.8606503	-11.257536	-2.8862102	-1.962087	-0.5358388	-0.9922589	32.631	35.285995	4.703003	
3.300113522997009	0.0	-0.8214140078738347	0.16671304999999906	7.562888480000001	2.8007792400000007	0.30626220703125	0.39810791015624997	52.43	-3.7972038	-9.719262	-1.5382746	-2.3493755	-0.49613252	-0.90368354	31.809	33.966003	7.5839996	
3.3101138670060877	0.0	-0.6937882383157508	0.2353596000000002	7.27261164	2.90669106	0.306243896484375	0.39796142578125	52.44	-3.4153287	-9.2787285	-0.65242	-2.6407583	-0.31042948	-0.8890227	31.809	33.966003	7.5839996	
3.3201142110151736	0.0	-0.5685433789254172	0.36873004000000076	6.97448948	2.9361110100000007	0.30626220703125	0.398052978515625	52.45	-2.920926	-9.922769	0.9564836	-2.8612807	-0.11556348	-0.9238421	30.08	33.793	5.5150146	
3.3301145550242524	0.0	-0.4893893465560599	0.5629017099999989	6.73912988	3.00475756	0.3062255859375	0.397998046875	52.46	-2.7605145	-10.923545	2.6360161	-2.987119	0.060365707	-1.0124176	30.08	33.793	5.5150146	
3.3401148990333382	0.0	-0.3981061491811826	0.7060788000000006	6.48023432	2.894923079999999	0.30618896484374997	0.39792480468749997	52.47	-2.885013	-11.652579	3.2022448	-3.0384316	0.3010466	-1.1547492	29.071	33.203003	9.796005	
3.350115243042417	0.0	-0.3309914361506379	0.8119906199999998	6.26056536	2.8635418	0.30618896484374997	0.3978515625	52.480000000000004	-2.9412768	-11.892	3.1759086	-3.0756943	0.5521122	-1.3215153	29.071	33.203003	9.796005	
3.360115587051503	0.0	-0.2572281437837341	0.8727918499999996	6.001669800000001	2.871387119999999	0.306134033203125	0.3977783203125	52.49	-3.3327289	-12.125435	3.027468	-3.07264	0.7402587	-1.4956119	26.515	34.311996	10.662003	
3.3701159310605817	0.0	-0.19712139275637883	0.8080679600000003	5.891835319999999	2.834121849999999	0.30611572265625	0.397723388671875	52.5	-4.086902	-12.441469	2.3511062	-2.9877298	0.91496617	-1.6061785	26.515	34.311996	10.662003	
3.3801162750696605	0.0	-0.15624161440444065	0.878675839999999	5.83299542	2.8007792400000007	0.306134033203125	0.3976318359375	52.51	-4.5358152	-12.756307	1.2030864	-2.7910311	0.9736092	-1.5780787	28.841	33.350998	19.309998	
3.3901166190787464	0.0	-0.13454388589456576	0.8002226399999989	5.785923500000001	2.840005840000001	0.30611572265625	0.397705078125	52.52	-4.8386817	-12.971785	-0.34117374	-2.4978158	0.7579738	-1.4302493	28.841	33.350998	19.309998	
3.400116963087825	0.0	-0.10044745537904809	0.8472945600000003	5.78788483	2.9027684000000002	0.306060791015625	0.397723388671875	52.53	-4.7285485	-12.802994	-0.6679823	-2.2009354	0.25828606	-1.187125	26.452	36.733994	17.485992	
3.410117307096911	0.0	-0.09685362871074583	0.8904438199999999	5.82907276	3.030254849999999	0.30615234375	0.397723388671875	52.54	-3.6619315	-12.571953	-0.04070143	-1.8551856	-0.35868785	-0.8945205	26.452	36.733994	17.485992	
3.42011765110599	0.0	-0.090339817874448	0.9728196799999995	5.98597916	3.1832385899999998	0.306170654296875	0.39781494140625	52.550000000000004	-2.0817583	-11.629835	1.4772224	-1.4263582	-0.9145752	-0.6739981	26.914	37.197998	17.466995	
3.4301179951150758	0.0	-0.08948628404072621	0.9708583499999998	6.095813639999999	3.3499516399999987	0.3062255859375	0.397796630859375	52.56	-1.0319009	-10.535685	2.6635494	-0.95599186	-1.0709567	-0.6092465	26.914	37.197998	17.466995	
3.4401183391241545	0.0	-0.0746617490339794	1.019891600000001	6.14876955	3.4225208499999997	0.30626220703125	0.39788818359375	52.57	-0.5506664	-9.396045	1.0462662	-0.5515991	-0.8815885	-0.6892698	29.872	38.77501	17.330002	
3.4501186831332333	0.0	-0.06432949736261041	0.917902439999999	6.2017254600000005	3.589233900000001	0.306298828125	0.39788818359375	52.58	1.6915035	-7.7069354	-2.007538	-0.24250132	-0.951838	-0.89329875	29.872	38.77501	17.330002	
3.4601190271423192	0.0	-0.047258820688174684	0.9335930799999995	6.425317079999999	3.648073800000001	0.30637207031249997	0.397906494140625	52.59	1.7166426	-7.4687123	-8.593987	-0.2040168	-1.940218	-1.2983025	29.739	40.287994	15.507996	
3.470119371151398	0.0	-0.034860118682531895	0.9257477600000004	6.644986039999999	3.648073800000001	0.306390380859375	0.39796142578125	52.6	0.2873042	-8.74123	-2.6120741	-1.1765143	-2.4392948	-1.5481464	29.739	40.287994	15.507996	
3.480119715160484	0.0	-0.034141353348871445	0.8708305199999998	6.87250032	3.781444239999999	0.30640869140625	0.397998046875	52.61	-0.35314476	-8.358158	1.8866309	-1.962087	-2.0330694	-1.468123	33.338	39.541	19.612	
3.4901200591695627	0.0	-0.041284083852122185	0.6197802799999992	7.35106484	3.9775772399999996	0.30646362304687497	0.398052978515625	52.620000000000005	-1.3335704	-8.421604	2.5689783	-2.2009354	-1.4814582	-1.3154067	33.338	39.541	19.612	
3.5001204031786486	0.0	-0.016351911340775273	0.4707192000000004	7.933579849999999	4.1756715699999996	0.306536865234375	0.39814453125	52.63	-1.1911154	-8.348581	0.47165772	-2.1453466	-1.3012528	-1.1352015	32.089	38.190994	18.628998	
3.5101207471877274	0.0	-0.005974736836052503	0.36873004000000076	8.67692392	4.3953405299999995	0.30655517578124997	0.398236083984375	52.64	-0.6560113	-7.763199	-0.80804306	-1.9547566	-1.6341745	-0.973933	32.089	38.190994	18.628998	
3.520121091196806	0.0	-0.02174265134322866	0.43149260000000034	8.98681406	4.29139004	0.30662841796875	0.39819946289062497	52.65	-0.36750996	-7.454347	-0.93613285	-1.9217699	-2.1271427	-1.0081415	32.714	37.839996	14.154999	
3.530121435205892	0.0	-0.0032344440014720316	0.40011131999999944	9.01427268	4.338461959999999	0.3066650390625	0.398309326171875	52.660000000000004	-0.49679685	-7.2364745	0.09935937	-1.9217699	-2.1271427	-1.0081415	32.714	37.839996	14.154999	
3.540121779214971	0.0	-0.13369035206084398	0.2981221599999998	9.18883105	4.381611220000001	0.306793212890625	0.39832763671875	52.67	-1.0103531	-7.076063	1.34195	-1.8557965	-2.5229833	-1.046626	34.55	36.223007	21.054993	
3.5501221232240567	0.0	-0.15305209323632238	0.2785088599999998	9.30454952	4.299235359999999	0.306756591796875	0.398419189453125	52.68	-1.7585411	-6.953959	1.8387469	-1.739732	-2.2774155	-1.0545672	34.55	36.223007	21.054993	
3.5601224672331355	0.0	0.40843840085255156	0.4393379199999995	9.64582094	4.4404511200000005	0.30684814453125	0.3985107421875	52.69	-2.6479871	-6.9479733	1.5406688	-1.5778527	-1.8962356	-1.0020328	32.208	36.97499	13.681	
3.5701228112422214	0.0	1.10635953983685	0.6982334799999993	10.242065259999999	4.7699545599999995	0.306903076171875	0.3985107421875	52.7	-2.9771898	-6.3949127	0.034715924	-1.1649078	-1.618292	-0.76013017	32.208	36.97499	13.681	
3.5801231552513	0.0	0.6547053732979637	0.721769440000001	10.67748052	5.311281640000001	0.306939697265625	0.398602294921875	52.71	-2.9771898	-6.3949127	0.034715924	-0.93766594	-1.7361889	-0.6984328	37.779	35.861008	17.958008	
3.590123499260379	0.0	0.24527867011162907	0.6766588499999995	10.965796029999998	5.51525996	0.3069580078125	0.39873046875	52.72	-2.9496565	-6.033388	0.5291186	-0.6957633	-1.7978864	-0.6660569	37.779	35.861008	17.958008	
3.600123843269465	0.0	0.050897570189830724	0.53348176	11.048171889999997	5.4132708	0.30706787109375	0.3988037109375	52.730000000000004	-2.9747956	-5.66109	1.1133038	-0.43736732	-1.7612344	-0.63184845	34.763	36.063004	14.074997	
3.6101241872785437	0.0	-0.054581242524840534	0.43149260000000034	11.03248125	5.8761446799999995	0.30692138671874997	0.39884033203124997	52.74	-2.7593174	-5.040992	1.5634137	-0.16369969	-1.6335636	-0.60130525	34.763	36.063004	14.074997	
3.6201245312876296	0.0	-0.04995419068940138	0.5060231400000008	10.457811559999998	5.938907239999999	0.307049560546875	0.398895263671875	52.75	-2.7593174	-5.040992	1.5634137	0.116076596	-1.4215933	-0.561599	33.81	36.298004	13.304001	
3.6301248752967084	0.0	-0.06841747519780422	0.386382010000001	10.379358359999998	6.0644323600000005	0.307159423828125	0.39893188476562497	52.76	-2.5689783	-5.151125	0.088585466	0.37263998	-1.2187861	-0.5011233	33.81	36.298004	13.304001	
3.6401252193057942	0.0	-0.06594671936334642	0.2745862000000002	10.04004827	5.98990182	0.307049560546875	0.39891357421875	52.77	-2.327164	-5.2516813	-0.33997664	0.5809451	-1.0795088	-0.3997197	35.572	33.621002	19.216995	
3.650125563314873	0.0	-0.054221859858010306	0.3530394000000003	9.979247039999997	5.7663102	0.307159423828125	0.399078369140625	52.78	-2.327164	-5.2516813	-0.33997664	0.75870687	-0.9145752	-0.29465085	35.572	33.621002	19.216995	
3.660125907323952	0.0	-0.011814705172043671	0.9120184499999997	11.85427852	5.45445873	0.307177734375	0.399169921875	52.79	-1.9812019	-5.2636523	-0.676362	0.9260839	-0.70565933	-0.21584924	33.428	37.289993	10.307007	
3.6701262513330377	0.0	0.06540764536310109	1.8828767999999994	14.074504079999999	3.7324109900000004	0.307305908203125	0.399371337890625	52.800000000000004	-1.6651673	-5.353435	-1.2174516	1.0873523	-0.4808609	-0.15354098	33.428	37.289993	10.307007	
3.6801265953421165	0.0	0.0754703600343474	1.0375435699999989	12.76433564	4.52674964	0.307342529296875	0.39935302734375	52.81	-1.5239093	-5.5485625	-2.0386627	1.2186884	-0.27316672	-0.091232724	34.125	37.142	16.274994	
3.6901269393512024	0.0	0.0488760426889107	-0.36480738000000007	11.516929759999998	4.871943719999999	0.307305908203125	0.399334716796875	52.82	-1.5873557	-6.0716953	-3.2010477	1.2614489	-0.06547253	-0.011209378	34.125	37.142	16.274994	
3.700127283360281	0.0	0.009029489504109423	-0.7864933300000004	10.732397759999998	4.118792999999999	0.3072509765625	0.39929809570312497	52.83	-1.6412252	-6.9120603	-4.8219223	1.1582127	0.15932587	0.06331618	34.563	36.586	12.302994	
3.710127627369367	0.0	0.0022012188343351327	-0.5883990000000004	10.530380769999999	2.9596469700000005	0.307342529296875	0.39927978515625	52.84	-0.5506664	-9.51336	-8.890868	0.91142315	0.33158988	0.082253	34.563	36.586	12.302994	
3.720127971378446	0.0	-0.020305120675907756	-0.5923216600000001	10.224413290000001	2.1280430500000005	0.30732421875	0.399261474609375	52.85	-0.16519992	-11.502942	-10.55843	0.5870537	0.37251785	0.052320607	34.209	38.153	9.356995	
3.7301283153875247	0.0	-0.05031357335623161	-0.80022264	9.60071035	1.7142024200000006	0.30728759765624997	0.399169921875	52.86	0.12569559	-13.575124	-11.971008	0.22969753	0.25278828	0.0028405227	34.209	38.153	9.356995	
3.7401286593966105	0.0	-0.08391585270485771	-1.2317152400000004	9.1790244	1.514146760000001	0.30728759765624997	0.399169921875	52.870000000000005	0.12569559	-13.575124	-11.971008	-0.11360874	-0.06730513	-0.060689464	35.895	37.472	12.608002	
3.7501290034056893	0.0	-0.10314282538027479	-1.5278760700000005	9.084880559999998	1.4396162200000002	0.307269287109375	0.399224853515625	52.88	1.0342951	-16.186	-12.174516	-0.39705023	-0.4735305	-0.1303281	35.895	37.472	12.608002	
3.7601293474147752	0.0	-0.11464307071884201	-1.2630965200000002	9.36927341	1.592599960000001	0.307269287109375	0.399169921875	52.89	1.0342951	-16.186	-12.174516	-0.6322333	-0.7233744	-0.21951443	33.563	37.861008	8.875	
3.770129691423854	0.0	-0.09343949337585869	-0.78060934	9.78311404	1.7867716299999992	0.30728759765624997	0.399169921875	52.9	2.124854	-13.936648	-9.303867	-0.8191581	-0.78446096	-0.33557883	33.563	37.861008	8.875	
3.78013003543294	0.0	-0.07744696470191365	-0.5413270800000002	9.871373890000001	2.0319378800000005	0.307342529296875	0.39911499023437497	52.910000000000004	2.1428106	-12.368446	-9.296685	-0.92361605	-0.7325374	-0.3832263	34.35	37.893005	10.518997	
3.7901303794420187	0.0	-0.0802321803698479	-0.31577413000000004	9.838031280000001	2.302601419999999	0.30728759765624997	0.399169921875	52.92	1.9309237	-10.653001	-8.536526	-0.9718744	-0.7838501	-0.3765068	34.35	37.893005	10.518997	
3.8001307234510975	0.0	-0.07079838536555447	-0.3138128000000003	9.80665	2.5850329400000005	0.307232666015625	0.39902343749999997	52.93	1.9309237	-10.653001	-8.536526	-0.9853134	-0.983603	-0.3850589	34.426	37.46901	10.050995	
3.8101310674601834	0.0	-0.0558840046921001	-0.08237585999999963	9.66151158	2.68506077	0.307269287109375	0.39906005859375	52.94	0.18195933	-7.33344	-6.7360864	-0.9132313	-1.182745	-0.4094935	34.426	37.46901	10.050995	
3.820131411469262	0.0	-0.05660277002576056	0.20790098000000104	9.25159361	2.7811659400000006	0.30719604492187497	0.39906005859375	52.95	0.18195933	-7.33344	-6.7360864	-0.7996104	-1.287203	-0.40582833	34.306	37.826996	10.255997	
3.830131755478348	0.0	-0.052469869357212956	0.47856451999999955	8.825985	2.9576856400000007	0.30728759765624997	0.399005126953125	52.96	-3.204639	-3.891775	-3.7433343	-0.6554462	-1.2536054	-0.35268304	34.306	37.826996	10.255997	
3.840132099487427	0.0	-0.04240715468596664	0.6590068799999993	8.35722713	3.1047853899999995	0.3072509765625	0.399005126953125	52.97	-3.204639	-3.891775	-3.7433343	-0.43064782	-1.2053471	-0.2677728	36.489	36.121002	12.126007	
3.8501324434965127	0.0	-0.04474314202036311	0.6354709199999996	7.98653576	3.0282935199999996	0.307305908203125	0.398968505859375	52.980000000000004	-7.2723875	-5.5964465	-0.11252748	-0.053133078	-1.164419	-0.1003957	36.489	36.121002	12.126007	
3.8601327875055915	0.0	-0.024258330011040236	0.6197802799999992	7.562888480000001	3.08321076	0.3072509765625	0.398968505859375	52.99	-9.084799	-10.400413	3.311181	0.5064195	-0.72093093	0.2441323	33.929	37.309006	8.652008	
3.8701331315146703	0.0	-0.029109996013248287	0.621741609999999	7.09216928	3.0145642099999987	0.307269287109375	0.398895263671875	53.0	-7.693767	-17.963696	-6.9000893	0.8179608	0.3456398	0.56056046	33.929	37.309006	8.652008	
3.880133475523756	0.0	-0.028570922013002948	0.49425515999999997	6.80189244	2.92434303	0.307269287109375	0.398876953125	53.01	-7.693767	-17.963696	-6.9000893	0.47587624	1.0414153	0.64608157	34.384	37.630997	9.695007	
3.890133819532835	0.0	-0.02066450334273798	0.4550285599999999	6.47631166	3.0204482	0.3072509765625	0.3989501953125	53.02	-2.6779146	-16.267403	-1.0426749	-0.058020003	1.0689043	0.37485746	34.384	37.630997	9.695007	
3.900134163541921	0.0	-0.00377351800171737	0.39226600000000034	6.240952060000001	3.0989014000000004	0.307177734375	0.398876953125	53.03	-1.7657237	-13.414712	0.59615624	0.068429105	0.8471601	-0.052748214	35.763	38.336	9.679001	
3.9101345075509997	0.0	0.0032344440014720316	0.2687022100000009	6.068355019999999	3.1400893300000003	0.307177734375	0.398858642578125	53.04	-2.6527755	-11.008539	-2.5773582	0.6365338	-0.17054136	-0.121775985	35.763	38.336	9.679001	
3.9201348515600856	0.0	-0.004267669168608931	0.10198915999999965	6.02324443	3.0675201199999993	0.307159423828125	0.398895263671875	53.050000000000004	-4.1826706	-10.712855	-0.45968673	0.91142315	-0.7698002	-0.038698316	34.803	38.097	8.459	
3.9301351955691644	0.0	-0.021158654509629542	0.04903324999999895	5.98597916	3.04594549	0.307232666015625	0.398876953125	53.06	-5.943606	-10.01734	1.8734628	0.6774618	-0.004996876	0.23802364	34.803	38.097	8.459	
3.940135539578243	0.0	-0.025156786678115804	-0.07060787999999985	5.978133839999999	3.00475756	0.307232666015625	0.398858642578125	53.07	-6.9491706	-8.580819	1.3994108	0.31888384	0.95222896	0.6381403	36.968	36.949997	14.518997	
3.950135883587329	0.0	-0.03216474868130521	-0.12356378999999945	6.04874172	2.992989579999999	0.307159423828125	0.39884033203124997	53.08	-5.497087	-7.589619	1.1324574	0.29994702	1.1037235	1.0254289	36.968	36.949997	14.518997	
3.960136227596408	0.0	-0.022820799343719333	-0.2353596000000002	6.142885560000001	2.9419950000000004	0.30719604492187497	0.39884033203124997	53.09	-2.1152773	-7.053318	5.6922145	0.64997286	1.0872302	1.2532816	35.698	38.496994	8.778	
3.9701365716054937	0.0	-0.022641108010304223	-0.3432327500000003	6.2841013199999995	2.9204203700000004	0.307122802734375	0.398822021484375	53.1	0.8451532	-7.1706343	7.2460513	1.2138014	1.4006041	1.2795489	35.698	38.496994	8.778	
3.9801369156145725	0.0	-0.002470755834457802	-0.40011131999999944	6.425317079999999	3.016525540000001	0.30719604492187497	0.398785400390625	53.11	3.9983168	-6.7971387	8.829816	1.7800735	1.5038403	1.1182804	36.144	38.683	8.998993	
3.9901372596236584	0.0	0.002695370001226693	-0.5001391500000004	6.495924960000001	3.00475756	0.30721435546875	0.398785400390625	53.120000000000005	3.9073372	-8.734048	10.125079	2.3829975	1.4250387	0.75053954	36.144	38.683	8.998993	
4.000137603632737	0.0	0.007726727336849854	-0.5413270800000002	6.623411409999999	3.030254849999999	0.307159423828125	0.39869384765625	53.13	1.3251907	-10.793061	8.571242	2.9303327	1.2808745	0.544678	39.831	37.341995	15.477997	
4.010137947641816	0.0	-0.01185962800539745	-0.5177911199999996	6.668521999999999	3.016525540000001	0.30721435546875	0.398785400390625	53.14	1.6160861	-11.220427	5.449203	3.1612399	1.2802637	0.6430273	39.831	37.341995	15.477997	
4.020138291650902	0.0	0.05606369602551522	-0.5158297899999997	6.803853769999999	3.036138840000001	0.30721435546875	0.39876708984375	53.15	1.2210429	-11.660959	1.3323733	2.9761477	1.6327329	0.69739425	37.176	40.876	9.895996	
4.030138635659981	0.0	-0.0307272180139843	-0.6021283100000001	6.839157709999999	3.04398416	0.307122802734375	0.39869384765625	53.160000000000004	1.1348516	-11.828553	-2.2601264	2.538768	2.0114694	0.7334354	37.176	40.876	9.895996	
4.0401389796690665	0.0	-0.02241649384353533	-0.72176944	6.73912988	3.24011716	0.307159423828125	0.398712158203125	53.17	0.9660604	-11.343728	-4.0342298	2.0146458	2.1055427	0.7285484	37.21	39.656	14.151001	
4.050139323678145	0.0	-0.014554998006624143	-0.7531507199999997	6.566532839999999	3.387216909999999	0.30719604492187497	0.39884033203124997	53.18	0.56982	-10.654198	-3.3758245	1.3591874	1.577755	0.50680435	37.21	39.656	14.151001	
4.060139667687231	0.0	0.022730953677011778	-0.7688413600000003	6.52730624	3.4048688799999995	0.307232666015625	0.3988037109375	53.19	-2.5127146	-10.511743	-0.700304	1.4123327	1.442143	0.39440516	34.259	41.005005	11.345001	
4.07014001169631	0.0	0.029649070013493622	-0.7766866800000004	6.605759439999999	3.4225208499999997	0.307159423828125	0.39876708984375	53.2	-3.1268275	-10.508151	-0.49679685	1.6359093	1.3725042	0.41334197	34.259	41.005005	11.345001	
4.080140355705389	0.0	0.012263933505581453	-0.7433440699999997	6.786201799999999	3.57550459	0.307177734375	0.398822021484375	53.21	-3.0250738	-10.333375	-0.92416185	1.8735359	1.2588834	0.4426635	31.413	39.589005	11.201996	
4.090140699714475	0.0	0.04420406802011777	-0.6825428399999999	7.139241199999999	3.7422176399999993	0.307269287109375	0.398876953125	53.22	-2.44448	-9.515755	-1.6112977	1.9847133	1.1073887	0.38829648	31.413	39.589005	11.201996	
4.1001410437235535	0.0	0.0544464740247792	-0.5099458000000004	7.617805719999999	4.10898635	0.30721435546875	0.398895263671875	53.230000000000004	-2.1894975	-8.578424	-2.1631613	1.9059117	0.89786196	0.23252586	30.107	37.77501	10.789001	
4.110141387732639	0.0	0.07007962003189402	-0.3530394000000003	8.229740679999999	4.434567129999999	0.30732421875	0.398895263671875	53.24	-2.3918076	-8.221688	-2.408567	1.6811134	0.6382442	0.12257011	30.107	37.77501	10.789001	
4.120141731741718	0.0	0.05408709135794897	-0.10002782999999986	8.73184116	4.671888059999999	0.307305908203125	0.399041748046875	53.25	-2.0769699	-7.7847466	-1.353921	1.4569257	0.371907	0.17143933	29.09	36.821	9.544998	
4.130142075750804	0.0	0.05750122669283612	0.11964112999999989	9.07899657	4.84056244	0.307305908203125	0.399005126953125	53.26	-1.1552023	-7.5321584	0.6679823	1.3799567	0.25828606	0.26245826	29.09	36.821	9.544998	
4.140142419759883	0.0	0.09811146804465162	0.3628460499999992	9.275129569999999	4.91705431	0.307305908203125	0.398968505859375	53.27	-0.5781997	-7.577648	2.505532	1.4893017	0.41650015	0.2966667	29.398	35.893005	7.9839935	
4.150142763768962	0.0	0.04240715468596664	0.4099179700000006	9.4536106	4.691501359999999	0.30736083984375	0.399041748046875	53.28	-0.5781997	-7.577648	2.505532	1.7165436	0.81844944	0.31682527	29.398	35.893005	7.9839935	
4.1601431077780475	0.0	-0.16531602674190385	0.384420679999999	9.61836232	4.66208141	0.307342529296875	0.399078369140625	53.29	-0.04309563	-8.641871	3.1675289	1.9633331	1.3144721	0.32782084	29.458	36.098007	5.0710144	
4.170143451787126	0.0	-0.002830138501288028	0.24516624999999911	9.949827090000001	4.6993466800000006	0.307415771484375	0.39913330078125	53.300000000000004	0.7326257	-8.967483	1.4867992	2.0751214	1.7371908	0.34125987	29.458	36.098007	5.0710144	
4.180143795796212	0.0	0.9791380757789501	0.18828768000000104	10.3558224	4.9425516	0.307415771484375	0.39911499023437497	53.31	0.7326257	-8.967483	1.4867992	1.9847133	1.9112874	0.3107166	30.621	37.138	4.7680054	
4.190144139805291	0.0	1.3072544505949462	0.13337044000000053	10.857922880000002	5.246557749999999	0.30743408203125	0.399151611328125	53.32	0.7062895	-9.275137	1.3970166	1.831997	1.9772608	0.26245826	30.621	37.138	4.7680054	
4.200144483814377	0.0	0.4452751242026497	0.0862985199999992	11.210962280000002	5.460342719999999	0.30747070312499997	0.3992431640625	53.33	0.7062895	-9.275137	1.3970166	1.7476976	2.1110404	0.27528644	31.901	36.79399	4.894989	
4.210144827823456	0.0	0.1967620100895486	0.09806650000000008	11.34237139	5.640785079999999	0.307415771484375	0.399188232421875	53.34	-0.29807812	-10.0664215	1.2270284	1.7128783	2.302241	0.34981197	31.901	36.79399	4.894989	
4.2201451718325345	0.0	0.038498868184187934	0.27066354000000065	11.22665292	5.62705577	0.30743408203125	0.39927978515625	53.35	-0.29807812	-10.0664215	1.2270284	1.7171544	2.3785994	0.44510695	31.906	37.649002	5.07901	
4.23014551584162	0.0	-0.039172710684494606	0.48837117000000063	10.844193569999998	6.280178660000001	0.30743408203125	0.399334716796875	53.36	-1.0785879	-10.425551	-1.6687586	1.8087841	2.2002268	0.54040194	31.906	37.649002	5.07901	
4.240145859850699	0.0	-0.042676691686089306	0.682542840000001	10.52057412	6.2017254600000005	0.30758056640625	0.399334716796875	53.370000000000005	-1.1456255	-10.092757	-4.7764325	1.8087841	2.2002268	0.54040194	31.238	37.574005	4.7409973	
4.250146203859785	0.0	-0.047213897854820906	0.8119906199999998	10.130269449999998	6.431201069999999	0.3075439453125	0.39938964843749997	53.38	-1.1456255	-10.092757	-4.7764325	2.1698055	0.8825903	0.6839553	31.238	37.574005	4.7409973	
4.260146547868864	0.0	-0.03697149185015947	0.7786480099999992	9.87921921	6.464543679999999	0.30756225585937497	0.399407958984375	53.39	-1.673547	-9.797073	-5.09127	2.158199	0.029211577	0.75786996	31.849	37.763992	2.743988	
4.27014689187795	0.0	-0.03337766518185722	1.0591182000000008	10.58333668	6.197802799999999	0.3076171875	0.399554443359375	53.4	-1.6663644	-9.68694	-2.8909986	1.9260703	-0.6409076	0.8507215	31.849	37.763992	2.743988	
4.2801472358870285	0.0	-0.017250368007850837	1.9887886200000007	12.515246729999998	5.11514864	0.307672119140625	0.399591064453125	53.410000000000004	-1.0319009	-9.848549	-2.124854	1.5992573	-0.6940529	0.9368535	33.537	37.701996	3.6470032	
4.290147579896107	0.0	-0.0044922833353778216	2.51246373	13.146794989999997	4.3855338800000006	0.307818603515625	0.399700927734375	53.42	0.055066638	-10.157401	-2.717419	1.1753169	-0.20902587	0.97106194	33.537	37.701996	3.6470032	
4.300147923905193	0.0	-0.0034141353348871445	1.79853961	11.987648959999998	4.652274759999999	0.30765380859374997	0.399737548828125	53.43	0.35075054	-10.961852	-2.5450363	0.73060703	0.3560245	0.90508854	33.343	36.796997	3.0570068	
4.310148267914272	0.0	-0.03018814401373896	0.880637170000001	10.35386107	4.297274029999999	0.3076171875	0.39971923828125	53.44	-0.23822308	-11.900379	-0.7685388	0.41906574	0.7060503	0.8177347	33.343	36.796997	3.0570068	
4.320148611923358	0.0	-0.012398702005642788	0.21966895999999975	9.7674234	3.5460846399999992	0.307598876953125	0.399609375	53.45	-0.23822308	-11.900379	-0.7685388	0.25046694	0.80806476	0.7761959	33.965	37.0	2.7850037	
4.330148955932437	0.0	-0.012533470505704122	0.5570177199999996	9.13391381	2.7066354	0.30765380859374997	0.399609375	53.46	-0.33279404	-11.663354	-0.095768064	0.14967418	0.7738563	0.76153517	33.965	37.0	2.7850037	
4.3401492999415225	0.0	-0.010197483171307656	1.2944777999999988	8.50040422	2.1809989599999993	0.30765380859374997	0.39942626953125	53.47	-0.37948096	-11.4359045	-0.075417355	0.06354218	0.71826756	0.73282444	34.026	36.809998	2.816986	
4.350149643950601	0.0	0.009883023337831209	1.908374090000001	8.20032073	1.7651969999999992	0.307598876953125	0.39948120117187497	53.480000000000004	-0.22864626	-11.245565	-0.4237737	0.0024556592	0.6156422	0.67967916	34.026	36.809998	2.816986	
4.36014998795968	0.0	0.020844194676153092	2.2947561	8.472945600000001	1.4670748399999995	0.307635498046875	0.399462890625	53.49	0.17836803	-11.015722	-0.81642276	-0.010983378	0.44093478	0.5917146	35.476	33.862	10.102005	
4.370150331968766	0.0	0.04905573402232581	2.5654196400000004	8.81029436	1.6808598099999998	0.30758056640625	0.399407958984375	53.5	0.60693014	-11.043256	-0.5674258	-0.045802698	0.276612	0.4689307	35.476	33.862	10.102005	
4.380150675977845	0.0	0.08715029670632975	2.6674088	9.084880559999998	2.0692031500000008	0.30758056640625	0.399334716796875	53.51	0.60693014	-11.043256	-0.5674258	-0.15392584	0.19414519	0.33515123	34.378	35.319992	4.177002	
4.390151019986931	0.0	0.091148428874816	2.7595913100000007	9.259438929999998	2.324176050000001	0.3076171875	0.399334716796875	53.52	0.36152446	-11.22282	0.5518635	-0.28220755	0.17520837	0.23313671	34.378	35.319992	4.177002	
4.4001513639960095	0.0	0.09990838137880276	2.539922349999999	9.414383999999998	2.3771319599999994	0.30756225585937497	0.39935302734375	53.53	-0.25737667	-11.310209	1.5490485	-0.32435724	0.22529931	0.16166548	34.877	36.33	3.2860107	
4.410151708005095	0.0	0.09002535804097155	2.063319159999999	9.614439659999999	2.47323713	0.30750732421875	0.3992431640625	53.54	-1.2078748	-11.449073	1.2808979	-0.25105342	0.34930497	0.10729848	34.877	36.33	3.2860107	
4.420152052014174	0.0	0.08876751870706576	1.7259703999999993	9.71054483	2.479121119999999	0.30750732421875	0.3992431640625	53.550000000000004	-1.9153614	-11.541249	-0.18555063	-0.16736488	0.5246233	0.078587815	34.033	36.166	3.3450012	
4.430152396023253	0.0	0.07870480403581943	1.4356935600000007	9.838031280000001	2.557574319999999	0.307489013671875	0.3992431640625	53.56	-2.1631613	-11.500547	-2.0721815	-0.19729728	0.7048285	0.07186829	34.033	36.166	3.3450012	
4.440152740032339	0.0	-0.024078638677625126	0.9335930799999995	9.853721919999998	2.5909169299999997	0.30756225585937497	0.39920654296874997	53.57	-1.6472107	-11.701661	-3.5924997	-0.38422206	0.816006	0.065759644	34.181	35.781998	4.2210083	
4.450153084041418	0.0	-0.09352933904256625	0.34715541000000094	9.73015813	2.80666323	0.30750732421875	0.399188232421875	53.58	-0.18195933	-12.644977	-3.976769	-0.7556281	0.79768	0.03521638	34.181	35.781998	4.2210083	
4.4601534280505035	0.0	-0.13737402439585378	-0.18044235999999972	9.50852784	2.9518016499999993	0.30756225585937497	0.399224853515625	53.59	1.2126632	-13.930662	-1.5263035	-1.3170133	0.6559593	-0.068019845	32.553	35.160995	4.546997	
4.470153772059582	0.0	-0.14159677073110893	-0.45306723000000015	8.955432779999999	3.1381280000000005	0.30756225585937497	0.399188232421875	53.6	1.4903905	-13.47337	1.99437	-1.8185337	0.51607114	-0.25616634	32.553	35.160995	4.546997	
4.480154116068668	0.0	-0.1388115550631747	-0.24124358999999954	8.206204719999999	2.90472973	0.30750732421875	0.399169921875	53.61	0.9816227	-12.354081	2.2816741	-1.948648	0.47269976	-0.49684724	36.23	33.462997	10.764008	
4.490154460077747	0.0	-0.12614331605740925	-0.1490610799999999	7.71194956	2.8027405700000005	0.307489013671875	0.399151611328125	53.620000000000005	-0.3842694	-11.852495	-0.49799395	-1.7916557	0.32548124	-0.75951934	36.23	33.462997	10.764008	
4.500154804086826	0.0	-0.10381666788058146	-0.007845320000000225	7.288302280000001	2.82627653	0.307489013671875	0.399188232421875	53.63	-2.0242975	-11.651382	-2.7928362	-1.7097996	-0.031874947	-0.9348376	31.627	34.550995	6.4039917	
4.510155148095912	0.0	-0.11715874938665359	0.22163028999999954	6.813660420000001	2.934149679999999	0.30750732421875	0.399188232421875	53.64	-3.1603463	-10.890026	-3.1830912	-1.9107744	-0.31287295	-0.9531636	31.627	34.550995	6.4039917	
4.5201554921049905	0.0	-0.10458035604759569	0.5197524499999994	6.34097989	3.0067188899999997	0.307489013671875	0.39913330078125	53.65	-3.4452562	-9.621099	-2.1428106	-2.5979977	-0.18336953	-0.9940915	30.832	34.623	8.199997	
4.530155836114076	0.0	-0.09469733270976448	0.6138962899999999	6.035012409999999	3.00475756	0.30747070312499997	0.399169921875	53.660000000000004	-3.3985693	-9.296685	-1.0726024	-2.8124115	-0.05325523	-1.1639122	30.832	34.623	8.199997	
4.540156180123155	0.0	-0.08553307470559372	0.7453054000000007	5.821227439999999	2.88707776	0.30747070312499997	0.39920654296874997	53.67	-3.406949	-10.126276	0.5327099	-2.828294	0.024935521	-1.3575565	29.248	33.805008	9.567001	
4.550156524132241	0.0	-0.07798603870215899	0.8571012099999992	5.67216636	2.8164698799999988	0.30747070312499997	0.39929809570312497	53.68	-3.8738184	-11.716026	1.6077064	-2.73361	0.0640309	-1.513327	29.248	33.805008	9.567001	
4.56015686814132	0.0	-0.058219992026496574	0.880637170000001	5.527027940000001	2.7792046100000007	0.30743408203125	0.399261474609375	53.69	-3.7948096	-13.007698	2.1547816	-2.6596951	0.07685907	-1.6660434	29.48	32.34401	15.621994	
4.570157212150399	0.0	-0.06181381869479883	0.878675839999999	5.43876809	2.78704993	0.30750732421875	0.3992431640625	53.7	-3.5446155	-13.663709	2.9963434	-2.6322062	0.1782627	-1.7998228	29.48	32.34401	15.621994	
4.5801575561594845	0.0	-0.04564159868743867	1.0002783000000008	5.4524974	2.9733762799999988	0.30750732421875	0.399188232421875	53.71	-3.6128504	-14.050373	3.834314	-2.596776	0.44704342	-1.84014	25.116	34.141006	13.768997	
4.590157900168563	0.0	-0.046540055354514234	1.2003339600000005	5.59371316	2.9694536199999995	0.307452392578125	0.39920654296874997	53.72	-4.158728	-14.018051	3.867833	-2.4849877	0.7280414	-1.7344602	25.116	34.141006	13.768997	
4.600158244177649	0.0	-0.053548017357703634	1.372930999999999	5.625094440000001	3.1381280000000005	0.307525634765625	0.399188232421875	53.730000000000004	-4.983531	-14.032416	3.0178912	-2.261411	0.83738625	-1.4583492	26.599	36.852005	22.272995	
4.610158588186728	0.0	-0.045282216020608446	1.4455002099999996	5.703547639999998	3.2165812000000007	0.30750732421875	0.39920654296874997	53.74	-5.195418	-13.567941	1.6316484	-1.8985571	0.67978305	-1.0954952	26.599	36.852005	22.272995	
4.620158932195814	0.0	-0.0023359873343964674	1.4592295200000003	5.680011679999999	3.387216909999999	0.30750732421875	0.39920654296874997	53.75	-4.0533834	-12.683284	0.6931214	-1.3481674	0.25462085	-0.8370992	25.475	37.569992	18.434006	
4.630159276204893	0.0	-0.039891476018155056	1.44353888	5.65059173	3.4911674000000006	0.30750732421875	0.399169921875	53.76	-1.364695	-11.602302	-0.61291564	-0.751352	-0.32814458	-0.8639773	25.475	37.569992	18.434006	
4.640159620213971	0.0	-0.08679091403949951	1.2964391300000009	5.719238279999999	3.5794272499999997	0.30750732421875	0.3992431640625	53.77	0.427365	-10.771513	-2.0254946	-0.4007154	-0.711768	-1.0337979	27.382	39.548004	18.787003	
4.650159964223057	0.0	-0.06019659669406281	1.216024600000001	5.92713926	3.67553242	0.30756225585937497	0.399261474609375	53.78	-0.32441434	-10.372879	-3.3267434	-0.31519428	-1.0721784	-1.0985495	27.382	39.548004	18.787003	
4.660160308232136	0.0	-0.046180672687684006	1.1846433200000002	6.20564812	3.7618309399999994	0.30750732421875	0.39927978515625	53.79	0.9888053	-9.363723	-4.724957	-0.28648362	-2.3415563	-1.2885287	28.703	39.458	23.244003	
4.670160652241222	0.0	-0.04294622868621198	1.0218529300000005	6.633218059999998	3.85597478	0.3075439453125	0.39929809570312497	53.800000000000004	2.1775265	-8.541314	-7.144298	-0.9456072	-2.9939604	-1.5176032	28.703	39.458	23.244003	
4.680160996250301	0.0	-0.04438375935353288	0.8257199300000004	7.2529983399999995	3.961886599999999	0.30765380859374997	0.399334716796875	53.81	0.6775591	-9.411607	-3.240552	-1.681089	-2.792986	-1.5353181	29.328	41.25	16.772003	
4.690161340259387	0.0	-0.011994396505458783	0.61193496	7.857087979999998	4.32277132	0.30765380859374997	0.399407958984375	53.82	-1.0067618	-9.339781	2.920926	-2.0579927	-2.3213978	-1.5004989	29.328	41.25	16.772003	
4.7001616842684655	0.0	0.004671974668792935	0.5256364400000009	8.61612269	4.518904320000001	0.30765380859374997	0.39942626953125	53.83	-1.0067618	-9.339781	2.920926	-2.1514552	-2.035513	-1.368552	32.347	38.981995	21.287003	
4.710162028277544	0.0	-0.019586355342247303	0.5217137799999991	8.827946329999998	4.795451850000001	0.307635498046875	0.399407958984375	53.84	-2.1547816	-7.799112	0.5530606	-2.1172469	-1.9640417	-1.1828489	32.347	38.981995	21.287003	
4.72016237228663	0.0	-0.04959480802257115	0.5511337300000002	9.0809579	4.8131038199999985	0.30765380859374997	0.39942626953125	53.85	-2.1547816	-7.799112	0.5530606	-2.0628798	-2.125921	-1.0454043	32.445	39.630005	15.192993	
4.730162716295709	0.0	0.00880487533734053	0.5511337300000002	9.241786959999999	4.8366397800000005	0.307635498046875	0.3995361328125	53.86	-1.2485762	-6.1530986	1.3204023	-1.9663631	-2.356828	-0.98615026	32.445	39.630005	15.192993	
4.740163060304795	0.0	-0.020125429342492642	0.7041174700000008	9.58894237	4.911170319999999	0.307672119140625	0.399554443359375	53.870000000000005	-1.2485762	-6.1530986	1.3204023	-1.8295293	-2.4698381	-1.0069197	32.604	38.220993	16.36	
4.750163404313874	0.0	0.007367344670019628	0.9335930799999995	10.089081519999999	4.9817782	0.307708740234375	0.39948120117187497	53.88	-1.5298948	-6.253655	1.9847932	-1.662763	-2.3537736	-1.0496804	32.604	38.220993	16.36	
4.7601637483229595	0.0	-0.010062714671246321	1.1218807600000005	10.491154169999998	5.099458	0.307708740234375	0.399554443359375	53.89	-1.9668367	-6.3362546	1.7393875	-1.4514036	-2.0562823	-1.0331869	36.985	36.655	18.369003	
4.770164092332038	0.0	-0.1996370714241904	1.098344800000001	10.71082313	5.3426629199999995	0.30774536132812497	0.39966430664062497	53.9	-2.0590134	-6.1387334	1.198298	-1.2272161	-1.77223	-0.9458332	36.985	36.655	18.369003	
4.780164436341117	0.0	-0.13701464172902356	0.919863770000001	10.78143101	5.505453309999998	0.307763671875	0.399609375	53.910000000000004	-1.9620483	-5.9388175	0.8678981	-0.9981416	-1.6048529	-0.84687304	31.766	37.56801	12.916	
4.790164780350203	0.0	0.48822135288886165	0.7198081099999991	10.724552439999998	5.581945179999999	0.307781982421875	0.399609375	53.92	-1.9093759	-5.841852	0.79846627	-0.7708997	-1.5437664	-0.7766235	31.766	37.56801	12.916	
4.800165124359282	0.0	0.8546119817222768	0.5452497400000009	10.59902732	5.697663649999999	0.307818603515625	0.3996826171875	53.93	-2.2505496	-5.8562174	0.8355764	-0.56137294	-1.5407121	-0.73997164	34.536	36.628006	16.804993	
4.810165468368368	0.0	0.4147275975220805	0.43149260000000034	10.410739639999997	5.783962170000001	0.30780029296875	0.39975585937499997	53.94	-2.6599581	-5.849035	0.6907272	-0.36895043	-1.5535402	-0.697211	34.536	36.628006	16.804993	
4.8201658123774465	0.0	0.11140862671736998	0.22751428000000107	10.3165958	5.9585205399999985	0.307855224609375	0.39975585937499997	53.95	-2.8167782	-5.45878	0.8619126	-0.18874517	-1.5620923	-0.6306267	32.794	37.892	12.037003	
4.830166156386532	0.0	-0.059118448693572134	0.47856451999999955	10.881458839999999	5.76827153	0.307891845703125	0.399774169921875	53.96	-2.7808652	-4.853047	0.90500826	0.0018447936	-1.4973407	-0.561599	32.794	37.892	12.037003	
4.840166500395611	0.0	-0.09721301137757607	1.4160802600000006	13.503757049999997	6.2017254600000005	0.30791015625	0.399884033203125	53.97	-2.6731262	-4.477157	0.7110779	0.22725406	-1.3763893	-0.49012774	32.651	37.563004	12.350998	
4.85016684440469	0.0	-0.07034915703201669	2.537961019999999	15.68279468	4.079566399999999	0.30802001953124997	0.3999755859375	53.980000000000004	-2.529474	-4.274847	0.58777654	0.49298045	-1.22856	-0.40766093	32.651	37.563004	12.350998	
4.860167188413776	0.0	-0.03126629201422964	1.5631800099999997	13.211518879999998	4.36984324	0.30802001953124997	0.399993896484375	53.99	-2.433706	-4.24492	0.1604115	0.78680664	-0.99459857	-0.316642	36.054	38.994003	13.319	
4.870167532422855	0.0	0.12349286888953633	-0.6197802800000003	12.05825684	4.30708068	0.30791015625	0.39993896484374997	54.0	-2.5342624	-4.4927197	-0.62488663	1.0775784	-0.7178766	-0.21707097	36.054	38.994003	13.319	
4.8801678764319405	0.0	0.21796558743253192	-1.0218529299999994	11.132509080000002	3.1891225799999994	0.307891845703125	0.39993896484374997	54.01	-2.64679	-5.1343656	-1.3814543	1.3433049	-0.47475225	-0.102839164	33.137	38.878006	9.722	
4.890168220441019	0.0	0.21149669942958785	-0.8237585999999996	11.118779769999998	2.322214719999999	0.307965087890625	0.40003051757812497	54.02	-3.027468	-6.341043	-2.767697	1.5564969	-0.2523973	0.020555615	33.137	38.878006	9.722	
4.900168564450105	0.0	0.1856211474178116	-0.17063570999999972	11.199194299999998	1.6082905999999992	0.308074951171875	0.400140380859375	54.03	-2.907758	-7.952341	-5.1367598	1.5992573	-0.07463552	0.17876971	33.371	38.901	9.242004	
4.910168908459184	0.0	0.1983792320902846	0.007845319999999135	10.66178988	1.4768814900000005	0.308056640625	0.400177001953125	54.04	-1.2725182	-9.910798	-7.825448	1.3848437	-0.04531398	0.31316006	33.371	38.901	9.242004	
4.92016925246827	0.0	0.17398613357918305	-0.38049801999999944	10.177341369999997	1.5337600600000008	0.308038330078125	0.40021362304687497	54.050000000000004	0.7661445	-12.33373	-9.431957	0.95601636	-0.23101702	0.30949488	33.633	39.445	9.425995	
4.930169596477349	0.0	0.12093226738837096	-0.8453332300000005	10.1596894	1.5455280399999995	0.30802001953124997	0.40021362304687497	54.06	2.5079262	-14.377181	-9.560047	0.47037843	-0.54866695	0.17510453	33.633	39.445	9.425995	
4.940169940486427	0.0	0.11051017005029441	-0.8316039199999998	10.36759038	1.52003075	0.3079833984375	0.4002685546875	54.07	3.1759086	-15.336059	-9.659407	0.07453776	-0.83577365	-0.05580254	34.224	39.499	8.160004	
4.950170284495513	0.0	0.08984566670755643	-0.6609682100000002	10.206761319999998	1.6161359200000005	0.308038330078125	0.40015869140625	54.08	1.8806454	-15.506047	-9.725247	-0.2040168	-0.9854356	-0.3129768	34.224	39.499	8.160004	
4.960170628504592	0.0	0.07102299953232337	-0.3844206800000001	9.657588919999998	1.77892631	0.30802001953124997	0.4001953125	54.09	-0.095768064	-14.9625635	-10.019734	-0.36833957	-0.8461583	-0.4363716	33.339	38.989	9.2140045	
4.970170972513678	0.0	0.0670248673638371	-0.4550285599999999	9.20844435	1.827959559999999	0.3079833984375	0.40008544921875	54.1	-1.1192893	-13.838486	-10.728417	-0.41232187	-0.5230106	-0.38017198	33.339	38.989	9.2140045	
4.980171316522757	0.0	0.07277499003312071	-0.33538743000000004	9.022117999999999	1.9632913299999992	0.3079833984375	0.400103759765625	54.11	-1.1204864	-12.939463	-10.444705	-0.38055685	-0.20047376	-0.24333817	32.4	39.177002	7.830002	
4.990171660531843	0.0	0.05678246135917567	0.05491724000000048	8.825985	2.0319378800000005	0.30794677734375	0.40008544921875	54.120000000000005	-0.6775591	-12.703634	-10.449493	-0.36711782	0.12328483	-0.11200214	32.4	39.177002	7.830002	
5.0001720045409215	0.0	0.0488760426889107	0.3393100899999996	8.57885742	2.2359161999999997	0.308001708984375	0.3999755859375	54.13	0.25977087	-12.266692	-10.545261	-0.5583186	-0.021490239	-0.044196103	32.863	39.433	8.557007	
5.01017234855	0.0	0.05732153535942101	0.6197802799999992	8.263083289999999	2.33006004	0.30802001953124997	0.3999755859375	54.14	1.0702082	-11.432313	-10.305841	-0.6462832	-0.48330435	-0.12605205	32.863	39.433	8.557007	
5.020172692559086	0.0	0.023000490677134448	0.7296147600000001	7.88846926	2.5046184100000004	0.3079833984375	0.399993896484375	54.15	1.602918	-10.287885	-9.362526	-0.6462832	-1.006205	-0.2182927	34.065	37.65599	17.386993	
5.030173036568165	0.0	-0.014554998006624143	0.702156140000001	7.539352519999999	2.479121119999999	0.307965087890625	0.399993896484375	54.160000000000004	1.9249382	-8.767567	-7.575254	-0.5674816	-1.3531765	-0.2836553	34.065	37.65599	17.386993	
5.040173380577251	0.0	-0.0362976493498528	0.5687857000000005	7.143163859999999	2.5713036299999996	0.30791015625	0.399993896484375	54.17	1.7776948	-6.799533	-5.722142	-0.49478865	-1.441141	-0.25922066	33.944	38.99901	8.882996	
5.05017372458633	0.0	-0.05098741585653828	0.40011131999999944	6.9274175599999985	2.5987622499999987	0.30794677734375	0.399993896484375	54.18	-2.3175871	-4.655525	-1.6519991	-0.39338502	-1.3195789	-0.12360858	33.944	38.99901	8.882996	
5.0601740685954155	0.0	-0.05026865052287783	0.31185147000000046	6.77247249	2.5654196400000004	0.30792846679687497	0.3999755859375	54.19	-5.7808	-8.995016	5.913678	0.02139248	-0.6848899	0.03643811	34.62	38.927002	8.959	
5.070174412604494	0.0	-0.06648579336359177	0.2981221599999998	6.644986039999999	2.463430480000001	0.30791015625	0.399957275390625	54.2	-7.727286	-13.286622	2.967613	0.50458694	0.85876656	0.35775322	34.62	38.927002	8.959	
5.080174756613573	0.0	-0.057680918026251235	0.19417167000000038	6.574378160000001	2.738016679999999	0.30791015625	0.399884033203125	54.21	-7.727286	-13.286622	2.967613	0.6047688	1.6901542	0.6515794	33.574	38.824997	8.302994	
5.090175100622659	0.0	-0.05947783136040236	0.039226600000000035	6.291946639999999	2.5928782599999995	0.30787353515625	0.39986572265625	54.22	-9.14585	-17.551893	-2.9257145	0.56384087	1.3834999	0.69739425	33.574	38.824997	8.302994	
5.100175444631738	0.0	-0.06257750686181306	-0.13337043999999945	6.252720039999999	2.4653918100000007	0.307891845703125	0.399884033203125	54.230000000000004	-9.14585	-17.551893	-2.9257145	0.5833885	0.9192422	0.55811703	33.581	38.714996	8.072998	
5.110175788640824	0.0	-0.059612599860463696	-0.18044235999999972	6.2841013199999995	2.463430480000001	0.307891845703125	0.39986572265625	54.24	-3.8881836	-13.1238165	-0.9983821	0.80085653	0.17337577	0.3473685	33.581	38.714996	8.072998	
5.1201761326499025	0.0	-0.06774363269749756	-0.24908890999999977	6.333134569999999	2.5340383599999994	0.30792846679687497	0.39986572265625	54.25	-2.2505496	-11.261127	0.044292733	0.93158174	-0.5969253	0.3033862	37.313	39.880997	11.291992	
5.130176476658988	0.0	-0.07277499003312071	-0.32558078000000007	6.32332792	2.5261930400000003	0.307855224609375	0.399884033203125	54.26	-2.3570917	-9.868899	0.89782566	0.68662477	-0.40450275	0.3443142	37.313	39.880997	11.291992	
5.140176820668067	0.0	-0.08032202603655546	-0.3216581200000005	6.36843851	2.5340383599999994	0.30787353515625	0.39990234375	54.27	-4.24492	-8.177396	1.532289	0.24069309	0.31692913	0.5098587	35.364	38.77501	8.541992	
5.150177164677146	0.0	-0.10458035604759569	-0.34519408000000007	6.478272990000001	2.479121119999999	0.307855224609375	0.39993896484374997	54.28	-4.3047748	-7.0940194	1.2916719	0.042161897	0.80806476	0.8525541	35.364	38.77501	8.541992	
5.160177508686232	0.0	-0.11293600305139843	-0.41187930000000034	6.588107469999999	2.5418836800000006	0.307891845703125	0.39986572265625	54.29	-1.3467385	-6.31351	4.0174704	0.23641703	1.0762347	1.1494346	35.845	38.763992	8.8880005	
5.170177852695311	0.0	-0.13764356139597647	-0.43149260000000034	6.75482052	2.6085689	0.30787353515625	0.39986572265625	54.300000000000004	1.6891093	-6.453571	6.7468605	0.7617612	1.3889977	1.2001364	35.845	38.763992	8.8880005	
5.1801781967043965	0.0	-0.14033893139720316	-0.45698988999999973	6.888190959999998	2.5909169299999997	0.30791015625	0.39990234375	54.31	1.6891093	-6.453571	6.7468605	1.4734192	1.5496552	1.0669677	36.615	39.298004	8.121994	
5.190178540713475	0.0	-0.11697905805323848	-0.6178189499999994	6.968605489999999	2.6536794899999996	0.307891845703125	0.39993896484374997	54.32	2.6503813	-9.208099	8.887277	2.1643078	1.6315112	0.9093646	36.615	39.298004	8.121994	
5.200178884722561	0.0	-0.07268514436641316	-0.6138962899999999	6.99998677	2.7242873700000003	0.30792846679687497	0.399920654296875	54.33	1.508347	-11.498154	5.9771247	2.7275255	1.7286388	0.83789337	36.894	40.639	8.4900055	
