# OpenSignals Text File Format
# {"00:07:80:4D:2E:AD": {"sensor": ["RAW"], "device name": "00:07:80:4D:2E:AD", "column": ["nSeq", "DI", "CH1"], "sync interval": 2, "time": "15:28:36.301", "comments": "", "device connection": "BTH00:07:80:4D:2E:AD", "channels": [1], "keywords": "", "mode": 1, "digital IO": [0, 1], "firmware version": 773, "device": "biosignalsplux", "position": 0, "sampling rate": 1000, "label": ["CH1"], "resolution": [16], "date": "2019-3-15", "special": [{}]}, "00:07:80:D8:A8:82": {"sensor": ["RAW"], "device name": "00:07:80:D8:A8:82", "column": ["nSeq", "DI", "CH1"], "sync interval": 2, "time": "15:28:36.301", "comments": "", "device connection": "BTH00:07:80:D8:A8:82", "channels": [1], "keywords": "", "mode": 1, "digital IO": [0, 1], "firmware version": 773, "device": "biosignalsplux", "position": 1, "sampling rate": 1000, "label": ["CH1"], "resolution": [16], "date": "2019-3-15", "special": [{}]}}
# EndOfHeader
2916	1	38564	2156	1	43818	
2917	1	38728	2157	1	43631	
2918	1	38764	2158	1	43546	
2919	1	38480	2159	1	43692	
2920	1	38572	2160	1	43820	
2921	1	38740	2161	1	43620	
2922	1	38764	2162	1	43544	
2923	1	38492	2163	1	43700	
2924	1	38568	2164	1	43824	
2925	1	38736	2165	1	43624	
2926	1	38764	2166	1	43544	
2927	1	38476	2167	1	43698	
2928	1	38568	2168	1	43826	
2929	1	38732	2169	1	43620	
2930	1	38760	2170	1	43550	
2931	1	38476	2171	1	43700	
2932	1	38556	2172	1	43830	
2933	1	38728	2173	1	43612	
2934	1	38756	2174	1	43554	
2935	1	38476	2175	1	43698	
2936	1	38556	2176	1	43820	
2937	1	38732	2177	1	43612	
2938	1	38764	2178	1	43542	
2939	1	38488	2179	1	43711	
2940	1	38568	2180	1	43835	
2941	1	38720	2181	1	43622	
2942	1	38772	2182	1	43558	
2943	1	38476	2183	1	43706	
2944	1	38564	2184	1	43828	
2945	1	38736	2185	1	43615	
2946	1	38768	2186	1	43550	
2947	1	38480	2187	1	43702	
2948	1	38560	2188	1	43828	
2949	1	38732	2189	1	43596	
2950	1	38764	2190	1	43552	
2951	1	38472	2191	1	43710	
2952	1	38560	2192	1	43828	
2953	1	38728	2193	1	43600	
2954	1	38764	2194	1	43556	
2955	1	38484	2195	1	43710	
2956	1	38552	2196	1	43831	
2957	1	38728	2197	1	43600	
2958	1	38768	2198	1	43556	
2959	1	38476	2199	1	43717	
2960	1	38568	2200	1	43828	
2961	1	38728	2201	1	43598	
2962	1	38776	2202	1	43560	
2963	1	38488	2203	1	43712	
2964	1	38560	2204	1	43834	
2965	1	38732	2205	1	43591	
2966	1	38768	2206	1	43570	
2967	1	38484	2207	1	43719	
2968	1	38560	2208	1	43837	
2969	1	38724	2209	1	43590	
2970	1	38768	2210	1	43568	
2971	1	38476	2211	1	43715	
2972	1	38564	2212	1	43836	
2973	1	38736	2213	1	43582	
2974	1	38756	2214	1	43567	
2975	1	38476	2215	1	43712	
2976	1	38560	2216	1	43828	
2977	1	38736	2217	1	43576	
2978	1	38756	2218	1	43570	
2979	1	38484	2219	1	43718	
2980	1	38564	2220	1	43843	
2981	1	38736	2221	1	43591	
2982	1	38776	2222	1	43576	
2983	1	38488	2223	1	43724	
2984	1	38568	2224	1	43834	
2985	1	38748	2225	1	43591	
2986	1	38776	2226	1	43582	
2987	1	38484	2227	1	43734	
2988	1	38568	2228	1	43824	
2989	1	38740	2229	1	43578	
2990	1	38768	2230	1	43586	
2991	1	38484	2231	1	43734	
2992	1	38560	2232	1	43828	
2993	1	38744	2233	1	43591	
2994	1	38780	2234	1	43588	
2995	1	38492	2235	1	43736	
2996	1	38576	2236	1	43830	
2997	1	38736	2237	1	43591	
2998	1	38784	2238	1	43601	
2999	1	38500	2239	1	43746	
3000	1	38576	2240	1	43833	
3001	1	38740	2241	1	43584	
3002	1	38784	2242	1	43591	
3003	1	38508	2243	1	43744	
3004	1	38588	2244	1	43826	
3005	1	38764	2245	1	43580	
3006	1	38790	2246	1	43601	
3007	1	38508	2247	1	43748	
3008	1	38584	2248	1	43838	
3009	1	38748	2249	1	43587	
3010	1	38768	2250	1	43604	
3011	1	38508	2251	1	43744	
3012	1	38588	2252	1	43822	
3013	1	38748	2253	1	43576	
3014	1	38784	2254	1	43607	
3015	1	38492	2255	1	43738	
3016	1	38588	2256	1	43827	
3017	1	38748	2257	1	43584	
3018	1	38784	2258	1	43607	
3019	1	38496	2259	1	43746	
3020	1	38584	2260	1	43805	
3021	1	38760	2261	1	43564	
3022	1	38792	2262	1	43604	
3023	1	38512	2263	1	43750	
3024	1	38584	2264	1	43818	
3025	1	38764	2265	1	43578	
3026	1	38788	2266	1	43616	
3027	1	38512	2267	1	43748	
3028	1	38588	2268	1	43815	
3029	1	38768	2269	1	43572	
3030	1	38778	2270	1	43624	
3031	1	38508	2271	1	43764	
3032	1	38604	2272	1	43814	
3033	1	38768	2273	1	43561	
3034	1	38788	2274	1	43610	
3035	1	38504	2275	1	43749	
3036	1	38576	2276	1	43797	
3037	1	38752	2277	1	43556	
3038	1	38784	2278	1	43616	
3039	1	38488	2279	1	43758	
3040	1	38592	2280	1	43792	
3041	1	38748	2281	1	43574	
3042	1	38784	2282	1	43628	
3043	1	38508	2283	1	43766	
3044	1	38592	2284	1	43807	
3045	1	38760	2285	1	43564	
3046	1	38780	2286	1	43618	
3047	1	38500	2287	1	43769	
3048	1	38584	2288	1	43798	
3049	1	38764	2289	1	43560	
3050	1	38788	2290	1	43630	
3051	1	38508	2291	1	43764	
3052	1	38592	2292	1	43799	
3053	1	38752	2293	1	43564	
3054	1	38792	2294	1	43620	
3055	1	38500	2295	1	43769	
3056	1	38584	2296	1	43776	
3057	1	38748	2297	1	43559	
3058	1	38776	2298	1	43623	
3059	1	38496	2299	1	43760	
3060	1	38573	2300	1	43778	
3061	1	38756	2301	1	43544	
3062	1	38784	2302	1	43620	
3063	1	38500	2303	1	43768	
3064	1	38592	2304	1	43782	
3065	1	38760	2305	1	43540	
3066	1	38791	2306	1	43628	
3067	1	38496	2307	1	43768	
3068	1	38584	2308	1	43783	
3069	1	38752	2309	1	43541	
3070	1	38784	2310	1	43632	
3071	1	38500	2311	1	43764	
3072	1	38580	2312	1	43783	
3073	1	38748	2313	1	43548	
3074	1	38780	2314	1	43620	
3075	1	38492	2315	1	43764	
3076	1	38584	2316	1	43773	
3077	1	38746	2317	1	43524	
3078	1	38776	2318	1	43620	
3079	1	38492	2319	1	43764	
3080	1	38572	2320	1	43768	
3081	1	38756	2321	1	43527	
3082	1	38768	2322	1	43620	
3083	1	38496	2323	1	43776	
3084	1	38584	2324	1	43768	
3085	1	38752	2325	1	43527	
3086	1	38784	2326	1	43642	
3087	1	38496	2327	1	43756	
3088	1	38568	2328	1	43762	
3089	1	38752	2329	1	43527	
3090	1	38777	2330	1	43624	
3091	1	38500	2331	1	43780	
3092	1	38584	2332	1	43760	
3093	1	38752	2333	1	43527	
3094	1	38772	2334	1	43634	
3095	1	38492	2335	1	43780	
3096	1	38584	2336	1	43748	
3097	1	38748	2337	1	43524	
3098	1	38760	2338	1	43624	
3099	1	38488	2339	1	43768	
3100	1	38576	2340	1	43746	
3101	1	38748	2341	1	43527	
3102	1	38780	2342	1	43649	
3103	1	38500	2343	1	43776	
3104	1	38588	2344	1	43752	
3105	1	38748	2345	1	43521	
3106	1	38776	2346	1	43641	
3107	1	38488	2347	1	43764	
3108	1	38592	2348	1	43749	
3109	1	38752	2349	1	43521	
3110	1	38784	2350	1	43655	
3111	1	38500	2351	1	43780	
3112	1	38592	2352	1	43740	
3113	1	38756	2353	1	43527	
3114	1	38776	2354	1	43648	
3115	1	38500	2355	1	43788	
3116	1	38578	2356	1	43746	
3117	1	38740	2357	1	43520	
3118	1	38788	2358	1	43642	
3119	1	38480	2359	1	43780	
3120	1	38580	2360	1	43736	
3121	1	38744	2361	1	43508	
3122	1	38788	2362	1	43644	
3123	1	38504	2363	1	43799	
3124	1	38585	2364	1	43748	
3125	1	38756	2365	1	43525	
3126	1	38798	2366	1	43655	
3127	1	38500	2367	1	43792	
3128	1	38592	2368	1	43740	
3129	1	38752	2369	1	43521	
3130	1	38796	2370	1	43670	
3131	1	38508	2371	1	43798	
3132	1	38592	2372	1	43744	
3133	1	38768	2373	1	43526	
3134	1	38796	2374	1	43668	
3135	1	38520	2375	1	43792	
3136	1	38592	2376	1	43738	
3137	1	38748	2377	1	43527	
3138	1	38792	2378	1	43655	
3139	1	38496	2379	1	43784	
3140	1	38592	2380	1	43730	
3141	1	38760	2381	1	43500	
3142	1	38800	2382	1	43655	
3143	1	38516	2383	1	43797	
3144	1	38588	2384	1	43744	
3145	1	38760	2385	1	43527	
3146	1	38796	2386	1	43666	
3147	1	38508	2387	1	43807	
3148	1	38600	2388	1	43744	
3149	1	38760	2389	1	43520	
3150	1	38804	2390	1	43671	
3151	1	38528	2391	1	43805	
3152	1	38596	2392	1	43744	
3153	1	38765	2393	1	43524	
3154	1	38804	2394	1	43674	
3155	1	38516	2395	1	43806	
3156	1	38596	2396	1	43728	
3157	1	38764	2397	1	43513	
3158	1	38792	2398	1	43686	
3159	1	38516	2399	1	43815	
3160	1	38596	2400	1	43722	
3161	1	38776	2401	1	43513	
3162	1	38800	2402	1	43680	
3163	1	38524	2403	1	43812	
3164	1	38608	2404	1	43728	
3165	1	38772	2405	1	43510	
3166	1	38800	2406	1	43695	
3167	1	38508	2407	1	43812	
3168	1	38604	2408	1	43730	
3169	1	38764	2409	1	43508	
3170	1	38800	2410	1	43690	
3171	1	38516	2411	1	43808	
3172	1	38612	2412	1	43735	
3173	1	38784	2413	1	43507	
3174	1	38804	2414	1	43680	
3175	1	38516	2415	1	43825	
3176	1	38612	2416	1	43724	
3177	1	38764	2417	1	43500	
3178	1	38800	2418	1	43672	
3179	1	38512	2419	1	43814	
3180	1	38600	2420	1	43726	
3181	1	38772	2421	1	43508	
3182	1	38808	2422	1	43688	
3183	1	38532	2423	1	43821	
3184	1	38604	2424	1	43718	
3185	1	38768	2425	1	43520	
3186	1	38804	2426	1	43692	
3187	1	38512	2427	1	43814	
3188	1	38604	2428	1	43718	
3189	1	38768	2429	1	43520	
3190	1	38796	2430	1	43702	
3191	1	38512	2431	1	43822	
3192	1	38596	2432	1	43719	
3193	1	38772	2433	1	43527	
3194	1	38804	2434	1	43696	
3195	1	38524	2435	1	43820	
3196	1	38608	2436	1	43700	
3197	1	38764	2437	1	43512	
3198	1	38792	2438	1	43690	
3199	1	38504	2439	1	43820	
3200	1	38592	2440	1	43693	
3201	1	38756	2441	1	43518	
3202	1	38788	2442	1	43694	
3203	1	38500	2443	1	43816	
3204	1	38598	2444	1	43709	
3205	1	38768	2445	1	43526	
3206	1	38788	2446	1	43698	
3207	1	38504	2447	1	43821	
3208	1	38588	2448	1	43698	
3209	1	38764	2449	1	43526	
3210	1	38792	2450	1	43698	
3211	1	38512	2451	1	43832	
3212	1	38612	2452	1	43686	
3213	1	38766	2453	1	43527	
3214	1	38792	2454	1	43704	
3215	1	38500	2455	1	43826	
3216	1	38592	2456	1	43685	
3217	1	38768	2457	1	43527	
3218	1	38789	2458	1	43715	
3219	1	38512	2459	1	43837	
3220	1	38592	2460	1	43676	
3221	1	38756	2461	1	43546	
3222	1	38796	2462	1	43698	
3223	1	38492	2463	1	43828	
3224	1	38600	2464	1	43671	
3225	1	38764	2465	1	43543	
3226	1	38772	2466	1	43696	
3227	1	38496	2467	1	43824	
3228	1	38592	2468	1	43655	
3229	1	38756	2469	1	43554	
3230	1	38788	2470	1	43705	
3231	1	38504	2471	1	43828	
3232	1	38588	2472	1	43664	
3233	1	38776	2473	1	43549	
3234	1	38788	2474	1	43708	
3235	1	38508	2475	1	43839	
3236	1	38596	2476	1	43664	
3237	1	38764	2477	1	43544	
3238	1	38788	2478	1	43716	
3239	1	38500	2479	1	43834	
3240	1	38592	2480	1	43655	
3241	1	38768	2481	1	43552	
3242	1	38780	2482	1	43716	
3243	1	38500	2483	1	43834	
3244	1	38592	2484	1	43654	
3245	1	38748	2485	1	43559	
3246	1	38784	2486	1	43708	
3247	1	38500	2487	1	43834	
3248	1	38592	2488	1	43654	
3249	1	38768	2489	1	43567	
3250	1	38796	2490	1	43710	
3251	1	38500	2491	1	43843	
3252	1	38592	2492	1	43655	
3253	1	38772	2493	1	43564	
3254	1	38804	2494	1	43716	
3255	1	38512	2495	1	43836	
3256	1	38600	2496	1	43654	
3257	1	38776	2497	1	43564	
3258	1	38796	2498	1	43720	
3259	1	38516	2499	1	43846	
3260	1	38604	2500	1	43666	
3261	1	38768	2501	1	43566	
3262	1	38792	2502	1	43719	
3263	1	38508	2503	1	43847	
3264	1	38588	2504	1	43654	
3265	1	38756	2505	1	43565	
3266	1	38788	2506	1	43719	
3267	1	38508	2507	1	43837	
3268	1	38584	2508	1	43654	
3269	1	38752	2509	1	43576	
3270	1	38804	2510	1	43732	
3271	1	38512	2511	1	43840	
3272	1	38600	2512	1	43654	
3273	1	38764	2513	1	43572	
3274	1	38808	2514	1	43747	
3275	1	38520	2515	1	43847	
3276	1	38588	2516	1	43655	
3277	1	38764	2517	1	43576	
3278	1	38808	2518	1	43728	
3279	1	38516	2519	1	43848	
3280	1	38600	2520	1	43655	
3281	1	38764	2521	1	43585	
3282	1	38804	2522	1	43734	
3283	1	38516	2523	1	43853	
3284	1	38584	2524	1	43654	
3285	1	38760	2525	1	43564	
3286	1	38804	2526	1	43721	
3287	1	38516	2527	1	43858	
3288	1	38600	2528	1	43650	
3289	1	38764	2529	1	43584	
3290	1	38812	2530	1	43736	
3291	1	38524	2531	1	43840	
3292	1	38596	2532	1	43655	
3293	1	38776	2533	1	43582	
3294	1	38800	2534	1	43738	
3295	1	38520	2535	1	43860	
3296	1	38608	2536	1	43655	
3297	1	38772	2537	1	43583	
3298	1	38792	2538	1	43746	
3299	1	38532	2539	1	43868	
3300	1	38604	2540	1	43652	
3301	1	38772	2541	1	43586	
3302	1	38804	2542	1	43746	
3303	1	38520	2543	1	43866	
3304	1	38616	2544	1	43655	
3305	1	38764	2545	1	43588	
3306	1	38796	2546	1	43728	
3307	1	38520	2547	1	43852	
3308	1	38596	2548	1	43640	
3309	1	38768	2549	1	43584	
3310	1	38804	2550	1	43738	
3311	1	38516	2551	1	43860	
3312	1	38612	2552	1	43650	
3313	1	38776	2553	1	43596	
3314	1	38808	2554	1	43751	
3315	1	38520	2555	1	43871	
3316	1	38600	2556	1	43640	
3317	1	38776	2557	1	43588	
3318	1	38788	2558	1	43744	
3319	1	38520	2559	1	43874	
3320	1	38600	2560	1	43648	
3321	1	38772	2561	1	43596	
3322	1	38800	2562	1	43746	
3323	1	38524	2563	1	43864	
3324	1	38612	2564	1	43647	
3325	1	38776	2565	1	43591	
3326	1	38792	2566	1	43728	
3327	1	38512	2567	1	43860	
3328	1	38592	2568	1	43638	
3329	1	38772	2569	1	43591	
3330	1	38792	2570	1	43738	
3331	1	38505	2571	1	43866	
3332	1	38612	2572	1	43648	
3333	1	38768	2573	1	43590	
3334	1	38792	2574	1	43744	
3335	1	38516	2575	1	43868	
3336	1	38600	2576	1	43653	
3337	1	38772	2577	1	43586	
3338	1	38792	2578	1	43739	
3339	1	38512	2579	1	43868	
3340	1	38608	2580	1	43644	
3341	1	38780	2581	1	43602	
3342	1	38788	2582	1	43740	
3343	1	38520	2583	1	43860	
3344	1	38600	2584	1	43644	
3345	1	38780	2585	1	43591	
3346	1	38788	2586	1	43746	
3347	1	38496	2587	1	43856	
3348	1	38592	2588	1	43638	
3349	1	38764	2589	1	43591	
3350	1	38776	2590	1	43736	
3351	1	38500	2591	1	43862	
3352	1	38616	2592	1	43628	
3353	1	38766	2593	1	43602	
3354	1	38792	2594	1	43750	
3355	1	38504	2595	1	43862	
3356	1	38612	2596	1	43638	
3357	1	38772	2597	1	43602	
3358	1	38768	2598	1	43750	
3359	1	38492	2599	1	43870	
3360	1	38608	2600	1	43630	
3361	1	38760	2601	1	43598	
3362	1	38788	2602	1	43761	
3363	1	38505	2603	1	43869	
3364	1	38604	2604	1	43628	
3365	1	38780	2605	1	43607	
3366	1	38772	2606	1	43746	
3367	1	38496	2607	1	43864	
3368	1	38600	2608	1	43623	
3369	1	38756	2609	1	43592	
3370	1	38776	2610	1	43748	
3371	1	38500	2611	1	43868	
3372	1	38600	2612	1	43631	
3373	1	38768	2613	1	43600	
3374	1	38780	2614	1	43759	
3375	1	38508	2615	1	43864	
3376	1	38608	2616	1	43634	
3377	1	38768	2617	1	43593	
3378	1	38784	2618	1	43748	
3379	1	38504	2619	1	43874	
3380	1	38592	2620	1	43632	
3381	1	38776	2621	1	43606	
3382	1	38800	2622	1	43756	
3383	1	38512	2623	1	43883	
3384	1	38608	2624	1	43636	
3385	1	38768	2625	1	43606	
3386	1	38796	2626	1	43750	
3387	1	38524	2627	1	43879	
3388	1	38612	2628	1	43625	
3389	1	38768	2629	1	43600	
3390	1	38796	2630	1	43762	
3391	1	38520	2631	1	43878	
3392	1	38612	2632	1	43628	
3393	1	38772	2633	1	43613	
3394	1	38808	2634	1	43760	
3395	1	38512	2635	1	43884	
3396	1	38612	2636	1	43628	
3397	1	38772	2637	1	43623	
3398	1	38804	2638	1	43756	
3399	1	38524	2639	1	43884	
3400	1	38608	2640	1	43628	
3401	1	38784	2641	1	43620	
3402	1	38808	2642	1	43768	
3403	1	38528	2643	1	43887	
3404	1	38624	2644	1	43636	
3405	1	38788	2645	1	43634	
3406	1	38796	2646	1	43780	
3407	1	38528	2647	1	43864	
3408	1	38624	2648	1	43622	
3409	1	38780	2649	1	43630	
3410	1	38796	2650	1	43774	
3411	1	38532	2651	1	43868	
3412	1	38624	2652	1	43625	
3413	1	38788	2653	1	43632	
3414	1	38800	2654	1	43783	
3415	1	38528	2655	1	43872	
3416	1	38632	2656	1	43628	
3417	1	38792	2657	1	43640	
3418	1	38816	2658	1	43780	
3419	1	38532	2659	1	43877	
3420	1	38626	2660	1	43632	
3421	1	38796	2661	1	43644	
3422	1	38828	2662	1	43794	
3423	1	38532	2663	1	43877	
3424	1	38646	2664	1	43630	
3425	1	38804	2665	1	43652	
3426	1	38822	2666	1	43783	
3427	1	38536	2667	1	43865	
3428	1	38628	2668	1	43628	
3429	1	38804	2669	1	43642	
3430	1	38825	2670	1	43794	
3431	1	38548	2671	1	43876	
3432	1	38640	2672	1	43634	
3433	1	38800	2673	1	43655	
3434	1	38828	2674	1	43795	
3435	1	38528	2675	1	43868	
3436	1	38640	2676	1	43616	
3437	1	38800	2677	1	43652	
3438	1	38824	2678	1	43790	
3439	1	38548	2679	1	43874	
3440	1	38636	2680	1	43620	
3441	1	38820	2681	1	43655	
3442	1	38828	2682	1	43808	
3443	1	38548	2683	1	43864	
3444	1	38640	2684	1	43634	
3445	1	38816	2685	1	43678	
3446	1	38840	2686	1	43806	
3447	1	38560	2687	1	43864	
3448	1	38632	2688	1	43624	
3449	1	38820	2689	1	43655	
3450	1	38828	2690	1	43804	
3451	1	38544	2691	1	43856	
3452	1	38644	2692	1	43627	
3453	1	38808	2693	1	43666	
3454	1	38828	2694	1	43812	
3455	1	38556	2695	1	43868	
3456	1	38648	2696	1	43626	
3457	1	38808	2697	1	43668	
3458	1	38832	2698	1	43812	
3459	1	38564	2699	1	43870	
3460	1	38644	2700	1	43626	
3461	1	38824	2701	1	43672	
3462	1	38828	2702	1	43822	
3463	1	38556	2703	1	43872	
3464	1	38662	2704	1	43626	
3465	1	38816	2705	1	43672	
3466	1	38840	2706	1	43813	
3467	1	38552	2707	1	43866	
3468	1	38644	2708	1	43630	
3469	1	38816	2709	1	43682	
3470	1	38832	2710	1	43812	
3471	1	38536	2711	1	43856	
3472	1	38640	2712	1	43614	
3473	1	38816	2713	1	43674	
3474	1	38828	2714	1	43810	
3475	1	38540	2715	1	43846	
3476	1	38636	2716	1	43611	
3477	1	38804	2717	1	43674	
3478	1	38828	2718	1	43804	
3479	1	38552	2719	1	43858	
3480	1	38632	2720	1	43618	
3481	1	38808	2721	1	43680	
3482	1	38832	2722	1	43816	
3483	1	38560	2723	1	43854	
3484	1	38663	2724	1	43612	
3485	1	38824	2725	1	43680	
3486	1	38832	2726	1	43816	
3487	1	38560	2727	1	43846	
3488	1	38648	2728	1	43608	
3489	1	38820	2729	1	43668	
3490	1	38824	2730	1	43816	
3491	1	38540	2731	1	43847	
3492	1	38662	2732	1	43604	
3493	1	38812	2733	1	43680	
3494	1	38836	2734	1	43808	
3495	1	38540	2735	1	43841	
3496	1	38636	2736	1	43600	
3497	1	38808	2737	1	43668	
3498	1	38818	2738	1	43821	
3499	1	38548	2739	1	43838	
3500	1	38644	2740	1	43598	
3501	1	38808	2741	1	43683	
3502	1	38824	2742	1	43814	
3503	1	38544	2743	1	43832	
3504	1	38652	2744	1	43604	
3505	1	38820	2745	1	43684	
3506	1	38808	2746	1	43824	
3507	1	38548	2747	1	43842	
3508	1	38660	2748	1	43606	
3509	1	38800	2749	1	43677	
3510	1	38824	2750	1	43821	
3511	1	38544	2751	1	43834	
3512	1	38648	2752	1	43594	
3513	1	38820	2753	1	43680	
3514	1	38816	2754	1	43816	
3515	1	38556	2755	1	43836	
3516	1	38644	2756	1	43599	
3517	1	38812	2757	1	43682	
3518	1	38820	2758	1	43817	
3519	1	38544	2759	1	43824	
3520	1	38656	2760	1	43600	
3521	1	38828	2761	1	43680	
3522	1	38828	2762	1	43830	
3523	1	38548	2763	1	43828	
3524	1	38668	2764	1	43606	
3525	1	38820	2765	1	43692	
3526	1	38836	2766	1	43828	
3527	1	38540	2767	1	43834	
3528	1	38656	2768	1	43611	
3529	1	38828	2769	1	43688	
3530	1	38836	2770	1	43816	
3531	1	38556	2771	1	43828	
3532	1	38656	2772	1	43610	
3533	1	38836	2773	1	43691	
3534	1	38828	2774	1	43822	
3535	1	38540	2775	1	43826	
3536	1	38662	2776	1	43596	
3537	1	38832	2777	1	43692	
3538	1	38828	2778	1	43820	
3539	1	38552	2779	1	43832	
3540	1	38664	2780	1	43607	
3541	1	38828	2781	1	43711	
3542	1	38836	2782	1	43834	
3543	1	38560	2783	1	43828	
3544	1	38672	2784	1	43598	
3545	1	38820	2785	1	43709	
3546	1	38832	2786	1	43826	
3547	1	38556	2787	1	43837	
3548	1	38664	2788	1	43606	
3549	1	38836	2789	1	43706	
3550	1	38836	2790	1	43844	
3551	1	38560	2791	1	43833	
3552	1	38664	2792	1	43600	
3553	1	38846	2793	1	43712	
3554	1	38844	2794	1	43846	
3555	1	38560	2795	1	43837	
3556	1	38676	2796	1	43591	
3557	1	38824	2797	1	43709	
3558	1	38832	2798	1	43844	
3559	1	38552	2799	1	43820	
3560	1	38676	2800	1	43604	
3561	1	38836	2801	1	43718	
3562	1	38848	2802	1	43848	
3563	1	38572	2803	1	43828	
3564	1	38672	2804	1	43600	
3565	1	38836	2805	1	43730	
3566	1	38848	2806	1	43850	
3567	1	38560	2807	1	43837	
3568	1	38684	2808	1	43606	
3569	1	38846	2809	1	43718	
3570	1	38848	2810	1	43860	
3571	1	38576	2811	1	43828	
3572	1	38688	2812	1	43606	
3573	1	38844	2813	1	43721	
3574	1	38848	2814	1	43856	
3575	1	38560	2815	1	43814	
3576	1	38672	2816	1	43586	
3577	1	38836	2817	1	43724	
3578	1	38836	2818	1	43860	
3579	1	38560	2819	1	43813	
3580	1	38684	2820	1	43596	
3581	1	38848	2821	1	43724	
3582	1	38844	2822	1	43871	
3583	1	38576	2823	1	43816	
3584	1	38688	2824	1	43600	
3585	1	38848	2825	1	43724	
3586	1	38852	2826	1	43865	
3587	1	38560	2827	1	43814	
3588	1	38692	2828	1	43603	
3589	1	38844	2829	1	43732	
3590	1	38840	2830	1	43864	
3591	1	38580	2831	1	43816	
3592	1	38684	2832	1	43591	
3593	1	38852	2833	1	43736	
3594	1	38848	2834	1	43856	
3595	1	38560	2835	1	43816	
3596	1	38672	2836	1	43586	
3597	1	38848	2837	1	43738	
3598	1	38828	2838	1	43862	
3599	1	38552	2839	1	43805	
3600	1	38676	2840	1	43576	
3601	1	38856	2841	1	43738	
3602	1	38844	2842	1	43874	
3603	1	38560	2843	1	43805	
3604	1	38688	2844	1	43570	
3605	1	38848	2845	1	43739	
3606	1	38836	2846	1	43876	
3607	1	38556	2847	1	43800	
3608	1	38684	2848	1	43578	
3609	1	38852	2849	1	43740	
3610	1	38844	2850	1	43868	
3611	1	38568	2851	1	43808	
3612	1	38692	2852	1	43582	
3613	1	38846	2853	1	43741	
3614	1	38844	2854	1	43872	
3615	1	38552	2855	1	43810	
3616	1	38680	2856	1	43577	
3617	1	38848	2857	1	43736	
3618	1	38820	2858	1	43860	
3619	1	38556	2859	1	43794	
3620	1	38684	2860	1	43578	
3621	1	38856	2861	1	43746	
3622	1	38830	2862	1	43870	
3623	1	38564	2863	1	43786	
3624	1	38680	2864	1	43564	
3625	1	38848	2865	1	43736	
3626	1	38832	2866	1	43876	
3627	1	38556	2867	1	43792	
3628	1	38684	2868	1	43586	
3629	1	38844	2869	1	43738	
3630	1	38816	2870	1	43887	
3631	1	38548	2871	1	43796	
3632	1	38688	2872	1	43570	
3633	1	38856	2873	1	43744	
3634	1	38836	2874	1	43889	
3635	1	38552	2875	1	43794	
3636	1	38692	2876	1	43567	
3637	1	38844	2877	1	43746	
3638	1	38836	2878	1	43872	
3639	1	38548	2879	1	43780	
3640	1	38688	2880	1	43564	
3641	1	38848	2881	1	43746	
3642	1	38824	2882	1	43868	
3643	1	38548	2883	1	43790	
3644	1	38702	2884	1	43572	
3645	1	38848	2885	1	43744	
3646	1	38839	2886	1	43868	
3647	1	38556	2887	1	43783	
3648	1	38688	2888	1	43576	
3649	1	38848	2889	1	43746	
3650	1	38820	2890	1	43890	
3651	1	38564	2891	1	43783	
3652	1	38688	2892	1	43580	
3653	1	38856	2893	1	43760	
3654	1	38836	2894	1	43878	
3655	1	38552	2895	1	43780	
3656	1	38692	2896	1	43584	
3657	1	38848	2897	1	43744	
3658	1	38824	2898	1	43884	
3659	1	38560	2899	1	43756	
3660	1	38684	2900	1	43576	
3661	1	38852	2901	1	43752	
3662	1	38824	2902	1	43891	
3663	1	38552	2903	1	43760	
3664	1	38692	2904	1	43588	
3665	1	38850	2905	1	43760	
3666	1	38829	2906	1	43892	
3667	1	38556	2907	1	43766	
3668	1	38680	2908	1	43590	
3669	1	38848	2909	1	43753	
3670	1	38824	2910	1	43878	
3671	1	38556	2911	1	43768	
3672	1	38688	2912	1	43591	
3673	1	38860	2913	1	43756	
3674	1	38824	2914	1	43888	
3675	1	38552	2915	1	43762	
3676	1	38692	2916	1	43591	
3677	1	38848	2917	1	43756	
3678	1	38824	2918	1	43885	
3679	1	38548	2919	1	43757	
3680	1	38688	2920	1	43580	
3681	1	38856	2921	1	43749	
3682	1	38828	2922	1	43886	
3683	1	38544	2923	1	43742	
3684	1	38684	2924	1	43589	
3685	1	38852	2925	1	43757	
3686	1	38820	2926	1	43884	
3687	1	38540	2927	1	43754	
3688	1	38688	2928	1	43594	
3689	1	38860	2929	1	43758	
3690	1	38816	2930	1	43888	
3691	1	38536	2931	1	43750	
3692	1	38700	2932	1	43608	
3693	1	38856	2933	1	43768	
3694	1	38816	2934	1	43902	
3695	1	38544	2935	1	43753	
3696	1	38696	2936	1	43611	
3697	1	38856	2937	1	43766	
3698	1	38804	2938	1	43894	
3699	1	38544	2939	1	43750	
3700	1	38688	2940	1	43622	
3701	1	38864	2941	1	43773	
3702	1	38816	2942	1	43898	
3703	1	38536	2943	1	43734	
3704	1	38696	2944	1	43612	
3705	1	38848	2945	1	43768	
3706	1	38796	2946	1	43895	
3707	1	38528	2947	1	43747	
3708	1	38720	2948	1	43604	
3709	1	38856	2949	1	43768	
3710	1	38804	2950	1	43911	
3711	1	38544	2951	1	43738	
3712	1	38704	2952	1	43602	
3713	1	38868	2953	1	43776	
3714	1	38812	2954	1	43900	
3715	1	38548	2955	1	43736	
3716	1	38700	2956	1	43626	
3717	1	38864	2957	1	43782	
3718	1	38808	2958	1	43901	
3719	1	38532	2959	1	43736	
3720	1	38700	2960	1	43610	
3721	1	38860	2961	1	43778	
3722	1	38812	2962	1	43908	
3723	1	38528	2963	1	43734	
3724	1	38704	2964	1	43623	
3725	1	38860	2965	1	43780	
3726	1	38800	2966	1	43904	
3727	1	38536	2967	1	43732	
3728	1	38704	2968	1	43629	
3729	1	38864	2969	1	43783	
3730	1	38816	2970	1	43911	
3731	1	38544	2971	1	43736	
3732	1	38720	2972	1	43620	
3733	1	38868	2973	1	43792	
3734	1	38804	2974	1	43920	
3735	1	38544	2975	1	43730	
3736	1	38708	2976	1	43628	
3737	1	38872	2977	1	43793	
3738	1	38812	2978	1	43910	
3739	1	38540	2979	1	43730	
3740	1	38708	2980	1	43639	
3741	1	38860	2981	1	43791	
3742	1	38812	2982	1	43911	
3743	1	38536	2983	1	43724	
3744	1	38704	2984	1	43637	
3745	1	38868	2985	1	43790	
3746	1	38808	2986	1	43911	
3747	1	38536	2987	1	43739	
3748	1	38700	2988	1	43632	
3749	1	38856	2989	1	43783	
3750	1	38816	2990	1	43911	
3751	1	38536	2991	1	43726	
3752	1	38708	2992	1	43644	
3753	1	38864	2993	1	43792	
3754	1	38824	2994	1	43924	
3755	1	38556	2995	1	43738	
3756	1	38712	2996	1	43638	
3757	1	38860	2997	1	43794	
3758	1	38816	2998	1	43923	
3759	1	38564	2999	1	43716	
3760	1	38696	3000	1	43644	
3761	1	38864	3001	1	43798	
3762	1	38820	3002	1	43922	
3763	1	38546	3003	1	43716	
3764	1	38696	3004	1	43638	
3765	1	38844	3005	1	43796	
3766	1	38812	3006	1	43927	
3767	1	38536	3007	1	43706	
3768	1	38692	3008	1	43638	
3769	1	38856	3009	1	43798	
3770	1	38820	3010	1	43911	
3771	1	38548	3011	1	43706	
3772	1	38692	3012	1	43644	
3773	1	38866	3013	1	43807	
3774	1	38820	3014	1	43920	
3775	1	38564	3015	1	43716	
3776	1	38704	3016	1	43648	
3777	1	38860	3017	1	43802	
3778	1	38812	3018	1	43916	
3779	1	38552	3019	1	43704	
3780	1	38692	3020	1	43648	
3781	1	38852	3021	1	43801	
3782	1	38820	3022	1	43911	
3783	1	38552	3023	1	43704	
3784	1	38700	3024	1	43639	
3785	1	38844	3025	1	43790	
3786	1	38816	3026	1	43900	
3787	1	38548	3027	1	43687	
3788	1	38676	3028	1	43639	
3789	1	38844	3029	1	43796	
3790	1	38828	3030	1	43911	
3791	1	38556	3031	1	43702	
3792	1	38688	3032	1	43655	
3793	1	38848	3033	1	43801	
3794	1	38820	3034	1	43908	
3795	1	38560	3035	1	43688	
3796	1	38680	3036	1	43648	
3797	1	38844	3037	1	43807	
3798	1	38828	3038	1	43918	
3799	1	38556	3039	1	43684	
3800	1	38684	3040	1	43645	
3801	1	38840	3041	1	43801	
3802	1	38836	3042	1	43918	
3803	1	38556	3043	1	43680	
3804	1	38680	3044	1	43648	
3805	1	38832	3045	1	43798	
3806	1	38824	3046	1	43911	
3807	1	38552	3047	1	43686	
3808	1	38680	3048	1	43640	
3809	1	38832	3049	1	43800	
3810	1	38828	3050	1	43911	
3811	1	38552	3051	1	43680	
3812	1	38676	3052	1	43655	
3813	1	38840	3053	1	43800	
3814	1	38844	3054	1	43908	
3815	1	38568	3055	1	43680	
3816	1	38680	3056	1	43655	
3817	1	38840	3057	1	43802	
3818	1	38848	3058	1	43933	
3819	1	38560	3059	1	43684	
3820	1	38680	3060	1	43655	
3821	1	38848	3061	1	43809	
3822	1	38852	3062	1	43940	
3823	1	38576	3063	1	43684	
3824	1	38680	3064	1	43655	
3825	1	38848	3065	1	43802	
3826	1	38836	3066	1	43911	
3827	1	38568	3067	1	43680	
3828	1	38668	3068	1	43650	
3829	1	38848	3069	1	43810	
3830	1	38840	3070	1	43924	
3831	1	38568	3071	1	43684	
3832	1	38684	3072	1	43671	
3833	1	38852	3073	1	43808	
3834	1	38848	3074	1	43930	
3835	1	38568	3075	1	43677	
3836	1	38664	3076	1	43655	
3837	1	38836	3077	1	43813	
3838	1	38848	3078	1	43935	
3839	1	38568	3079	1	43679	
3840	1	38672	3080	1	43676	
3841	1	38832	3081	1	43808	
3842	1	38852	3082	1	43932	
3843	1	38573	3083	1	43686	
3844	1	38680	3084	1	43671	
3845	1	38840	3085	1	43805	
3846	1	38852	3086	1	43920	
3847	1	38564	3087	1	43668	
3848	1	38656	3088	1	43655	
3849	1	38830	3089	1	43808	
3850	1	38852	3090	1	43916	
3851	1	38568	3091	1	43676	
3852	1	38680	3092	1	43654	
3853	1	38836	3093	1	43812	
3854	1	38848	3094	1	43924	
3855	1	38577	3095	1	43672	
3856	1	38668	3096	1	43655	
3857	1	38836	3097	1	43818	
3858	1	38856	3098	1	43926	
3859	1	38584	3099	1	43673	
3860	1	38664	3100	1	43679	
3861	1	38832	3101	1	43812	
3862	1	38860	3102	1	43932	
3863	1	38576	3103	1	43682	
3864	1	38672	3104	1	43676	
3865	1	38844	3105	1	43816	
3866	1	38848	3106	1	43924	
3867	1	38572	3107	1	43673	
3868	1	38668	3108	1	43660	
3869	1	38828	3109	1	43815	
3870	1	38868	3110	1	43927	
3871	1	38588	3111	1	43679	
3872	1	38672	3112	1	43672	
3873	1	38848	3113	1	43822	
3874	1	38872	3114	1	43926	
3875	1	38588	3115	1	43678	
3876	1	38680	3116	1	43674	
3877	1	38838	3117	1	43827	
3878	1	38892	3118	1	43932	
3879	1	38604	3119	1	43688	
3880	1	38680	3120	1	43688	
3881	1	38848	3121	1	43824	
3882	1	38892	3122	1	43932	
3883	1	38608	3123	1	43687	
3884	1	38676	3124	1	43698	
3885	1	38848	3125	1	43826	
3886	1	38888	3126	1	43930	
3887	1	38600	3127	1	43682	
3888	1	38660	3128	1	43684	
3889	1	38844	3129	1	43820	
3890	1	38884	3130	1	43933	
3891	1	38612	3131	1	43682	
3892	1	38676	3132	1	43687	
3893	1	38848	3133	1	43832	
3894	1	38900	3134	1	43930	
3895	1	38608	3135	1	43686	
3896	1	38668	3136	1	43682	
3897	1	38848	3137	1	43832	
3898	1	38908	3138	1	43938	
3899	1	38614	3139	1	43688	
3900	1	38688	3140	1	43688	
3901	1	38852	3141	1	43836	
3902	1	38918	3142	1	43943	
3903	1	38624	3143	1	43694	
3904	1	38684	3144	1	43692	
3905	1	38848	3145	1	43834	
3906	1	38916	3146	1	43934	
3907	1	38624	3147	1	43684	
3908	1	38680	3148	1	43688	
3909	1	38848	3149	1	43828	
3910	1	38900	3150	1	43938	
3911	1	38624	3151	1	43687	
3912	1	38680	3152	1	43692	
3913	1	38844	3153	1	43828	
3914	1	38912	3154	1	43926	
3915	1	38628	3155	1	43684	
3916	1	38680	3156	1	43695	
3917	1	38848	3157	1	43839	
3918	1	38904	3158	1	43926	
3919	1	38628	3159	1	43682	
3920	1	38676	3160	1	43696	
3921	1	38848	3161	1	43832	
3922	1	38924	3162	1	43932	
3923	1	38644	3163	1	43682	
3924	1	38668	3164	1	43692	
3925	1	38848	3165	1	43845	
3926	1	38932	3166	1	43928	
3927	1	38632	3167	1	43682	
3928	1	38672	3168	1	43693	
3929	1	38837	3169	1	43839	
3930	1	38936	3170	1	43911	
3931	1	38640	3171	1	43676	
3932	1	38656	3172	1	43688	
3933	1	38832	3173	1	43830	
3934	1	38944	3174	1	43911	
3935	1	38644	3175	1	43682	
3936	1	38660	3176	1	43684	
3937	1	38836	3177	1	43832	
3938	1	38940	3178	1	43920	
3939	1	38644	3179	1	43674	
3940	1	38656	3180	1	43678	
3941	1	38844	3181	1	43840	
3942	1	38960	3182	1	43927	
3943	1	38652	3183	1	43672	
3944	1	38660	3184	1	43688	
3945	1	38836	3185	1	43840	
3946	1	38952	3186	1	43911	
3947	1	38648	3187	1	43674	
3948	1	38648	3188	1	43707	
3949	1	38824	3189	1	43828	
3950	1	38960	3190	1	43908	
3951	1	38660	3191	1	43666	
3952	1	38648	3192	1	43688	
3953	1	38837	3193	1	43840	
3954	1	38968	3194	1	43911	
3955	1	38660	3195	1	43668	
3956	1	38640	3196	1	43682	
3957	1	38820	3197	1	43839	
3958	1	38960	3198	1	43909	
3959	1	38656	3199	1	43666	
3960	1	38648	3200	1	43688	
3961	1	38812	3201	1	43836	
3962	1	38972	3202	1	43920	
3963	1	38664	3203	1	43673	
3964	1	38636	3204	1	43694	
3965	1	38820	3205	1	43847	
3966	1	38954	3206	1	43911	
3967	1	38660	3207	1	43668	
3968	1	38628	3208	1	43689	
3969	1	38816	3209	1	43839	
3970	1	38956	3210	1	43911	
3971	1	38656	3211	1	43660	
3972	1	38636	3212	1	43688	
3973	1	38800	3213	1	43841	
3974	1	38952	3214	1	43903	
3975	1	38668	3215	1	43655	
3976	1	38628	3216	1	43692	
3977	1	38812	3217	1	43838	
3978	1	38944	3218	1	43898	
3979	1	38668	3219	1	43668	
3980	1	38628	3220	1	43692	
3981	1	38816	3221	1	43847	
3982	1	38948	3222	1	43904	
3983	1	38676	3223	1	43671	
3984	1	38628	3224	1	43698	
3985	1	38824	3225	1	43842	
3986	1	38956	3226	1	43908	
3987	1	38684	3227	1	43664	
3988	1	38624	3228	1	43715	
3989	1	38813	3229	1	43847	
3990	1	38944	3230	1	43896	
3991	1	38680	3231	1	43671	
3992	1	38624	3232	1	43704	
3993	1	38812	3233	1	43842	
3994	1	38936	3234	1	43888	
3995	1	38688	3235	1	43655	
3996	1	38616	3236	1	43696	
3997	1	38796	3237	1	43847	
3998	1	38944	3238	1	43898	
3999	1	38680	3239	1	43655	
4000	1	38620	3240	1	43702	
4001	1	38816	3241	1	43847	
4002	1	38952	3242	1	43906	
4003	1	38684	3243	1	43664	
4004	1	38624	3244	1	43706	
4005	1	38808	3245	1	43852	
4006	1	38948	3246	1	43904	
4007	1	38692	3247	1	43671	
4008	1	38612	3248	1	43709	
4009	1	38784	3249	1	43850	
4010	1	38940	3250	1	43910	
4011	1	38692	3251	1	43662	
4012	1	38608	3252	1	43708	
4013	1	38805	3253	1	43842	
4014	1	38936	3254	1	43888	
4015	1	38688	3255	1	43655	
4016	1	38612	3256	1	43696	
4017	1	38788	3257	1	43846	
4018	1	38928	3258	1	43892	
4019	1	38684	3259	1	43655	
4020	1	38616	3260	1	43714	
4021	1	38808	3261	1	43850	
4022	1	38944	3262	1	43904	
4023	1	38712	3263	1	43666	
4024	1	38612	3264	1	43714	
4025	1	38808	3265	1	43846	
4026	1	38936	3266	1	43890	
4027	1	38708	3267	1	43662	
4028	1	38608	3268	1	43712	
4029	1	38804	3269	1	43850	
4030	1	38936	3270	1	43896	
4031	1	38704	3271	1	43655	
4032	1	38604	3272	1	43714	
4033	1	38796	3273	1	43858	
4034	1	38936	3274	1	43906	
4035	1	38700	3275	1	43655	
4036	1	38616	3276	1	43715	
4037	1	38804	3277	1	43853	
4038	1	38944	3278	1	43881	
4039	1	38700	3279	1	43655	
4040	1	38600	3280	1	43714	
4041	1	38806	3281	1	43856	
4042	1	38936	3282	1	43907	
4043	1	38704	3283	1	43650	
4044	1	38624	3284	1	43716	
4045	1	38800	3285	1	43858	
4046	1	38940	3286	1	43896	
4047	1	38704	3287	1	43652	
4048	1	38608	3288	1	43719	
4049	1	38788	3289	1	43852	
4050	1	38944	3290	1	43894	
4051	1	38712	3291	1	43652	
4052	1	38604	3292	1	43714	
4053	1	38798	3293	1	43853	
4054	1	38944	3294	1	43895	
4055	1	38700	3295	1	43650	
4056	1	38592	3296	1	43714	
4057	1	38784	3297	1	43847	
4058	1	38924	3298	1	43876	
4059	1	38700	3299	1	43648	
4060	1	38604	3300	1	43702	
4061	1	38784	3301	1	43858	
4062	1	38932	3302	1	43890	
4063	1	38700	3303	1	43652	
4064	1	38608	3304	1	43712	
4065	1	38788	3305	1	43858	
4066	1	38936	3306	1	43874	
4067	1	38708	3307	1	43650	
4068	1	38592	3308	1	43714	
4069	1	38776	3309	1	43852	
4070	1	38924	3310	1	43886	
4071	1	38712	3311	1	43648	
4072	1	38588	3312	1	43706	
4073	1	38780	3313	1	43852	
4074	1	38920	3314	1	43876	
4075	1	38692	3315	1	43646	
4076	1	38596	3316	1	43700	
4077	1	38776	3317	1	43844	
4078	1	38912	3318	1	43876	
4079	1	38688	3319	1	43641	
4080	1	38584	3320	1	43714	
4081	1	38776	3321	1	43847	
4082	1	38932	3322	1	43876	
4083	1	38700	3323	1	43638	
4084	1	38584	3324	1	43712	
4085	1	38780	3325	1	43852	
4086	1	38924	3326	1	43878	
4087	1	38696	3327	1	43642	
4088	1	38576	3328	1	43715	
4089	1	38765	3329	1	43847	
4090	1	38924	3330	1	43872	
4091	1	38712	3331	1	43640	
4092	1	38580	3332	1	43710	
4093	1	38784	3333	1	43858	
4094	1	38916	3334	1	43870	
4095	1	38696	3335	1	43643	
4096	1	38580	3336	1	43700	
4097	1	38772	3337	1	43847	
4098	1	38916	3338	1	43852	
4099	1	38688	3339	1	43636	
4100	1	38580	3340	1	43708	
4101	1	38776	3341	1	43856	
4102	1	38924	3342	1	43874	
4103	1	38712	3343	1	43640	
4104	1	38584	3344	1	43714	
4105	1	38772	3345	1	43856	
4106	1	38912	3346	1	43858	
4107	1	38716	3347	1	43638	
4108	1	38580	3348	1	43714	
4109	1	38776	3349	1	43860	
4110	1	38916	3350	1	43878	
4111	1	38712	3351	1	43632	
4112	1	38600	3352	1	43712	
4113	1	38768	3353	1	43864	
4114	1	38912	3354	1	43879	
4115	1	38716	3355	1	43632	
4116	1	38580	3356	1	43714	
4117	1	38772	3357	1	43860	
4118	1	38904	3358	1	43878	
4119	1	38728	3359	1	43642	
4120	1	38564	3360	1	43719	
4121	1	38772	3361	1	43866	
4122	1	38920	3362	1	43868	
4123	1	38728	3363	1	43640	
4124	1	38572	3364	1	43728	
4125	1	38781	3365	1	43866	
4126	1	38928	3366	1	43871	
4127	1	38736	3367	1	43636	
4128	1	38576	3368	1	43742	
4129	1	38776	3369	1	43879	
4130	1	38921	3370	1	43879	
4131	1	38740	3371	1	43648	
4132	1	38576	3372	1	43742	
4133	1	38784	3373	1	43872	
4134	1	38932	3374	1	43868	
4135	1	38748	3375	1	43638	
4136	1	38572	3376	1	43734	
4137	1	38776	3377	1	43878	
4138	1	38916	3378	1	43858	
4139	1	38748	3379	1	43632	
4140	1	38576	3380	1	43738	
4141	1	38780	3381	1	43876	
4142	1	38940	3382	1	43858	
4143	1	38752	3383	1	43642	
4144	1	38572	3384	1	43751	
4145	1	38784	3385	1	43876	
4146	1	38932	3386	1	43866	
4147	1	38760	3387	1	43642	
4148	1	38584	3388	1	43751	
4149	1	38780	3389	1	43882	
4150	1	38936	3390	1	43868	
4151	1	38760	3391	1	43648	
4152	1	38582	3392	1	43744	
4153	1	38796	3393	1	43886	
4154	1	38932	3394	1	43870	
4155	1	38768	3395	1	43654	
4156	1	38578	3396	1	43746	
4157	1	38788	3397	1	43894	
4158	1	38928	3398	1	43871	
4159	1	38752	3399	1	43636	
4160	1	38580	3400	1	43753	
4161	1	38784	3401	1	43884	
4162	1	38936	3402	1	43862	
4163	1	38764	3403	1	43636	
4164	1	38572	3404	1	43748	
4165	1	38780	3405	1	43892	
4166	1	38944	3406	1	43860	
4167	1	38776	3407	1	43640	
4168	1	38576	3408	1	43762	
4169	1	38796	3409	1	43892	
4170	1	38936	3410	1	43874	
4171	1	38784	3411	1	43638	
4172	1	38592	3412	1	43768	
4173	1	38792	3413	1	43902	
4174	1	38952	3414	1	43876	
4175	1	38780	3415	1	43655	
4176	1	38600	3416	1	43770	
4177	1	38796	3417	1	43903	
4178	1	38932	3418	1	43861	
4179	1	38780	3419	1	43645	
4180	1	38572	3420	1	43760	
4181	1	38788	3421	1	43898	
4182	1	38936	3422	1	43868	
4183	1	38780	3423	1	43644	
4184	1	38584	3424	1	43760	
4185	1	38796	3425	1	43896	
4186	1	38944	3426	1	43877	
4187	1	38788	3427	1	43640	
4188	1	38580	3428	1	43770	
4189	1	38788	3429	1	43904	
4190	1	38938	3430	1	43872	
4191	1	38788	3431	1	43638	
4192	1	38584	3432	1	43778	
4193	1	38808	3433	1	43911	
4194	1	38940	3434	1	43864	
4195	1	38792	3435	1	43634	
4196	1	38568	3436	1	43780	
4197	1	38792	3437	1	43904	
4198	1	38936	3438	1	43850	
4199	1	38788	3439	1	43634	
4200	1	38568	3440	1	43768	
4201	1	38772	3441	1	43908	
4202	1	38924	3442	1	43846	
4203	1	38796	3443	1	43626	
4204	1	38560	3444	1	43780	
4205	1	38768	3445	1	43911	
4206	1	38924	3446	1	43855	
4207	1	38792	3447	1	43620	
4208	1	38560	3448	1	43768	
4209	1	38768	3449	1	43911	
4210	1	38924	3450	1	43852	
4211	1	38808	3451	1	43634	
4212	1	38548	3452	1	43771	
4213	1	38784	3453	1	43908	
4214	1	38920	3454	1	43847	
4215	1	38812	3455	1	43634	
4216	1	38556	3456	1	43780	
4217	1	38772	3457	1	43911	
4218	1	38924	3458	1	43840	
4219	1	38796	3459	1	43634	
4220	1	38560	3460	1	43783	
4221	1	38768	3461	1	43911	
4222	1	38924	3462	1	43841	
4223	1	38796	3463	1	43623	
4224	1	38560	3464	1	43777	
4225	1	38764	3465	1	43908	
4226	1	38918	3466	1	43842	
4227	1	38796	3467	1	43620	
4228	1	38544	3468	1	43774	
4229	1	38780	3469	1	43904	
4230	1	38916	3470	1	43842	
4231	1	38792	3471	1	43632	
4232	1	38544	3472	1	43776	
4233	1	38780	3473	1	43911	
4234	1	38932	3474	1	43844	
4235	1	38808	3475	1	43624	
4236	1	38548	3476	1	43778	
4237	1	38776	3477	1	43908	
4238	1	38920	3478	1	43836	
4239	1	38804	3479	1	43622	
4240	1	38540	3480	1	43788	
4241	1	38776	3481	1	43911	
4242	1	38924	3482	1	43858	
4243	1	38808	3483	1	43623	
4244	1	38552	3484	1	43794	
4245	1	38768	3485	1	43911	
4246	1	38924	3486	1	43836	
4247	1	38812	3487	1	43616	
4248	1	38540	3488	1	43783	
4249	1	38772	3489	1	43911	
4250	1	38916	3490	1	43826	
4251	1	38812	3491	1	43618	
4252	1	38556	3492	1	43786	
4253	1	38764	3493	1	43926	
4254	1	38924	3494	1	43847	
4255	1	38832	3495	1	43626	
4256	1	38560	3496	1	43794	
4257	1	38776	3497	1	43920	
4258	1	38921	3498	1	43838	
4259	1	38832	3499	1	43618	
4260	1	38564	3500	1	43804	
4261	1	38772	3501	1	43928	
4262	1	38924	3502	1	43830	
4263	1	38838	3503	1	43620	
4264	1	38576	3504	1	43792	
4265	1	38768	3505	1	43934	
4266	1	38932	3506	1	43826	
4267	1	38840	3507	1	43626	
4268	1	38568	3508	1	43806	
4269	1	38768	3509	1	43941	
4270	1	38928	3510	1	43836	
4271	1	38840	3511	1	43638	
4272	1	38578	3512	1	43808	
4273	1	38768	3513	1	43944	
4274	1	38936	3514	1	43836	
4275	1	38852	3515	1	43650	
4276	1	38576	3516	1	43808	
4277	1	38780	3517	1	43936	
4278	1	38944	3518	1	43844	
4279	1	38848	3519	1	43638	
4280	1	38592	3520	1	43820	
4281	1	38780	3521	1	43942	
4282	1	38924	3522	1	43820	
4283	1	38848	3523	1	43654	
4284	1	38584	3524	1	43816	
4285	1	38772	3525	1	43951	
4286	1	38936	3526	1	43816	
4287	1	38852	3527	1	43655	
4288	1	38580	3528	1	43816	
4289	1	38780	3529	1	43960	
4290	1	38936	3530	1	43824	
4291	1	38848	3531	1	43655	
4292	1	38584	3532	1	43829	
4293	1	38772	3533	1	43944	
4294	1	38936	3534	1	43818	
4295	1	38860	3535	1	43654	
4296	1	38596	3536	1	43834	
4297	1	38772	3537	1	43956	
4298	1	38928	3538	1	43828	
4299	1	38856	3539	1	43655	
4300	1	38600	3540	1	43844	
4301	1	38772	3541	1	43964	
4302	1	38936	3542	1	43814	
4303	1	38848	3543	1	43660	
4304	1	38600	3544	1	43832	
4305	1	38776	3545	1	43948	
4306	1	38936	3546	1	43810	
4307	1	38856	3547	1	43654	
4308	1	38600	3548	1	43822	
4309	1	38768	3549	1	43948	
4310	1	38920	3550	1	43817	
4311	1	38864	3551	1	43676	
4312	1	38600	3552	1	43832	
4313	1	38760	3553	1	43966	
4314	1	38928	3554	1	43822	
4315	1	38868	3555	1	43673	
4316	1	38608	3556	1	43834	
4317	1	38784	3557	1	43967	
4318	1	38924	3558	1	43823	
4319	1	38868	3559	1	43687	
4320	1	38608	3560	1	43842	
4321	1	38772	3561	1	43956	
4322	1	38930	3562	1	43816	
4323	1	38880	3563	1	43682	
4324	1	38610	3564	1	43845	
4325	1	38768	3565	1	43968	
4326	1	38932	3566	1	43800	
4327	1	38864	3567	1	43682	
4328	1	38600	3568	1	43840	
4329	1	38756	3569	1	43958	
4330	1	38928	3570	1	43819	
4331	1	38868	3571	1	43684	
4332	1	38600	3572	1	43832	
4333	1	38768	3573	1	43966	
4334	1	38936	3574	1	43812	
4335	1	38880	3575	1	43685	
4336	1	38600	3576	1	43842	
4337	1	38781	3577	1	43967	
4338	1	38920	3578	1	43818	
4339	1	38868	3579	1	43687	
4340	1	38608	3580	1	43840	
4341	1	38776	3581	1	43970	
4342	1	38928	3582	1	43808	
4343	1	38884	3583	1	43688	
4344	1	38612	3584	1	43842	
4345	1	38772	3585	1	43964	
4346	1	38920	3586	1	43810	
4347	1	38874	3587	1	43672	
4348	1	38612	3588	1	43824	
4349	1	38764	3589	1	43962	
4350	1	38924	3590	1	43794	
4351	1	38876	3591	1	43674	
4352	1	38616	3592	1	43840	
4353	1	38768	3593	1	43970	
4354	1	38928	3594	1	43800	
4355	1	38872	3595	1	43686	
4356	1	38612	3596	1	43847	
4357	1	38768	3597	1	43968	
4358	1	38924	3598	1	43790	
4359	1	38880	3599	1	43680	
4360	1	38612	3600	1	43840	
4361	1	38776	3601	1	43958	
4362	1	38932	3602	1	43792	
4363	1	38888	3603	1	43685	
4364	1	38624	3604	1	43836	
4365	1	38756	3605	1	43965	
4366	1	38920	3606	1	43798	
4367	1	38880	3607	1	43688	
4368	1	38612	3608	1	43845	
4369	1	38753	3609	1	43952	
4370	1	38916	3610	1	43797	
4371	1	38892	3611	1	43674	
4372	1	38624	3612	1	43840	
4373	1	38752	3613	1	43960	
4374	1	38912	3614	1	43792	
4375	1	38900	3615	1	43681	
4376	1	38624	3616	1	43844	
4377	1	38756	3617	1	43969	
4378	1	38904	3618	1	43783	
4379	1	38892	3619	1	43700	
4380	1	38624	3620	1	43847	
4381	1	38760	3621	1	43968	
4382	1	38912	3622	1	43786	
4383	1	38905	3623	1	43700	
4384	1	38620	3624	1	43847	
4385	1	38753	3625	1	43972	
4386	1	38908	3626	1	43776	
4387	1	38888	3627	1	43673	
4388	1	38616	3628	1	43828	
4389	1	38744	3629	1	43960	
4390	1	38908	3630	1	43782	
4391	1	38876	3631	1	43686	
4392	1	38616	3632	1	43843	
4393	1	38732	3633	1	43948	
4394	1	38892	3634	1	43772	
4395	1	38892	3635	1	43687	
4396	1	38616	3636	1	43837	
4397	1	38736	3637	1	43958	
4398	1	38900	3638	1	43768	
4399	1	38876	3639	1	43689	
4400	1	38608	3640	1	43844	
4401	1	38740	3641	1	43956	
4402	1	38916	3642	1	43768	
4403	1	38880	3643	1	43678	
4404	1	38620	3644	1	43839	
4405	1	38750	3645	1	43966	
4406	1	38896	3646	1	43768	
4407	1	38900	3647	1	43678	
4408	1	38596	3648	1	43832	
4409	1	38728	3649	1	43950	
4410	1	38880	3650	1	43756	
4411	1	38876	3651	1	43668	
4412	1	38600	3652	1	43834	
4413	1	38732	3653	1	43958	
4414	1	38900	3654	1	43757	
4415	1	38880	3655	1	43674	
4416	1	38608	3656	1	43842	
4417	1	38742	3657	1	43960	
4418	1	38896	3658	1	43760	
4419	1	38888	3659	1	43674	
4420	1	38608	3660	1	43834	
4421	1	38724	3661	1	43948	
4422	1	38888	3662	1	43748	
4423	1	38892	3663	1	43682	
4424	1	38624	3664	1	43846	
4425	1	38732	3665	1	43972	
4426	1	38896	3666	1	43766	
4427	1	38892	3667	1	43687	
4428	1	38612	3668	1	43836	
4429	1	38732	3669	1	43959	
4430	1	38900	3670	1	43760	
4431	1	38884	3671	1	43684	
4432	1	38616	3672	1	43846	
4433	1	38744	3673	1	43960	
4434	1	38884	3674	1	43756	
4435	1	38904	3675	1	43684	
4436	1	38616	3676	1	43847	
4437	1	38732	3677	1	43968	
4438	1	38896	3678	1	43754	
4439	1	38892	3679	1	43697	
4440	1	38628	3680	1	43856	
4441	1	38736	3681	1	43970	
4442	1	38912	3682	1	43756	
4443	1	38900	3683	1	43698	
4444	1	38628	3684	1	43852	
4445	1	38744	3685	1	43983	
4446	1	38904	3686	1	43760	
4447	1	38914	3687	1	43694	
4448	1	38628	3688	1	43847	
4449	1	38740	3689	1	43970	
4450	1	38896	3690	1	43766	
4451	1	38906	3691	1	43702	
4452	1	38636	3692	1	43859	
4453	1	38748	3693	1	43975	
4454	1	38908	3694	1	43748	
4455	1	38916	3695	1	43700	
4456	1	38632	3696	1	43849	
4457	1	38750	3697	1	43972	
4458	1	38900	3698	1	43759	
4459	1	38920	3699	1	43706	
4460	1	38652	3700	1	43865	
4461	1	38746	3701	1	43991	
4462	1	38912	3702	1	43759	
4463	1	38932	3703	1	43719	
4464	1	38656	3704	1	43874	
4465	1	38748	3705	1	43988	
4466	1	38912	3706	1	43752	
4467	1	38932	3707	1	43710	
4468	1	38652	3708	1	43860	
4469	1	38748	3709	1	43984	
4470	1	38912	3710	1	43752	
4471	1	38924	3711	1	43710	
4472	1	38644	3712	1	43864	
4473	1	38752	3713	1	43975	
4474	1	38908	3714	1	43750	
4475	1	38930	3715	1	43709	
4476	1	38644	3716	1	43860	
4477	1	38744	3717	1	43974	
4478	1	38900	3718	1	43738	
4479	1	38928	3719	1	43714	
4480	1	38648	3720	1	43868	
4481	1	38744	3721	1	43972	
4482	1	38916	3722	1	43748	
4483	1	38924	3723	1	43714	
4484	1	38660	3724	1	43862	
4485	1	38742	3725	1	43991	
4486	1	38908	3726	1	43740	
4487	1	38932	3727	1	43707	
4488	1	38648	3728	1	43858	
4489	1	38740	3729	1	43972	
4490	1	38904	3730	1	43740	
4491	1	38920	3731	1	43704	
4492	1	38652	3732	1	43856	
4493	1	38732	3733	1	43968	
4494	1	38888	3734	1	43724	
4495	1	38928	3735	1	43705	
4496	1	38636	3736	1	43856	
4497	1	38728	3737	1	43970	
4498	1	38884	3738	1	43728	
4499	1	38928	3739	1	43692	
4500	1	38637	3740	1	43860	
4501	1	38740	3741	1	43975	
4502	1	38884	3742	1	43730	
4503	1	38932	3743	1	43712	
4504	1	38652	3744	1	43863	
4505	1	38721	3745	1	43970	
4506	1	38884	3746	1	43735	
4507	1	38928	3747	1	43700	
4508	1	38640	3748	1	43853	
4509	1	38716	3749	1	43970	
4510	1	38884	3750	1	43710	
4511	1	38916	3751	1	43706	
4512	1	38640	3752	1	43852	
4513	1	38704	3753	1	43960	
4514	1	38880	3754	1	43712	
4515	1	38924	3755	1	43700	
4516	1	38628	3756	1	43847	
4517	1	38716	3757	1	43965	
4518	1	38868	3758	1	43712	
4519	1	38912	3759	1	43686	
4520	1	38636	3760	1	43844	
4521	1	38708	3761	1	43950	
4522	1	38868	3762	1	43704	
4523	1	38924	3763	1	43704	
4524	1	38636	3764	1	43844	
4525	1	38704	3765	1	43958	
4526	1	38876	3766	1	43704	
4527	1	38908	3767	1	43692	
4528	1	38636	3768	1	43847	
4529	1	38704	3769	1	43958	
4530	1	38876	3770	1	43704	
4531	1	38920	3771	1	43710	
4532	1	38640	3772	1	43847	
4533	1	38704	3773	1	43956	
4534	1	38864	3774	1	43708	
4535	1	38928	3775	1	43698	
4536	1	38644	3776	1	43844	
4537	1	38692	3777	1	43949	
4538	1	38876	3778	1	43702	
4539	1	38932	3779	1	43696	
4540	1	38648	3780	1	43850	
4541	1	38712	3781	1	43952	
4542	1	38868	3782	1	43692	
4543	1	38944	3783	1	43711	
4544	1	38644	3784	1	43847	
4545	1	38712	3785	1	43938	
4546	1	38880	3786	1	43702	
4547	1	38940	3787	1	43710	
4548	1	38648	3788	1	43846	
4549	1	38716	3789	1	43956	
4550	1	38876	3790	1	43711	
4551	1	38928	3791	1	43700	
4552	1	38652	3792	1	43842	
4553	1	38708	3793	1	43941	
4554	1	38880	3794	1	43698	
4555	1	38936	3795	1	43710	
4556	1	38656	3796	1	43856	
4557	1	38708	3797	1	43958	
4558	1	38876	3798	1	43694	
4559	1	38932	3799	1	43719	
4560	1	38644	3800	1	43847	
4561	1	38708	3801	1	43942	
4562	1	38880	3802	1	43703	
4563	1	38948	3803	1	43718	
4564	1	38660	3804	1	43856	
4565	1	38720	3805	1	43954	
4566	1	38880	3806	1	43704	
4567	1	38968	3807	1	43719	
4568	1	38656	3808	1	43850	
4569	1	38720	3809	1	43946	
4570	1	38880	3810	1	43696	
4571	1	38948	3811	1	43716	
4572	1	38676	3812	1	43862	
4573	1	38712	3813	1	43948	
4574	1	38888	3814	1	43708	
4575	1	38944	3815	1	43716	
4576	1	38664	3816	1	43860	
4577	1	38720	3817	1	43938	
4578	1	38876	3818	1	43695	
4579	1	38956	3819	1	43732	
4580	1	38656	3820	1	43862	
4581	1	38712	3821	1	43952	
4582	1	38888	3822	1	43700	
4583	1	38958	3823	1	43718	
4584	1	38668	3824	1	43860	
4585	1	38720	3825	1	43954	
4586	1	38888	3826	1	43705	
4587	1	38956	3827	1	43716	
4588	1	38668	3828	1	43860	
4589	1	38717	3829	1	43960	
4590	1	38888	3830	1	43700	
4591	1	38958	3831	1	43719	
4592	1	38668	3832	1	43875	
4593	1	38708	3833	1	43959	
4594	1	38873	3834	1	43704	
4595	1	38960	3835	1	43715	
4596	1	38672	3836	1	43862	
4597	1	38704	3837	1	43942	
4598	1	38880	3838	1	43692	
4599	1	38956	3839	1	43719	
4600	1	38668	3840	1	43860	
4601	1	38708	3841	1	43943	
4602	1	38876	3842	1	43698	
4603	1	38960	3843	1	43719	
4604	1	38672	3844	1	43860	
4605	1	38708	3845	1	43936	
4606	1	38880	3846	1	43696	
4607	1	38944	3847	1	43716	
4608	1	38664	3848	1	43862	
4609	1	38700	3849	1	43922	
4610	1	38884	3850	1	43692	
4611	1	38952	3851	1	43714	
4612	1	38660	3852	1	43871	
4613	1	38692	3853	1	43936	
4614	1	38876	3854	1	43694	
4615	1	38956	3855	1	43712	
4616	1	38661	3856	1	43868	
4617	1	38688	3857	1	43939	
4618	1	38860	3858	1	43695	
4619	1	38956	3859	1	43714	
4620	1	38652	3860	1	43855	
4621	1	38696	3861	1	43934	
4622	1	38860	3862	1	43695	
4623	1	38944	3863	1	43716	
4624	1	38652	3864	1	43870	
4625	1	38684	3865	1	43926	
4626	1	38868	3866	1	43688	
4627	1	38948	3867	1	43719	
4628	1	38668	3868	1	43866	
4629	1	38696	3869	1	43926	
4630	1	38872	3870	1	43690	
4631	1	38948	3871	1	43724	
4632	1	38664	3872	1	43860	
4633	1	38700	3873	1	43924	
4634	1	38868	3874	1	43680	
4635	1	38952	3875	1	43719	
4636	1	38652	3876	1	43858	
4637	1	38688	3877	1	43916	
4638	1	38852	3878	1	43672	
4639	1	38938	3879	1	43713	
4640	1	38636	3880	1	43856	
4641	1	38680	3881	1	43923	
4642	1	38848	3882	1	43695	
4643	1	38944	3883	1	43719	
4644	1	38644	3884	1	43856	
4645	1	38688	3885	1	43911	
4646	1	38872	3886	1	43672	
4647	1	38932	3887	1	43719	
4648	1	38632	3888	1	43860	
4649	1	38692	3889	1	43927	
4650	1	38856	3890	1	43684	
4651	1	38932	3891	1	43719	
4652	1	38644	3892	1	43860	
4653	1	38688	3893	1	43922	
4654	1	38864	3894	1	43672	
4655	1	38928	3895	1	43719	
4656	1	38640	3896	1	43852	
4657	1	38692	3897	1	43911	
4658	1	38868	3898	1	43671	
4659	1	38928	3899	1	43714	
4660	1	38636	3900	1	43856	
4661	1	38684	3901	1	43911	
4662	1	38856	3902	1	43668	
4663	1	38936	3903	1	43712	
4664	1	38652	3904	1	43852	
4665	1	38700	3905	1	43894	
4666	1	38860	3906	1	43670	
4667	1	38944	3907	1	43712	
4668	1	38640	3908	1	43854	
4669	1	38700	3909	1	43902	
4670	1	38868	3910	1	43664	
4671	1	38952	3911	1	43716	
4672	1	38656	3912	1	43848	
4673	1	38692	3913	1	43906	
4674	1	38864	3914	1	43674	
4675	1	38956	3915	1	43719	
4676	1	38648	3916	1	43858	
4677	1	38688	3917	1	43894	
4678	1	38856	3918	1	43671	
4679	1	38952	3919	1	43712	
4680	1	38644	3920	1	43848	
4681	1	38688	3921	1	43894	
4682	1	38856	3922	1	43654	
4683	1	38948	3923	1	43708	
4684	1	38648	3924	1	43852	
4685	1	38688	3925	1	43890	
4686	1	38860	3926	1	43655	
4687	1	38948	3927	1	43712	
4688	1	38640	3928	1	43852	
4689	1	38688	3929	1	43888	
4690	1	38864	3930	1	43664	
4691	1	38952	3931	1	43715	
4692	1	38652	3932	1	43848	
4693	1	38696	3933	1	43896	
4694	1	38872	3934	1	43655	
4695	1	38944	3935	1	43712	
4696	1	38656	3936	1	43850	
4697	1	38700	3937	1	43903	
4698	1	38866	3938	1	43648	
4699	1	38933	3939	1	43719	
4700	1	38640	3940	1	43846	
4701	1	38688	3941	1	43884	
4702	1	38856	3942	1	43654	
4703	1	38928	3943	1	43717	
4704	1	38644	3944	1	43856	
4705	1	38692	3945	1	43888	
4706	1	38868	3946	1	43652	
4707	1	38936	3947	1	43708	
4708	1	38638	3948	1	43846	
4709	1	38688	3949	1	43884	
4710	1	38856	3950	1	43654	
4711	1	38932	3951	1	43714	
4712	1	38648	3952	1	43860	
4713	1	38696	3953	1	43888	
4714	1	38868	3954	1	43655	
4715	1	38932	3955	1	43723	
4716	1	38640	3956	1	43858	
4717	1	38696	3957	1	43895	
4718	1	38864	3958	1	43655	
4719	1	38936	3959	1	43712	
4720	1	38632	3960	1	43844	
4721	1	38696	3961	1	43877	
4722	1	38868	3962	1	43655	
4723	1	38928	3963	1	43718	
4724	1	38648	3964	1	43858	
4725	1	38688	3965	1	43884	
4726	1	38856	3966	1	43645	
4727	1	38924	3967	1	43714	
4728	1	38648	3968	1	43848	
4729	1	38689	3969	1	43884	
4730	1	38872	3970	1	43652	
4731	1	38928	3971	1	43724	
4732	1	38648	3972	1	43864	
4733	1	38708	3973	1	43894	
4734	1	38860	3974	1	43655	
4735	1	38948	3975	1	43731	
4736	1	38644	3976	1	43856	
4737	1	38708	3977	1	43894	
4738	1	38864	3978	1	43655	
4739	1	38928	3979	1	43719	
4740	1	38644	3980	1	43861	
4741	1	38692	3981	1	43880	
4742	1	38860	3982	1	43650	
4743	1	38912	3983	1	43719	
4744	1	38644	3984	1	43858	
4745	1	38692	3985	1	43888	
4746	1	38864	3986	1	43653	
4747	1	38924	3987	1	43719	
4748	1	38632	3988	1	43860	
4749	1	38688	3989	1	43891	
4750	1	38860	3990	1	43654	
4751	1	38920	3991	1	43728	
4752	1	38624	3992	1	43864	
4753	1	38700	3993	1	43896	
4754	1	38872	3994	1	43655	
4755	1	38924	3995	1	43728	
4756	1	38652	3996	1	43868	
4757	1	38696	3997	1	43903	
4758	1	38876	3998	1	43655	
4759	1	38916	3999	1	43724	
4760	1	38632	4000	1	43872	
4761	1	38700	4001	1	43886	
4762	1	38864	4002	1	43644	
4763	1	38932	4003	1	43718	
4764	1	38632	4004	1	43860	
4765	1	38688	4005	1	43878	
4766	1	38856	4006	1	43655	
4767	1	38928	4007	1	43736	
4768	1	38628	4008	1	43860	
4769	1	38692	4009	1	43868	
4770	1	38864	4010	1	43655	
4771	1	38936	4011	1	43745	
4772	1	38652	4012	1	43879	
4773	1	38696	4013	1	43885	
4774	1	38876	4014	1	43655	
4775	1	38936	4015	1	43732	
4776	1	38648	4016	1	43878	
4777	1	38704	4017	1	43890	
4778	1	38872	4018	1	43655	
4779	1	38932	4019	1	43756	
4780	1	38640	4020	1	43878	
4781	1	38696	4021	1	43891	
4782	1	38876	4022	1	43655	
4783	1	38940	4023	1	43744	
4784	1	38648	4024	1	43886	
4785	1	38712	4025	1	43886	
4786	1	38876	4026	1	43650	
4787	1	38944	4027	1	43750	
4788	1	38640	4028	1	43882	
4789	1	38704	4029	1	43888	
4790	1	38876	4030	1	43654	
4791	1	38952	4031	1	43750	
4792	1	38656	4032	1	43888	
4793	1	38712	4033	1	43892	
4794	1	38884	4034	1	43668	
4795	1	38952	4035	1	43766	
4796	1	38672	4036	1	43904	
4797	1	38720	4037	1	43894	
4798	1	38894	4038	1	43673	
4799	1	38964	4039	1	43767	
4800	1	38668	4040	1	43896	
4801	1	38720	4041	1	43897	
4802	1	38888	4042	1	43670	
4803	1	38960	4043	1	43756	
4804	1	38664	4044	1	43904	
4805	1	38728	4045	1	43888	
4806	1	38876	4046	1	43655	
4807	1	38960	4047	1	43766	
4808	1	38664	4048	1	43902	
4809	1	38720	4049	1	43892	
4810	1	38892	4050	1	43666	
4811	1	38984	4051	1	43772	
4812	1	38680	4052	1	43904	
4813	1	38732	4053	1	43899	
4814	1	38900	4054	1	43681	
4815	1	38980	4055	1	43783	
4816	1	38700	4056	1	43911	
4817	1	38732	4057	1	43885	
4818	1	38904	4058	1	43669	
4819	1	38992	4059	1	43780	
4820	1	38692	4060	1	43922	
4821	1	38744	4061	1	43906	
4822	1	38888	4062	1	43682	
4823	1	38992	4063	1	43783	
4824	1	38692	4064	1	43920	
4825	1	38732	4065	1	43898	
4826	1	38900	4066	1	43682	
4827	1	39004	4067	1	43783	
4828	1	38696	4068	1	43938	
4829	1	38728	4069	1	43902	
4830	1	38896	4070	1	43686	
4831	1	39008	4071	1	43800	
4832	1	38704	4072	1	43943	
4833	1	38752	4073	1	43908	
4834	1	38904	4074	1	43689	
4835	1	39012	4075	1	43808	
4836	1	38720	4076	1	43932	
4837	1	38736	4077	1	43911	
4838	1	38916	4078	1	43688	
4839	1	39032	4079	1	43800	
4840	1	38740	4080	1	43942	
4841	1	38728	4081	1	43928	
4842	1	38936	4082	1	43698	
4843	1	39024	4083	1	43821	
4844	1	38749	4084	1	43944	
4845	1	38732	4085	1	43922	
4846	1	38904	4086	1	43698	
4847	1	39032	4087	1	43812	
4848	1	38744	4088	1	43958	
4849	1	38728	4089	1	43928	
4850	1	38908	4090	1	43700	
4851	1	39052	4091	1	43812	
4852	1	38748	4092	1	43956	
4853	1	38740	4093	1	43933	
4854	1	38916	4094	1	43696	
4855	1	39060	4095	1	43828	
4856	1	38760	4096	1	43952	
4857	1	38736	4097	1	43926	
4858	1	38920	4098	1	43704	
4859	1	39044	4099	1	43832	
4860	1	38752	4100	1	43964	
4861	1	38748	4101	1	43932	
4862	1	38932	4102	1	43706	
4863	1	39068	4103	1	43846	
4864	1	38756	4104	1	43968	
4865	1	38744	4105	1	43934	
4866	1	38920	4106	1	43702	
4867	1	39056	4107	1	43843	
4868	1	38752	4108	1	43970	
4869	1	38728	4109	1	43928	
4870	1	38912	4110	1	43700	
4871	1	39048	4111	1	43840	
4872	1	38752	4112	1	43968	
4873	1	38752	4113	1	43936	
4874	1	38928	4114	1	43716	
4875	1	39064	4115	1	43855	
4876	1	38764	4116	1	43980	
4877	1	38740	4117	1	43938	
4878	1	38912	4118	1	43719	
4879	1	39070	4119	1	43849	
4880	1	38772	4120	1	43994	
4881	1	38752	4121	1	43936	
4882	1	38920	4122	1	43712	
4883	1	39072	4123	1	43865	
4884	1	38768	4124	1	43996	
4885	1	38756	4125	1	43938	
4886	1	38920	4126	1	43712	
4887	1	39072	4127	1	43860	
4888	1	38764	4128	1	43996	
4889	1	38748	4129	1	43947	
4890	1	38916	4130	1	43716	
4891	1	39060	4131	1	43868	
4892	1	38776	4132	1	44000	
4893	1	38744	4133	1	43951	
4894	1	38928	4134	1	43728	
4895	1	39068	4135	1	43878	
4896	1	38776	4136	1	44000	
4897	1	38752	4137	1	43958	
4898	1	38932	4138	1	43734	
4899	1	39088	4139	1	43874	
4900	1	38792	4140	1	44015	
4901	1	38756	4141	1	43956	
4902	1	38950	4142	1	43739	
4903	1	39084	4143	1	43888	
4904	1	38820	4144	1	44015	
4905	1	38765	4145	1	43962	
4906	1	38940	4146	1	43742	
4907	1	39088	4147	1	43887	
4908	1	38796	4148	1	44014	
4909	1	38764	4149	1	43958	
4910	1	38944	4150	1	43744	
4911	1	39072	4151	1	43890	
4913	0	38772	4152	0	44020	
4914	0	38956	4153	0	43968	
4915	0	39088	4154	0	43744	
4916	0	38804	4155	0	43904	
4917	0	38784	4156	0	44033	
4918	0	38952	4157	0	43961	
4919	0	39104	4158	0	43756	
4920	0	38808	4159	0	43896	
4921	0	38785	4160	0	44039	
4922	0	38952	4161	0	43983	
4923	0	39096	4162	0	43759	
4924	0	38808	4163	0	43908	
4925	0	38784	4164	0	44039	
4926	0	38976	4165	0	43975	
4927	0	39104	4166	0	43752	
4928	0	38812	4167	0	43911	
4929	0	38792	4168	0	44039	
4930	0	38964	4169	0	43975	
4931	0	39092	4170	0	43756	
4932	0	38812	4171	0	43911	
4933	0	38796	4172	0	44038	
4934	0	38972	4173	0	43987	
4935	0	39116	4174	0	43758	
4936	0	38820	4175	0	43920	
4937	0	38796	4176	0	44050	
4938	0	38972	4177	0	43966	
4939	0	39112	4178	0	43770	
4940	0	38824	4179	0	43920	
4941	0	38792	4180	0	44065	
4942	0	38984	4181	0	43976	
4943	0	39116	4182	0	43777	
4944	0	38836	4183	0	43928	
4945	0	38820	4184	0	44060	
4946	0	38988	4185	0	43993	
4947	0	39124	4186	0	43770	
4948	0	38832	4187	0	43932	
4949	0	38808	4188	0	44068	
4950	0	38976	4189	0	43988	
4951	0	39120	4190	0	43768	
4952	0	38828	4191	0	43950	
4953	0	38804	4192	0	44064	
4954	0	38988	4193	0	43975	
4955	0	39120	4194	0	43772	
4956	0	38837	4195	0	43943	
4957	0	38808	4196	0	44077	
4958	0	38984	4197	0	43988	
4959	0	39124	4198	0	43776	
4960	0	38820	4199	0	43962	
4961	0	38820	4200	0	44087	
4962	0	38988	4201	0	43999	
4963	0	39136	4202	0	43783	
4964	0	38840	4203	0	43954	
4965	0	38828	4204	0	44086	
4966	0	38988	4205	0	43992	
4967	0	39137	4206	0	43783	
4968	0	38836	4207	0	43948	
4969	0	38816	4208	0	44089	
4970	0	38996	4209	0	44000	
4971	0	39136	4210	0	43783	
4972	0	38840	4211	0	43948	
4973	0	38820	4212	0	44095	
4974	0	38996	4213	0	43993	
4975	0	39124	4214	0	43800	
4976	0	38840	4215	0	43968	
4977	0	38824	4216	0	44100	
4978	0	39000	4217	0	44004	
4979	0	39136	4218	0	43796	
4980	0	38852	4219	0	43972	
4981	0	38832	4220	0	44100	
4982	0	39000	4221	0	44003	
4983	0	39136	4222	0	43823	
4984	0	38868	4223	0	43987	
4985	0	38832	4224	0	44118	
4986	0	39023	4225	0	44008	
4987	0	39148	4226	0	43824	
4988	0	38868	4227	0	43986	
4989	0	38820	4228	0	44117	
4990	0	39008	4229	0	44009	
4991	0	39128	4230	0	43815	
4992	0	38877	4231	0	44002	
4993	0	38836	4232	0	44133	
4994	0	39008	4233	0	44012	
4995	0	39160	4234	0	43830	
4996	0	38876	4235	0	44005	
4997	0	38844	4236	0	44124	
4998	0	39016	4237	0	44005	
4999	0	39156	4238	0	43837	
5000	0	38882	4239	0	44013	
5001	0	38848	4240	0	44140	
5002	0	39020	4241	0	44024	
5003	0	39168	4242	0	43861	
5004	0	38888	4243	0	44016	
5005	0	38856	4244	0	44140	
5006	0	39032	4245	0	44026	
5007	0	39184	4246	0	43847	
5008	0	38896	4247	0	44026	
5009	0	38856	4248	0	44163	
5010	0	39036	4249	0	44039	
5011	0	39176	4250	0	43856	
5012	0	38904	4251	0	44032	
5013	0	38856	4252	0	44154	
5014	0	39036	4253	0	44039	
5015	0	39168	4254	0	43862	
5016	0	38900	4255	0	44032	
5017	0	38864	4256	0	44162	
5018	0	39044	4257	0	44035	
5019	0	39180	4258	0	43872	
5020	0	38904	4259	0	44039	
5021	0	38864	4260	0	44160	
5022	0	39044	4261	0	44039	
5023	0	39196	4262	0	43881	
5024	0	38900	4263	0	44039	
5025	0	38886	4264	0	44180	
5026	0	39048	4265	0	44039	
5027	0	39180	4266	0	43884	
5028	0	38908	4267	0	44039	
5029	0	38880	4268	0	44182	
5030	0	39056	4269	0	44039	
5031	0	39204	4270	0	43892	
5032	0	38919	4271	0	44068	
5033	0	38880	4272	0	44188	
5034	0	39052	4273	0	44060	
5035	0	39216	4274	0	43910	
5036	0	38920	4275	0	44070	
5037	0	38892	4276	0	44188	
5038	0	39060	4277	0	44039	
5039	0	39208	4278	0	43911	
5040	0	38912	4279	0	44064	
5041	0	38892	4280	0	44194	
5042	0	39064	4281	0	44060	
5043	0	39208	4282	0	43911	
5044	0	38928	4283	0	44080	
5045	0	38900	4284	0	44207	
5046	0	39072	4285	0	44062	
5047	0	39216	4286	0	43924	
5048	0	38940	4287	0	44082	
5049	0	38896	4288	0	44210	
5050	0	39068	4289	0	44064	
5051	0	39216	4290	0	43922	
5052	0	38936	4291	0	44090	
5053	0	38904	4292	0	44215	
5054	0	39084	4293	0	44076	
5055	0	39204	4294	0	43932	
5056	0	38920	4295	0	44088	
5057	0	38896	4296	0	44204	
5058	0	39084	4297	0	44068	
5059	0	39204	4298	0	43936	
5060	0	38936	4299	0	44103	
5061	0	38896	4300	0	44214	
5062	0	39072	4301	0	44074	
5063	0	39216	4302	0	43930	
5064	0	38936	4303	0	44102	
5065	0	38904	4304	0	44218	
5066	0	39081	4305	0	44084	
5067	0	39226	4306	0	43949	
5068	0	38924	4307	0	44102	
5069	0	38901	4308	0	44226	
5070	0	39088	4309	0	44080	
5071	0	39224	4310	0	43951	
5072	0	38932	4311	0	44116	
5073	0	38916	4312	0	44230	
5074	0	39100	4313	0	44072	
5075	0	39220	4314	0	43950	
5076	0	38952	4315	0	44103	
5077	0	38912	4316	0	44228	
5078	0	39088	4317	0	44072	
5079	0	39232	4318	0	43954	
5080	0	38952	4319	0	44116	
5081	0	38920	4320	0	44250	
5082	0	39100	4321	0	44094	
5083	0	39240	4322	0	43965	
5084	0	38948	4323	0	44132	
5085	0	38932	4324	0	44255	
5086	0	39104	4325	0	44103	
5087	0	39236	4326	0	43968	
5088	0	38952	4327	0	44135	
5089	0	38932	4328	0	44248	
5090	0	39112	4329	0	44103	
5091	0	39252	4330	0	43980	
5092	0	38964	4331	0	44140	
5093	0	38952	4332	0	44248	
5094	0	39108	4333	0	44102	
5095	0	39252	4334	0	43988	
5096	0	38960	4335	0	44141	
5097	0	38936	4336	0	44256	
5098	0	39104	4337	0	44088	
5099	0	39248	4338	0	43984	
5100	0	38954	4339	0	44136	
5101	0	38948	4340	0	44275	
5102	0	39116	4341	0	44090	
5103	0	39264	4342	0	43996	
5104	0	38972	4343	0	44150	
5105	0	38952	4344	0	44278	
5106	0	39132	4345	0	44100	
5107	0	39272	4346	0	43998	
5108	0	38977	4347	0	44156	
5109	0	38956	4348	0	44286	
5110	0	39120	4349	0	44103	
5111	0	39272	4350	0	44013	
5112	0	38988	4351	0	44167	
5113	0	38952	4352	0	44282	
5114	0	39124	4353	0	44101	
5115	0	39268	4354	0	44026	
5116	0	38976	4355	0	44162	
5117	0	38956	4356	0	44287	
5118	0	39128	4357	0	44100	
5119	0	39260	4358	0	44017	
5120	0	38984	4359	0	44167	
5121	0	38964	4360	0	44292	
5122	0	39137	4361	0	44100	
5123	0	39288	4362	0	44026	
5124	0	38984	4363	0	44186	
5125	0	38980	4364	0	44296	
5126	0	39144	4365	0	44102	
5127	0	39284	4366	0	44039	
5128	0	38984	4367	0	44191	
5129	0	38972	4368	0	44304	
5130	0	39160	4369	0	44112	
5131	0	39296	4370	0	44039	
5132	0	38992	4371	0	44198	
5133	0	38968	4372	0	44317	
5134	0	39160	4373	0	44114	
5135	0	39288	4374	0	44039	
5136	0	38984	4375	0	44207	
5137	0	38980	4376	0	44315	
5138	0	39152	4377	0	44115	
5139	0	39288	4378	0	44039	
5140	0	38984	4379	0	44192	
5141	0	38972	4380	0	44327	
5142	0	39152	4381	0	44112	
5143	0	39280	4382	0	44064	
5144	0	39012	4383	0	44214	
5145	0	38988	4384	0	44332	
5146	0	39168	4385	0	44108	
5147	0	39288	4386	0	44060	
5148	0	38992	4387	0	44214	
5149	0	38980	4388	0	44335	
5150	0	39152	4389	0	44112	
5151	0	39304	4390	0	44068	
5152	0	38996	4391	0	44229	
5153	0	39004	4392	0	44348	
5154	0	39156	4393	0	44119	
5155	0	39304	4394	0	44088	
5156	0	39012	4395	0	44231	
5157	0	38996	4396	0	44347	
5158	0	39172	4397	0	44118	
5159	0	39296	4398	0	44071	
5160	0	38996	4399	0	44226	
5161	0	38984	4400	0	44340	
5162	0	39168	4401	0	44116	
5163	0	39296	4402	0	44094	
5164	0	39004	4403	0	44240	
5165	0	39000	4404	0	44359	
5166	0	39176	4405	0	44121	
5167	0	39312	4406	0	44096	
5168	0	38996	4407	0	44232	
5169	0	39008	4408	0	44359	
5170	0	39176	4409	0	44122	
5171	0	39316	4410	0	44111	
5172	0	39016	4411	0	44253	
5173	0	39012	4412	0	44362	
5174	0	39180	4413	0	44137	
5175	0	39316	4414	0	44114	
5176	0	39012	4415	0	44254	
5177	0	39016	4416	0	44370	
5178	0	39176	4417	0	44120	
5179	0	39320	4418	0	44118	
5180	0	39016	4419	0	44253	
5181	0	39000	4420	0	44372	
5182	0	39180	4421	0	44118	
5183	0	39320	4422	0	44121	
5184	0	39012	4423	0	44262	
5185	0	39008	4424	0	44379	
5186	0	39188	4425	0	44124	
5187	0	39320	4426	0	44124	
5188	0	39036	4427	0	44264	
5189	0	39016	4428	0	44387	
5190	0	39184	4429	0	44132	
5191	0	39320	4430	0	44134	
5192	0	39040	4431	0	44266	
5193	0	39034	4432	0	44376	
5194	0	39188	4433	0	44132	
5195	0	39328	4434	0	44140	
5196	0	39036	4435	0	44277	
5197	0	39032	4436	0	44388	
5198	0	39196	4437	0	44136	
5199	0	39340	4438	0	44151	
5200	0	39032	4439	0	44280	
5201	0	39016	4440	0	44380	
5202	0	39208	4441	0	44141	
5203	0	39336	4442	0	44140	
5204	0	39044	4443	0	44280	
5205	0	39024	4444	0	44384	
5206	0	39208	4445	0	44159	
5207	0	39336	4446	0	44134	
5208	0	39032	4447	0	44288	
5209	0	39040	4448	0	44384	
5210	0	39200	4449	0	44142	
5211	0	39340	4450	0	44146	
5212	0	39036	4451	0	44295	
5213	0	39040	4452	0	44384	
5214	0	39224	4453	0	44154	
5215	0	39352	4454	0	44148	
5216	0	39056	4455	0	44304	
5217	0	39044	4456	0	44391	
5218	0	39224	4457	0	44154	
5219	0	39350	4458	0	44152	
5220	0	39048	4459	0	44295	
5221	0	39036	4460	0	44390	
5222	0	39212	4461	0	44160	
5223	0	39356	4462	0	44167	
5224	0	39044	4463	0	44320	
5225	0	39040	4464	0	44388	
5226	0	39216	4465	0	44140	
5227	0	39348	4466	0	44167	
5228	0	39056	4467	0	44313	
5229	0	39048	4468	0	44394	
5230	0	39220	4469	0	44152	
5231	0	39356	4470	0	44178	
5232	0	39060	4471	0	44316	
5233	0	39044	4472	0	44389	
5234	0	39232	4473	0	44159	
5235	0	39344	4474	0	44184	
5236	0	39048	4475	0	44324	
5237	0	39052	4476	0	44394	
5238	0	39240	4477	0	44167	
5239	0	39344	4478	0	44188	
5240	0	39048	4479	0	44316	
5241	0	39060	4480	0	44399	
5242	0	39232	4481	0	44154	
5243	0	39352	4482	0	44188	
5244	0	39052	4483	0	44316	
5245	0	39052	4484	0	44380	
5246	0	39236	4485	0	44158	
5247	0	39356	4486	0	44191	
5248	0	39060	4487	0	44330	
5249	0	39056	4488	0	44384	
5250	0	39236	4489	0	44160	
5251	0	39352	4490	0	44198	
5252	0	39064	4491	0	44333	
5253	0	39060	4492	0	44404	
5254	0	39244	4493	0	44167	
5255	0	39360	4494	0	44216	
5256	0	39064	4495	0	44348	
5257	0	39072	4496	0	44398	
5258	0	39245	4497	0	44152	
5259	0	39368	4498	0	44204	
5260	0	39072	4499	0	44359	
5261	0	39064	4500	0	44390	
5262	0	39244	4501	0	44164	
5263	0	39364	4502	0	44212	
5264	0	39072	4503	0	44349	
5265	0	39068	4504	0	44392	
5266	0	39244	4505	0	44166	
5267	0	39360	4506	0	44216	
5268	0	39064	4507	0	44342	
5269	0	39068	4508	0	44396	
5270	0	39240	4509	0	44157	
5271	0	39360	4510	0	44231	
5272	0	39072	4511	0	44358	
5273	0	39072	4512	0	44392	
5274	0	39240	4513	0	44167	
5275	0	39380	4514	0	44231	
5276	0	39060	4515	0	44366	
5277	0	39072	4516	0	44390	
5278	0	39248	4517	0	44178	
5279	0	39376	4518	0	44238	
5280	0	39073	4519	0	44367	
5281	0	39088	4520	0	44398	
5282	0	39256	4521	0	44174	
5283	0	39376	4522	0	44240	
5284	0	39092	4523	0	44378	
5285	0	39076	4524	0	44411	
5286	0	39252	4525	0	44188	
5287	0	39372	4526	0	44228	
5288	0	39080	4527	0	44376	
5289	0	39080	4528	0	44398	
5290	0	39264	4529	0	44192	
5291	0	39376	4530	0	44251	
5292	0	39088	4531	0	44391	
5293	0	39104	4532	0	44416	
5294	0	39272	4533	0	44199	
5295	0	39384	4534	0	44260	
5296	0	39096	4535	0	44398	
5297	0	39108	4536	0	44416	
5298	0	39276	4537	0	44190	
5299	0	39396	4538	0	44260	
5300	0	39104	4539	0	44399	
5301	0	39096	4540	0	44423	
5302	0	39272	4541	0	44198	
5303	0	39396	4542	0	44272	
5304	0	39112	4543	0	44408	
5305	0	39096	4544	0	44422	
5306	0	39264	4545	0	44198	
5307	0	39400	4546	0	44279	
5308	0	39104	4547	0	44396	
5309	0	39104	4548	0	44416	
5310	0	39260	4549	0	44206	
5311	0	39400	4550	0	44287	
5312	0	39096	4551	0	44406	
5313	0	39108	4552	0	44423	
5314	0	39272	4553	0	44196	
5315	0	39408	4554	0	44280	
5316	0	39108	4555	0	44416	
5317	0	39104	4556	0	44443	
5318	0	39280	4557	0	44208	
5319	0	39416	4558	0	44284	
5320	0	39116	4559	0	44423	
5321	0	39120	4560	0	44423	
5322	0	39300	4561	0	44214	
5323	0	39404	4562	0	44294	
5324	0	39121	4563	0	44420	
5325	0	39128	4564	0	44432	
5326	0	39296	4565	0	44215	
5327	0	39416	4566	0	44292	
5328	0	39112	4567	0	44423	
5329	0	39104	4568	0	44436	
5330	0	39292	4569	0	44206	
5331	0	39404	4570	0	44295	
5332	0	39128	4571	0	44428	
5333	0	39120	4572	0	44436	
5334	0	39304	4573	0	44221	
5335	0	39408	4574	0	44304	
5336	0	39124	4575	0	44426	
5337	0	39128	4576	0	44428	
5338	0	39300	4577	0	44223	
5339	0	39420	4578	0	44310	
5340	0	39108	4579	0	44444	
5341	0	39140	4580	0	44442	
5342	0	39316	4581	0	44231	
5343	0	39412	4582	0	44308	
5344	0	39124	4583	0	44436	
5345	0	39136	4584	0	44442	
5346	0	39308	4585	0	44212	
5347	0	39416	4586	0	44303	
5348	0	39120	4587	0	44434	
5349	0	39128	4588	0	44432	
5350	0	39292	4589	0	44218	
5351	0	39412	4590	0	44313	
5352	0	39124	4591	0	44440	
5353	0	39128	4592	0	44434	
5354	0	39312	4593	0	44228	
5355	0	39408	4594	0	44312	
5356	0	39116	4595	0	44440	
5357	0	39136	4596	0	44439	
5358	0	39296	4597	0	44216	
5359	0	39412	4598	0	44314	
5360	0	39120	4599	0	44454	
5361	0	39136	4600	0	44434	
5362	0	39320	4601	0	44208	
5363	0	39412	4602	0	44313	
5364	0	39120	4603	0	44448	
5365	0	39148	4604	0	44429	
5366	0	39300	4605	0	44218	
5367	0	39404	4606	0	44316	
5368	0	39112	4607	0	44434	
5369	0	39132	4608	0	44423	
5370	0	39296	4609	0	44208	
5371	0	39408	4610	0	44321	
5372	0	39104	4611	0	44460	
5373	0	39148	4612	0	44423	
5374	0	39304	4613	0	44216	
5375	0	39412	4614	0	44332	
5376	0	39112	4615	0	44444	
5377	0	39136	4616	0	44438	
5378	0	39312	4617	0	44223	
5379	0	39400	4618	0	44324	
5380	0	39116	4619	0	44455	
5381	0	39132	4620	0	44443	
5382	0	39316	4621	0	44216	
5383	0	39404	4622	0	44342	
5384	0	39120	4623	0	44460	
5385	0	39152	4624	0	44430	
5386	0	39316	4625	0	44223	
5387	0	39404	4626	0	44322	
5388	0	39108	4627	0	44468	
5389	0	39152	4628	0	44423	
5390	0	39316	4629	0	44212	
5391	0	39404	4630	0	44332	
5392	0	39120	4631	0	44464	
5393	0	39148	4632	0	44429	
5394	0	39320	4633	0	44220	
5395	0	39404	4634	0	44340	
5396	0	39116	4635	0	44476	
5397	0	39160	4636	0	44437	
5398	0	39328	4637	0	44224	
5399	0	39392	4638	0	44340	
5400	0	39120	4639	0	44483	
5401	0	39164	4640	0	44436	
5402	0	39344	4641	0	44228	
5403	0	39404	4642	0	44359	
5404	0	39128	4643	0	44484	
5405	0	39172	4644	0	44444	
5406	0	39336	4645	0	44237	
5407	0	39408	4646	0	44352	
5408	0	39126	4647	0	44487	
5409	0	39164	4648	0	44450	
5410	0	39320	4649	0	44226	
5411	0	39392	4650	0	44357	
5412	0	39120	4651	0	44487	
5413	0	39172	4652	0	44439	
5414	0	39328	4653	0	44230	
5415	0	39404	4654	0	44368	
5416	0	39136	4655	0	44493	
5417	0	39168	4656	0	44440	
5418	0	39348	4657	0	44230	
5419	0	39392	4658	0	44359	
5420	0	39132	4659	0	44488	
5421	0	39176	4660	0	44440	
5422	0	39348	4661	0	44242	
5423	0	39420	4662	0	44377	
5424	0	39120	4663	0	44496	
5425	0	39184	4664	0	44448	
5426	0	39348	4665	0	44231	
5427	0	39416	4666	0	44374	
5428	0	39124	4667	0	44502	
5429	0	39184	4668	0	44442	
5430	0	39340	4669	0	44247	
5431	0	39408	4670	0	44370	
5432	0	39128	4671	0	44497	
5433	0	39184	4672	0	44447	
5434	0	39340	4673	0	44237	
5435	0	39420	4674	0	44376	
5436	0	39136	4675	0	44508	
5437	0	39176	4676	0	44448	
5438	0	39352	4677	0	44231	
5439	0	39412	4678	0	44382	
5440	0	39128	4679	0	44511	
5441	0	39184	4680	0	44440	
5442	0	39348	4681	0	44240	
5443	0	39431	4682	0	44381	
5444	0	39140	4683	0	44509	
5445	0	39176	4684	0	44454	
5446	0	39358	4685	0	44249	
5447	0	39420	4686	0	44390	
5448	0	39144	4687	0	44505	
5449	0	39172	4688	0	44451	
5450	0	39336	4689	0	44231	
5451	0	39412	4690	0	44376	
5452	0	39128	4691	0	44516	
5453	0	39176	4692	0	44458	
5454	0	39328	4693	0	44236	
5455	0	39424	4694	0	44381	
5456	0	39136	4695	0	44508	
5457	0	39168	4696	0	44442	
5458	0	39328	4697	0	44234	
5459	0	39420	4698	0	44388	
5460	0	39128	4699	0	44508	
5461	0	39178	4700	0	44436	
5462	0	39348	4701	0	44241	
5463	0	39424	4702	0	44396	
5464	0	39144	4703	0	44516	
5465	0	39184	4704	0	44454	
5466	0	39340	4705	0	44240	
5467	0	39416	4706	0	44402	
5468	0	39144	4707	0	44525	
5469	0	39168	4708	0	44440	
5470	0	39348	4709	0	44237	
5471	0	39408	4710	0	44394	
5472	0	39136	4711	0	44516	
5473	0	39174	4712	0	44450	
5474	0	39340	4713	0	44239	
5475	0	39428	4714	0	44390	
5476	0	39130	4715	0	44516	
5477	0	39172	4716	0	44448	
5478	0	39336	4717	0	44228	
5479	0	39420	4718	0	44384	
5480	0	39140	4719	0	44518	
5481	0	39160	4720	0	44447	
5482	0	39328	4721	0	44232	
5483	0	39428	4722	0	44404	
5484	0	39156	4723	0	44535	
5485	0	39168	4724	0	44455	
5486	0	39344	4725	0	44236	
5487	0	39440	4726	0	44398	
5488	0	39140	4727	0	44514	
5489	0	39168	4728	0	44444	
5490	0	39336	4729	0	44238	
5491	0	39430	4730	0	44396	
5492	0	39148	4731	0	44518	
5493	0	39174	4732	0	44444	
5494	0	39336	4733	0	44232	
5495	0	39424	4734	0	44400	
5496	0	39144	4735	0	44512	
5497	0	39174	4736	0	44455	
5498	0	39332	4737	0	44236	
5499	0	39432	4738	0	44404	
5500	0	39136	4739	0	44524	
5501	0	39180	4740	0	44436	
5502	0	39348	4741	0	44240	
5503	0	39436	4742	0	44413	
5504	0	39148	4743	0	44524	
5505	0	39172	4744	0	44438	
5506	0	39336	4745	0	44230	
5507	0	39446	4746	0	44406	
5508	0	39132	4747	0	44524	
5509	0	39184	4748	0	44457	
5510	0	39336	4749	0	44231	
5511	0	39424	4750	0	44402	
5512	0	39144	4751	0	44521	
5513	0	39180	4752	0	44441	
5514	0	39344	4753	0	44233	
5515	0	39440	4754	0	44392	
5516	0	39144	4755	0	44539	
5517	0	39175	4756	0	44436	
5518	0	39336	4757	0	44228	
5519	0	39420	4758	0	44396	
5520	0	39144	4759	0	44528	
5521	0	39164	4760	0	44440	
5522	0	39348	4761	0	44237	
5523	0	39444	4762	0	44400	
5524	0	39132	4763	0	44527	
5525	0	39184	4764	0	44444	
5526	0	39344	4765	0	44233	
5527	0	39428	4766	0	44402	
5528	0	39148	4767	0	44524	
5529	0	39180	4768	0	44444	
5530	0	39328	4769	0	44231	
5531	0	39432	4770	0	44409	
5532	0	39141	4771	0	44534	
5533	0	39168	4772	0	44440	
5534	0	39336	4773	0	44230	
5535	0	39428	4774	0	44391	
5536	0	39136	4775	0	44530	
5537	0	39156	4776	0	44423	
5538	0	39336	4777	0	44226	
5539	0	39430	4778	0	44408	
5540	0	39132	4779	0	44512	
5541	0	39164	4780	0	44436	
5542	0	39328	4781	0	44228	
5543	0	39424	4782	0	44404	
5544	0	39140	4783	0	44529	
5545	0	39164	4784	0	44432	
5546	0	39324	4785	0	44231	
5547	0	39428	4786	0	44394	
5548	0	39124	4787	0	44514	
5549	0	39148	4788	0	44432	
5550	0	39336	4789	0	44231	
5551	0	39424	4790	0	44396	
5552	0	39128	4791	0	44521	
5553	0	39152	4792	0	44423	
5554	0	39320	4793	0	44228	
5555	0	39412	4794	0	44400	
5556	0	39116	4795	0	44512	
5557	0	39160	4796	0	44423	
5558	0	39312	4797	0	44224	
5559	0	39408	4798	0	44393	
5560	0	39116	4799	0	44512	
5561	0	39168	4800	0	44422	
5562	0	39328	4801	0	44231	
5563	0	39408	4802	0	44408	
5564	0	39132	4803	0	44520	
5565	0	39168	4804	0	44439	
5566	0	39328	4805	0	44231	
5567	0	39420	4806	0	44398	
5568	0	39132	4807	0	44525	
5569	0	39160	4808	0	44434	
5570	0	39328	4809	0	44230	
5571	0	39416	4810	0	44404	
5572	0	39132	4811	0	44523	
5573	0	39168	4812	0	44434	
5574	0	39340	4813	0	44224	
5575	0	39420	4814	0	44412	
5576	0	39132	4815	0	44535	
5577	0	39172	4816	0	44423	
5578	0	39334	4817	0	44226	
5579	0	39420	4818	0	44404	
5580	0	39132	4819	0	44527	
5581	0	39164	4820	0	44436	
5582	0	39328	4821	0	44245	
5583	0	39424	4822	0	44418	
5584	0	39136	4823	0	44538	
5585	0	39180	4824	0	44436	
5586	0	39344	4825	0	44251	
5587	0	39440	4826	0	44417	
5588	0	39136	4827	0	44548	
5589	0	39188	4828	0	44434	
5590	0	39348	4829	0	44240	
5591	0	39432	4830	0	44416	
5592	0	39136	4831	0	44532	
5593	0	39172	4832	0	44434	
5594	0	39344	4833	0	44253	
5595	0	39440	4834	0	44422	
5596	0	39148	4835	0	44534	
5597	0	39176	4836	0	44434	
5598	0	39336	4837	0	44246	
5599	0	39428	4838	0	44412	
5600	0	39128	4839	0	44527	
5601	0	39172	4840	0	44428	
5602	0	39348	4841	0	44246	
5603	0	39424	4842	0	44414	
5604	0	39144	4843	0	44540	
5605	0	39176	4844	0	44423	
5606	0	39356	4845	0	44262	
5607	0	39436	4846	0	44423	
5608	0	39164	4847	0	44551	
5609	0	39172	4848	0	44444	
5610	0	39348	4849	0	44254	
5611	0	39428	4850	0	44438	
5612	0	39152	4851	0	44549	
5613	0	39198	4852	0	44436	
5614	0	39348	4853	0	44252	
5615	0	39436	4854	0	44420	
5616	0	39148	4855	0	44546	
5617	0	39184	4856	0	44434	
5618	0	39336	4857	0	44258	
5619	0	39432	4858	0	44423	
5620	0	39140	4859	0	44547	
5621	0	39184	4860	0	44439	
5622	0	39356	4861	0	44260	
5623	0	39428	4862	0	44420	
5624	0	39152	4863	0	44551	
5625	0	39184	4864	0	44436	
5626	0	39352	4865	0	44266	
5627	0	39444	4866	0	44422	
5628	0	39160	4867	0	44543	
5629	0	39188	4868	0	44434	
5630	0	39352	4869	0	44281	
5631	0	39448	4870	0	44432	
5632	0	39172	4871	0	44551	
5633	0	39184	4872	0	44436	
5634	0	39364	4873	0	44278	
5635	0	39444	4874	0	44432	
5636	0	39172	4875	0	44551	
5637	0	39180	4876	0	44431	
5638	0	39348	4877	0	44272	
5639	0	39448	4878	0	44423	
5640	0	39160	4879	0	44548	
5641	0	39168	4880	0	44423	
5642	0	39348	4881	0	44276	
5643	0	39452	4882	0	44436	
5644	0	39164	4883	0	44551	
5645	0	39176	4884	0	44423	
5646	0	39348	4885	0	44277	
5647	0	39452	4886	0	44433	
5648	0	39160	4887	0	44551	
5649	0	39184	4888	0	44410	
5650	0	39348	4889	0	44279	
5651	0	39456	4890	0	44445	
5652	0	39180	4891	0	44579	
5653	0	39192	4892	0	44423	
5654	0	39364	4893	0	44280	
5655	0	39440	4894	0	44444	
5656	0	39168	4895	0	44551	
5657	0	39192	4896	0	44423	
5658	0	39356	4897	0	44280	
5659	0	39448	4898	0	44423	
5660	0	39148	4899	0	44551	
5661	0	39176	4900	0	44402	
5662	0	39352	4901	0	44282	
5663	0	39448	4902	0	44430	
5664	0	39152	4903	0	44551	
5665	0	39188	4904	0	44408	
5666	0	39356	4905	0	44280	
5667	0	39444	4906	0	44450	
5668	0	39152	4907	0	44566	
5669	0	39196	4908	0	44412	
5670	0	39356	4909	0	44295	
5671	0	39448	4910	0	44440	
5672	0	39156	4911	0	44551	
5673	0	39184	4912	0	44408	
5674	0	39364	4913	0	44292	
5675	0	39456	4914	0	44444	
5676	0	39160	4915	0	44551	
5677	0	39192	4916	0	44393	
5678	0	39352	4917	0	44292	
5679	0	39450	4918	0	44440	
5680	0	39148	4919	0	44551	
5681	0	39172	4920	0	44398	
5682	0	39348	4921	0	44295	
5683	0	39432	4922	0	44448	
5684	0	39145	4923	0	44551	
5685	0	39192	4924	0	44398	
5686	0	39332	4925	0	44309	
5687	0	39440	4926	0	44444	
5688	0	39148	4927	0	44551	
5689	0	39188	4928	0	44396	
5690	0	39352	4929	0	44295	
5691	0	39444	4930	0	44444	
5692	0	39156	4931	0	44572	
5693	0	39194	4932	0	44393	
5694	0	39352	4933	0	44295	
5695	0	39448	4934	0	44450	
5696	0	39152	4935	0	44572	
5697	0	39184	4936	0	44390	
5698	0	39356	4937	0	44295	
5699	0	39440	4938	0	44446	
5700	0	39152	4939	0	44551	
5701	0	39184	4940	0	44380	
5702	0	39356	4941	0	44292	
5703	0	39444	4942	0	44459	
5704	0	39160	4943	0	44568	
5705	0	39180	4944	0	44384	
5706	0	39352	4945	0	44311	
5707	0	39444	4946	0	44462	
5708	0	39148	4947	0	44551	
5709	0	39184	4948	0	44378	
5710	0	39340	4949	0	44306	
5711	0	39440	4950	0	44448	
5712	0	39160	4951	0	44583	
5713	0	39196	4952	0	44389	
5714	0	39352	4953	0	44310	
5715	0	39440	4954	0	44456	
5716	0	39156	4955	0	44578	
5717	0	39188	4956	0	44388	
5718	0	39352	4957	0	44302	
5719	0	39440	4958	0	44457	
5720	0	39148	4959	0	44577	
5721	0	39188	4960	0	44376	
5722	0	39364	4961	0	44314	
5723	0	39432	4962	0	44471	
5724	0	39156	4963	0	44580	
5725	0	39180	4964	0	44381	
5726	0	39364	4965	0	44310	
5727	0	39431	4966	0	44452	
5728	0	39152	4967	0	44577	
5729	0	39184	4968	0	44372	
5730	0	39340	4969	0	44322	
5731	0	39428	4970	0	44452	
5732	0	39148	4971	0	44583	
5733	0	39200	4972	0	44360	
5734	0	39368	4973	0	44324	
5735	0	39432	4974	0	44466	
5736	0	39156	4975	0	44576	
5737	0	39192	4976	0	44368	
5738	0	39368	4977	0	44316	
5739	0	39424	4978	0	44464	
5740	0	39152	4979	0	44566	
5741	0	39193	4980	0	44356	
5742	0	39360	4981	0	44304	
5743	0	39428	4982	0	44454	
5744	0	39140	4983	0	44572	
5745	0	39204	4984	0	44358	
5746	0	39360	4985	0	44321	
5747	0	39424	4986	0	44459	
5748	0	39140	4987	0	44569	
5749	0	39200	4988	0	44352	
5750	0	39360	4989	0	44304	
5751	0	39412	4990	0	44456	
5752	0	39144	4991	0	44582	
5753	0	39192	4992	0	44358	
5754	0	39360	4993	0	44327	
5755	0	39428	4994	0	44460	
5756	0	39144	4995	0	44583	
5757	0	39196	4996	0	44359	
5758	0	39380	4997	0	44324	
5759	0	39428	4998	0	44456	
5760	0	39148	4999	0	44583	
5761	0	39192	5000	0	44352	
5762	0	39360	5001	0	44324	
5763	0	39408	5002	0	44468	
5764	0	39148	5003	0	44576	
5765	0	39184	5004	0	44354	
5766	0	39348	5005	0	44325	
5767	0	39424	5006	0	44464	
5768	0	39142	5007	0	44579	
5769	0	39192	5008	0	44328	
5770	0	39360	5009	0	44325	
5771	0	39428	5010	0	44472	
5772	0	39156	5011	0	44581	
5773	0	39198	5012	0	44340	
5774	0	39360	5013	0	44320	
5775	0	39432	5014	0	44474	
5776	0	39148	5015	0	44583	
5777	0	39196	5016	0	44332	
5778	0	39364	5017	0	44334	
5779	0	39432	5018	0	44466	
5780	0	39152	5019	0	44587	
5781	0	39200	5020	0	44338	
5782	0	39348	5021	0	44322	
5783	0	39424	5022	0	44464	
5784	0	39136	5023	0	44578	
5785	0	39184	5024	0	44321	
5786	0	39360	5025	0	44324	
5787	0	39424	5026	0	44462	
5788	0	39140	5027	0	44573	
5789	0	39188	5028	0	44327	
5790	0	39368	5029	0	44320	
5791	0	39420	5030	0	44478	
5792	0	39144	5031	0	44551	
5793	0	39200	5032	0	44329	
5794	0	39360	5033	0	44343	
5795	0	39436	5034	0	44468	
5796	0	39144	5035	0	44564	
5797	0	39192	5036	0	44320	
5798	0	39360	5037	0	44340	
5799	0	39428	5038	0	44460	
5800	0	39140	5039	0	44551	
5801	0	39200	5040	0	44317	
5802	0	39360	5041	0	44340	
5803	0	39428	5042	0	44466	
5804	0	39148	5043	0	44551	
5805	0	39196	5044	0	44317	
5806	0	39360	5045	0	44333	
5807	0	39412	5046	0	44461	
5808	0	39136	5047	0	44546	
5809	0	39196	5048	0	44308	
5810	0	39352	5049	0	44332	
5811	0	39420	5050	0	44474	
5812	0	39148	5051	0	44545	
5813	0	39192	5052	0	44296	
5814	0	39368	5053	0	44330	
5815	0	39412	5054	0	44470	
5816	0	39141	5055	0	44532	
5817	0	39196	5056	0	44295	
5818	0	39360	5057	0	44322	
5819	0	39424	5058	0	44452	
5820	0	39136	5059	0	44532	
5821	0	39208	5060	0	44288	
5822	0	39360	5061	0	44326	
5823	0	39428	5062	0	44454	
5824	0	39140	5063	0	44516	
5825	0	39192	5064	0	44295	
5826	0	39356	5065	0	44316	
5827	0	39404	5066	0	44452	
5828	0	39128	5067	0	44512	
5829	0	39192	5068	0	44277	
5830	0	39356	5069	0	44316	
5831	0	39412	5070	0	44467	
5832	0	39120	5071	0	44514	
5833	0	39184	5072	0	44272	
5834	0	39352	5073	0	44324	
5835	0	39412	5074	0	44456	
5836	0	39120	5075	0	44513	
5837	0	39196	5076	0	44272	
5838	0	39356	5077	0	44312	
5839	0	39404	5078	0	44448	
5840	0	39136	5079	0	44505	
5841	0	39188	5080	0	44264	
5842	0	39344	5081	0	44310	
5843	0	39396	5082	0	44448	
5844	0	39116	5083	0	44493	
5845	0	39176	5084	0	44271	
5846	0	39348	5085	0	44314	
5847	0	39376	5086	0	44447	
5848	0	39088	5087	0	44482	
5849	0	39188	5088	0	44244	
5850	0	39340	5089	0	44309	
5851	0	39370	5090	0	44440	
5852	0	39096	5091	0	44487	
5853	0	39188	5092	0	44263	
5854	0	39348	5093	0	44317	
5855	0	39360	5094	0	44447	
5856	0	39100	5095	0	44478	
5857	0	39168	5096	0	44255	
5858	0	39332	5097	0	44303	
5859	0	39364	5098	0	44440	
5860	0	39088	5099	0	44474	
5861	0	39176	5100	0	44246	
5862	0	39352	5101	0	44320	
5863	0	39368	5102	0	44445	
5864	0	39088	5103	0	44462	
5865	0	39172	5104	0	44236	
5866	0	39332	5105	0	44316	
5867	0	39352	5106	0	44440	
5868	0	39076	5107	0	44452	
5869	0	39176	5108	0	44236	
5870	0	39328	5109	0	44306	
5871	0	39344	5110	0	44432	
5872	0	39080	5111	0	44466	
5873	0	39176	5112	0	44231	
5874	0	39336	5113	0	44306	
5875	0	39356	5114	0	44436	
5876	0	39076	5115	0	44471	
5877	0	39168	5116	0	44237	
5878	0	39340	5117	0	44314	
5879	0	39354	5118	0	44430	
5880	0	39084	5119	0	44452	
5881	0	39172	5120	0	44237	
5882	0	39332	5121	0	44317	
5883	0	39352	5122	0	44441	
5884	0	39092	5123	0	44444	
5885	0	39176	5124	0	44231	
5886	0	39328	5125	0	44308	
5887	0	39360	5126	0	44445	
5888	0	39072	5127	0	44444	
5889	0	39168	5128	0	44231	
5890	0	39336	5129	0	44313	
5891	0	39340	5130	0	44446	
5892	0	39080	5131	0	44434	
5893	0	39168	5132	0	44230	
5894	0	39340	5133	0	44321	
5895	0	39360	5134	0	44444	
5896	0	39076	5135	0	44454	
5897	0	39184	5136	0	44231	
5898	0	39332	5137	0	44327	
5899	0	39360	5138	0	44448	
5900	0	39080	5139	0	44442	
5901	0	39185	5140	0	44223	
5902	0	39352	5141	0	44324	
5903	0	39364	5142	0	44460	
5904	0	39090	5143	0	44444	
5905	0	39180	5144	0	44224	
5906	0	39348	5145	0	44328	
5907	0	39352	5146	0	44448	
5908	0	39080	5147	0	44436	
5909	0	39176	5148	0	44212	
5910	0	39340	5149	0	44324	
5911	0	39357	5150	0	44456	
5912	0	39088	5151	0	44444	
5913	0	39176	5152	0	44221	
5914	0	39340	5153	0	44332	
5915	0	39348	5154	0	44460	
5916	0	39100	5155	0	44446	
5917	0	39176	5156	0	44231	
5918	0	39348	5157	0	44332	
5919	0	39344	5158	0	44463	
5920	0	39080	5159	0	44428	
5921	0	39180	5160	0	44231	
5922	0	39344	5161	0	44325	
5923	0	39360	5162	0	44460	
5924	0	39088	5163	0	44438	
5925	0	39180	5164	0	44216	
5926	0	39336	5165	0	44328	
5927	0	39356	5166	0	44462	
5928	0	39088	5167	0	44422	
5929	0	39176	5168	0	44214	
5930	0	39340	5169	0	44328	
5931	0	39360	5170	0	44460	
5932	0	39076	5171	0	44420	
5933	0	39176	5172	0	44210	
5934	0	39332	5173	0	44336	
5935	0	39344	5174	0	44456	
5936	0	39076	5175	0	44420	
5937	0	39168	5176	0	44196	
5938	0	39340	5177	0	44341	
5939	0	39352	5178	0	44477	
5940	0	39076	5179	0	44411	
5941	0	39173	5180	0	44210	
5942	0	39332	5181	0	44344	
5943	0	39352	5182	0	44466	
5944	0	39076	5183	0	44409	
5945	0	39184	5184	0	44204	
5946	0	39342	5185	0	44351	
5947	0	39336	5186	0	44472	
5948	0	39072	5187	0	44398	
5949	0	39172	5188	0	44196	
5950	0	39332	5189	0	44336	
5951	0	39332	5190	0	44457	
5952	0	39064	5191	0	44405	
5953	0	39172	5192	0	44191	
5954	0	39328	5193	0	44338	
5955	0	39328	5194	0	44450	
5956	0	39064	5195	0	44396	
5957	0	39162	5196	0	44186	
5958	0	39316	5197	0	44336	
5959	0	39324	5198	0	44457	
5960	0	39060	5199	0	44384	
5961	0	39156	5200	0	44182	
5962	0	39324	5201	0	44332	
5963	0	39336	5202	0	44462	
5964	0	39056	5203	0	44391	
5965	0	39158	5204	0	44182	
5966	0	39320	5205	0	44326	
5967	0	39316	5206	0	44468	
5968	0	39056	5207	0	44382	
5969	0	39160	5208	0	44174	
5970	0	39316	5209	0	44324	
5971	0	39312	5210	0	44455	
5972	0	39048	5211	0	44368	
5973	0	39153	5212	0	44167	
5974	0	39316	5213	0	44320	
5975	0	39316	5214	0	44446	
5976	0	39040	5215	0	44377	
5977	0	39152	5216	0	44164	
5978	0	39312	5217	0	44326	
5979	0	39300	5218	0	44456	
5980	0	39040	5219	0	44356	
5981	0	39144	5220	0	44167	
5982	0	39320	5221	0	44332	
5983	0	39308	5222	0	44456	
5984	0	39040	5223	0	44362	
5985	0	39160	5224	0	44163	
5986	0	39324	5225	0	44341	
5987	0	39316	5226	0	44452	
5988	0	39046	5227	0	44357	
5989	0	39152	5228	0	44163	
5990	0	39300	5229	0	44326	
5991	0	39312	5230	0	44444	
5992	0	39036	5231	0	44356	
5993	0	39156	5232	0	44166	
5994	0	39316	5233	0	44328	
5995	0	39316	5234	0	44466	
5996	0	39040	5235	0	44354	
5997	0	39156	5236	0	44156	
5998	0	39304	5237	0	44333	
5999	0	39320	5238	0	44441	
6000	0	39032	5239	0	44344	
6001	0	39140	5240	0	44164	
6002	0	39308	5241	0	44329	
6003	0	39308	5242	0	44455	
6004	0	39052	5243	0	44336	
6005	0	39148	5244	0	44167	
6006	0	39312	5245	0	44338	
6007	0	39328	5246	0	44460	
6008	0	39040	5247	0	44337	
6009	0	39140	5248	0	44166	
6010	0	39308	5249	0	44340	
6011	0	39316	5250	0	44455	
6012	0	39048	5251	0	44320	
6013	0	39152	5252	0	44167	
6014	0	39304	5253	0	44329	
6015	0	39316	5254	0	44444	
6016	0	39044	5255	0	44314	
6017	0	39128	5256	0	44164	
6018	0	39292	5257	0	44320	
6019	0	39316	5258	0	44454	
6020	0	39036	5259	0	44316	
6021	0	39124	5260	0	44167	
6022	0	39300	5261	0	44330	
6023	0	39324	5262	0	44452	
6024	0	39052	5263	0	44310	
6025	0	39124	5264	0	44164	
6026	0	39296	5265	0	44328	
6027	0	39324	5266	0	44458	
6028	0	39053	5267	0	44308	
6029	0	39136	5268	0	44156	
6030	0	39284	5269	0	44320	
6031	0	39332	5270	0	44448	
6032	0	39048	5271	0	44295	
6033	0	39128	5272	0	44167	
6034	0	39292	5273	0	44327	
6035	0	39300	5274	0	44447	
6036	0	39053	5275	0	44304	
6037	0	39128	5276	0	44167	
6038	0	39293	5277	0	44322	
6039	0	39312	5278	0	44438	
6040	0	39040	5279	0	44295	
6041	0	39128	5280	0	44154	
6042	0	39280	5281	0	44318	
6043	0	39312	5282	0	44448	
6044	0	39032	5283	0	44290	
6045	0	39134	5284	0	44162	
6046	0	39288	5285	0	44312	
6047	0	39304	5286	0	44436	
6048	0	39040	5287	0	44285	
6049	0	39108	5288	0	44167	
6050	0	39296	5289	0	44326	
6051	0	39316	5290	0	44447	
6052	0	39044	5291	0	44272	
6053	0	39116	5292	0	44160	
6054	0	39276	5293	0	44314	
6055	0	39320	5294	0	44423	
6056	0	39032	5295	0	44264	
6057	0	39112	5296	0	44164	
6058	0	39284	5297	0	44311	
6059	0	39300	5298	0	44436	
6060	0	39036	5299	0	44258	
6061	0	39108	5300	0	44160	
6062	0	39280	5301	0	44306	
6063	0	39312	5302	0	44438	
6064	0	39036	5303	0	44256	
6065	0	39112	5304	0	44162	
6066	0	39284	5305	0	44305	
6067	0	39316	5306	0	44423	
6068	0	39040	5307	0	44252	
6069	0	39108	5308	0	44160	
6070	0	39272	5309	0	44314	
6071	0	39324	5310	0	44423	
6072	0	39044	5311	0	44249	
6073	0	39116	5312	0	44148	
6074	0	39272	5313	0	44304	
6075	0	39312	5314	0	44420	
6076	0	39047	5315	0	44251	
6077	0	39112	5316	0	44148	
6078	0	39268	5317	0	44295	
6079	0	39304	5318	0	44423	
6080	0	39024	5319	0	44224	
6081	0	39100	5320	0	44144	
6082	0	39268	5321	0	44295	
6083	0	39328	5322	0	44422	
6084	0	39036	5323	0	44218	
6085	0	39108	5324	0	44148	
6086	0	39280	5325	0	44304	
6087	0	39320	5326	0	44423	
6088	0	39044	5327	0	44216	
6089	0	39104	5328	0	44155	
6090	0	39272	5329	0	44302	
6091	0	39316	5330	0	44423	
6092	0	39040	5331	0	44210	
6093	0	39092	5332	0	44152	
6094	0	39264	5333	0	44297	
6095	0	39312	5334	0	44414	
6096	0	39046	5335	0	44204	
6097	0	39104	5336	0	44140	
6098	0	39264	5337	0	44295	
6099	0	39300	5338	0	44414	
6100	0	39032	5339	0	44214	
6101	0	39100	5340	0	44159	
6102	0	39252	5341	0	44289	
6103	0	39304	5342	0	44413	
6104	0	39028	5343	0	44199	
6105	0	39108	5344	0	44144	
6106	0	39264	5345	0	44294	
6107	0	39312	5346	0	44404	
6108	0	39032	5347	0	44192	
6109	0	39096	5348	0	44150	
6110	0	39248	5349	0	44295	
6111	0	39304	5350	0	44414	
6112	0	39028	5351	0	44199	
6113	0	39084	5352	0	44152	
6114	0	39260	5353	0	44282	
6115	0	39304	5354	0	44392	
6116	0	39033	5355	0	44189	
6117	0	39092	5356	0	44132	
6118	0	39252	5357	0	44276	
6119	0	39284	5358	0	44396	
6120	0	39020	5359	0	44178	
6121	0	39076	5360	0	44132	
6122	0	39252	5361	0	44276	
6123	0	39296	5362	0	44392	
6124	0	39028	5363	0	44167	
6125	0	39084	5364	0	44144	
6126	0	39248	5365	0	44280	
6127	0	39292	5366	0	44388	
6128	0	39016	5367	0	44167	
6129	0	39080	5368	0	44130	
6130	0	39232	5369	0	44279	
6131	0	39300	5370	0	44402	
6132	0	39012	5371	0	44167	
6133	0	39080	5372	0	44136	
6134	0	39240	5373	0	44284	
6135	0	39300	5374	0	44396	
6136	0	39012	5375	0	44158	
6137	0	39072	5376	0	44135	
6138	0	39230	5377	0	44265	
6139	0	39293	5378	0	44376	
6140	0	39008	5379	0	44157	
6141	0	39076	5380	0	44124	
6142	0	39232	5381	0	44276	
6143	0	39289	5382	0	44382	
6144	0	39012	5383	0	44148	
6145	0	39060	5384	0	44122	
6146	0	39240	5385	0	44272	
6147	0	39296	5386	0	44386	
6148	0	39012	5387	0	44150	
6149	0	39060	5388	0	44135	
6150	0	39224	5389	0	44272	
6151	0	39304	5390	0	44395	
6152	0	39004	5391	0	44154	
6153	0	39064	5392	0	44124	
6154	0	39236	5393	0	44272	
6155	0	39300	5394	0	44386	
6156	0	39024	5395	0	44144	
6157	0	39068	5396	0	44118	
6158	0	39216	5397	0	44278	
6159	0	39300	5398	0	44378	
6160	0	39008	5399	0	44134	
6161	0	39060	5400	0	44124	
6162	0	39224	5401	0	44271	
6163	0	39308	5402	0	44380	
6164	0	39016	5403	0	44132	
6165	0	39052	5404	0	44124	
6166	0	39228	5405	0	44269	
6167	0	39316	5406	0	44380	
6168	0	39012	5407	0	44129	
6169	0	39060	5408	0	44128	
6170	0	39220	5409	0	44268	
6171	0	39328	5410	0	44395	
6172	0	39028	5411	0	44143	
6173	0	39064	5412	0	44126	
6174	0	39220	5413	0	44276	
6175	0	39336	5414	0	44378	
6176	0	39024	5415	0	44136	
6177	0	39068	5416	0	44135	
6178	0	39216	5417	0	44275	
6179	0	39312	5418	0	44378	
6180	0	39020	5419	0	44132	
6181	0	39044	5420	0	44120	
6182	0	39216	5421	0	44260	
6183	0	39320	5422	0	44380	
6184	0	39016	5423	0	44136	
6185	0	39048	5424	0	44120	
6186	0	39216	5425	0	44269	
6187	0	39316	5426	0	44360	
6188	0	39024	5427	0	44128	
6189	0	39040	5428	0	44122	
6190	0	39224	5429	0	44262	
6191	0	39320	5430	0	44364	
6192	0	39028	5431	0	44128	
6193	0	39052	5432	0	44128	
6194	0	39216	5433	0	44264	
6195	0	39324	5434	0	44378	
6196	0	39032	5435	0	44127	
6197	0	39052	5436	0	44120	
6198	0	39216	5437	0	44256	
6199	0	39312	5438	0	44359	
6200	0	39024	5439	0	44118	
6201	0	39044	5440	0	44120	
6202	0	39228	5441	0	44263	
6203	0	39296	5442	0	44356	
6204	0	39032	5443	0	44124	
6205	0	39040	5444	0	44118	
6206	0	39212	5445	0	44263	
6207	0	39304	5446	0	44359	
6208	0	39020	5447	0	44112	
6209	0	39044	5448	0	44120	
6210	0	39212	5449	0	44248	
6211	0	39312	5450	0	44344	
6212	0	39016	5451	0	44122	
6213	0	39052	5452	0	44118	
6214	0	39224	5453	0	44260	
6215	0	39328	5454	0	44364	
6216	0	39024	5455	0	44122	
6217	0	39032	5456	0	44118	
6218	0	39220	5457	0	44260	
6219	0	39320	5458	0	44359	
6220	0	39028	5459	0	44124	
6221	0	39052	5460	0	44118	
6222	0	39216	5461	0	44257	
6223	0	39328	5462	0	44356	
6224	0	39036	5463	0	44120	
6225	0	39048	5464	0	44135	
6226	0	39216	5465	0	44273	
6227	0	39328	5466	0	44352	
6228	0	39028	5467	0	44122	
6229	0	39048	5468	0	44132	
6230	0	39232	5469	0	44269	
6231	0	39328	5470	0	44359	
6232	0	39040	5471	0	44116	
6233	0	39068	5472	0	44132	
6234	0	39244	5473	0	44269	
6235	0	39344	5474	0	44369	
6236	0	39052	5475	0	44131	
6237	0	39080	5476	0	44140	
6238	0	39244	5477	0	44272	
6239	0	39348	5478	0	44368	
6240	0	39048	5479	0	44124	
6241	0	39072	5480	0	44132	
6242	0	39248	5481	0	44277	
6243	0	39360	5482	0	44379	
6244	0	39060	5483	0	44124	
6245	0	39076	5484	0	44140	
6246	0	39256	5485	0	44285	
6247	0	39364	5486	0	44368	
6248	0	39064	5487	0	44130	
6249	0	39092	5488	0	44150	
6250	0	39269	5489	0	44286	
6251	0	39376	5490	0	44384	
6252	0	39072	5491	0	44146	
6253	0	39104	5492	0	44150	
6254	0	39272	5493	0	44281	
6255	0	39376	5494	0	44391	
6256	0	39092	5495	0	44134	
6257	0	39108	5496	0	44162	
6258	0	39280	5497	0	44295	
6259	0	39380	5498	0	44391	
6260	0	39096	5499	0	44137	
6261	0	39108	5500	0	44152	
6262	0	39288	5501	0	44294	
6263	0	39392	5502	0	44386	
6264	0	39096	5503	0	44148	
6265	0	39108	5504	0	44158	
6266	0	39276	5505	0	44289	
6267	0	39400	5506	0	44380	
6268	0	39112	5507	0	44138	
6269	0	39104	5508	0	44154	
6270	0	39284	5509	0	44302	
6271	0	39416	5510	0	44388	
6272	0	39104	5511	0	44140	
6273	0	39112	5512	0	44156	
6274	0	39284	5513	0	44310	
6275	0	39424	5514	0	44388	
6276	0	39116	5515	0	44158	
6277	0	39120	5516	0	44162	
6278	0	39308	5517	0	44304	
6279	0	39416	5518	0	44391	
6280	0	39112	5519	0	44144	
6281	0	39124	5520	0	44167	
6282	0	39300	5521	0	44304	
6283	0	39436	5522	0	44388	
6284	0	39124	5523	0	44146	
6285	0	39112	5524	0	44156	
6286	0	39288	5525	0	44306	
6287	0	39428	5526	0	44380	
6288	0	39124	5527	0	44140	
6289	0	39104	5528	0	44164	
6290	0	39304	5529	0	44308	
6291	0	39424	5530	0	44384	
6292	0	39136	5531	0	44150	
6293	0	39130	5532	0	44164	
6294	0	39308	5533	0	44316	
6295	0	39436	5534	0	44397	
6296	0	39136	5535	0	44148	
6297	0	39120	5536	0	44167	
6298	0	39312	5537	0	44314	
6299	0	39448	5538	0	44386	
6300	0	39128	5539	0	44162	
6301	0	39128	5540	0	44178	
6302	0	39304	5541	0	44326	
6303	0	39440	5542	0	44384	
6304	0	39128	5543	0	44150	
6305	0	39136	5544	0	44167	
6306	0	39304	5545	0	44310	
6307	0	39444	5546	0	44388	
6308	0	39148	5547	0	44150	
6309	0	39120	5548	0	44167	
6310	0	39300	5549	0	44310	
6311	0	39444	5550	0	44382	
6312	0	39148	5551	0	44158	
6313	0	39136	5552	0	44182	
6314	0	39316	5553	0	44324	
6315	0	39456	5554	0	44392	
6316	0	39144	5555	0	44152	
6317	0	39136	5556	0	44176	
6318	0	39320	5557	0	44327	
6319	0	39460	5558	0	44394	
6320	0	39152	5559	0	44167	
6321	0	39144	5560	0	44190	
6322	0	39328	5561	0	44320	
6323	0	39456	5562	0	44392	
6324	0	39168	5563	0	44159	
6325	0	39144	5564	0	44188	
6326	0	39324	5565	0	44320	
6327	0	39464	5566	0	44393	
6328	0	39168	5567	0	44152	
6329	0	39148	5568	0	44176	
6330	0	39328	5569	0	44324	
6331	0	39460	5570	0	44407	
6332	0	39176	5571	0	44160	
6333	0	39160	5572	0	44197	
6334	0	39344	5573	0	44334	
6335	0	39484	5574	0	44388	
6336	0	39176	5575	0	44150	
6337	0	39172	5576	0	44192	
6338	0	39352	5577	0	44347	
6339	0	39496	5578	0	44412	
6340	0	39176	5579	0	44166	
6341	0	39168	5580	0	44200	
6342	0	39344	5581	0	44336	
6343	0	39504	5582	0	44406	
6344	0	39192	5583	0	44167	
6345	0	39180	5584	0	44192	
6346	0	39352	5585	0	44344	
6347	0	39504	5586	0	44402	
6348	0	39172	5587	0	44164	
6349	0	39168	5588	0	44203	
6350	0	39352	5589	0	44344	
6351	0	39492	5590	0	44419	
6352	0	39196	5591	0	44183	
6353	0	39188	5592	0	44223	
6354	0	39368	5593	0	44344	
6355	0	39504	5594	0	44407	
6356	0	39202	5595	0	44174	
6357	0	39200	5596	0	44200	
6358	0	39384	5597	0	44351	
6359	0	39504	5598	0	44416	
6360	0	39200	5599	0	44167	
6361	0	39200	5600	0	44200	
6362	0	39384	5601	0	44346	
6363	0	39504	5602	0	44412	
6364	0	39204	5603	0	44167	
6365	0	39200	5604	0	44200	
6366	0	39384	5605	0	44354	
6367	0	39512	5606	0	44410	
6368	0	39200	5607	0	44167	
6369	0	39212	5608	0	44207	
6370	0	39376	5609	0	44352	
6371	0	39512	5610	0	44396	
6372	0	39213	5611	0	44164	
6373	0	39200	5612	0	44208	
6374	0	39388	5613	0	44354	
6375	0	39524	5614	0	44409	
6376	0	39212	5615	0	44178	
6377	0	39204	5616	0	44224	
6378	0	39388	5617	0	44359	
6379	0	39524	5618	0	44396	
6380	0	39208	5619	0	44167	
6381	0	39212	5620	0	44230	
6382	0	39392	5621	0	44359	
6383	0	39536	5622	0	44408	
6384	0	39228	5623	0	44174	
6385	0	39216	5624	0	44230	
6386	0	39392	5625	0	44356	
6387	0	39528	5626	0	44396	
6388	0	39216	5627	0	44167	
6389	0	39208	5628	0	44214	
6390	0	39380	5629	0	44357	
6391	0	39528	5630	0	44404	
6392	0	39216	5631	0	44167	
6393	0	39212	5632	0	44231	
6394	0	39376	5633	0	44370	
6395	0	39536	5634	0	44405	
6396	0	39228	5635	0	44166	
6397	0	39216	5636	0	44220	
6398	0	39392	5637	0	44364	
6399	0	39528	5638	0	44409	
6400	0	39232	5639	0	44160	
6401	0	39216	5640	0	44226	
6402	0	39396	5641	0	44367	
6403	0	39544	5642	0	44404	
6404	0	39232	5643	0	44167	
6405	0	39208	5644	0	44226	
6406	0	39392	5645	0	44360	
6407	0	39552	5646	0	44399	
6408	0	39228	5647	0	44164	
6409	0	39204	5648	0	44224	
6410	0	39368	5649	0	44354	
6411	0	39528	5650	0	44389	
6412	0	39220	5651	0	44160	
6413	0	39212	5652	0	44230	
6414	0	39388	5653	0	44370	
6415	0	39524	5654	0	44386	
6416	0	39232	5655	0	44164	
6417	0	39212	5656	0	44226	
6418	0	39396	5657	0	44374	
6419	0	39528	5658	0	44383	
6420	0	39236	5659	0	44157	
6421	0	39204	5660	0	44244	
6422	0	39392	5661	0	44364	
6423	0	39536	5662	0	44391	
6424	0	39244	5663	0	44162	
6425	0	39224	5664	0	44237	
6426	0	39388	5665	0	44378	
6427	0	39544	5666	0	44384	
6428	0	39240	5667	0	44144	
6429	0	39204	5668	0	44240	
6430	0	39392	5669	0	44364	
6431	0	39532	5670	0	44391	
6432	0	39240	5671	0	44150	
6433	0	39220	5672	0	44240	
6434	0	39396	5673	0	44384	
6435	0	39540	5674	0	44384	
6436	0	39244	5675	0	44156	
6437	0	39216	5676	0	44246	
6438	0	39396	5677	0	44384	
6439	0	39536	5678	0	44370	
6440	0	39252	5679	0	44166	
6441	0	39224	5680	0	44252	
6442	0	39408	5681	0	44386	
6443	0	39548	5682	0	44386	
6444	0	39268	5683	0	44156	
6445	0	39236	5684	0	44244	
6446	0	39408	5685	0	44390	
6447	0	39544	5686	0	44384	
6448	0	39268	5687	0	44150	
6449	0	39224	5688	0	44249	
6450	0	39400	5689	0	44391	
6451	0	39540	5690	0	44371	
6452	0	39264	5691	0	44148	
6453	0	39208	5692	0	44263	
6454	0	39396	5693	0	44391	
6455	0	39540	5694	0	44370	
6456	0	39272	5695	0	44132	
6457	0	39224	5696	0	44263	
6458	0	39405	5697	0	44388	
6459	0	39536	5698	0	44368	
6460	0	39268	5699	0	44136	
6461	0	39212	5700	0	44252	
6462	0	39412	5701	0	44407	
6463	0	39552	5702	0	44356	
6464	0	39284	5703	0	44134	
6465	0	39216	5704	0	44260	
6466	0	39416	5705	0	44396	
6467	0	39552	5706	0	44360	
6468	0	39276	5707	0	44146	
6469	0	39216	5708	0	44263	
6470	0	39400	5709	0	44396	
6471	0	39552	5710	0	44353	
6472	0	39288	5711	0	44136	
6473	0	39220	5712	0	44252	
6474	0	39404	5713	0	44388	
6475	0	39566	5714	0	44370	
6476	0	39264	5715	0	44130	
6477	0	39216	5716	0	44264	
6478	0	39404	5717	0	44390	
6479	0	39536	5718	0	44354	
6480	0	39264	5719	0	44132	
6481	0	39224	5720	0	44257	
6482	0	39400	5721	0	44399	
6483	0	39552	5722	0	44359	
6484	0	39280	5723	0	44133	
6485	0	39216	5724	0	44262	
6486	0	39400	5725	0	44392	
6487	0	39544	5726	0	44356	
6488	0	39276	5727	0	44124	
6489	0	39208	5728	0	44260	
6490	0	39396	5729	0	44388	
6491	0	39528	5730	0	44350	
6492	0	39264	5731	0	44120	
6493	0	39204	5732	0	44256	
6494	0	39400	5733	0	44388	
6495	0	39536	5734	0	44340	
6496	0	39264	5735	0	44112	
6497	0	39196	5736	0	44263	
6498	0	39400	5737	0	44382	
6499	0	39536	5738	0	44341	
6500	0	39264	5739	0	44116	
6501	0	39204	5740	0	44271	
6502	0	39388	5741	0	44399	
6503	0	39542	5742	0	44341	
6504	0	39270	5743	0	44121	
6505	0	39192	5744	0	44271	
6506	0	39376	5745	0	44399	
6507	0	39528	5746	0	44342	
6508	0	39264	5747	0	44100	
6509	0	39196	5748	0	44253	
6510	0	39384	5749	0	44390	
6511	0	39534	5750	0	44316	
6512	0	39249	5751	0	44100	
6513	0	39196	5752	0	44248	
6514	0	39380	5753	0	44386	
6515	0	39528	5754	0	44316	
6516	0	39256	5755	0	44102	
6517	0	39196	5756	0	44244	
6518	0	39376	5757	0	44388	
6519	0	39520	5758	0	44314	
6520	0	39248	5759	0	44103	
6521	0	39200	5760	0	44256	
6522	0	39384	5761	0	44398	
6523	0	39528	5762	0	44319	
6524	0	39264	5763	0	44096	
6525	0	39212	5764	0	44269	
6526	0	39392	5765	0	44388	
6527	0	39520	5766	0	44314	
6528	0	39248	5767	0	44103	
6529	0	39200	5768	0	44256	
6530	0	39392	5769	0	44390	
6531	0	39528	5770	0	44304	
6532	0	39252	5771	0	44103	
6533	0	39204	5772	0	44263	
6534	0	39392	5773	0	44381	
6535	0	39520	5774	0	44317	
6536	0	39256	5775	0	44099	
6537	0	39208	5776	0	44256	
6538	0	39380	5777	0	44380	
6539	0	39536	5778	0	44296	
6540	0	39268	5779	0	44101	
6541	0	39204	5780	0	44268	
6542	0	39396	5781	0	44406	
6543	0	39556	5782	0	44326	
6544	0	39268	5783	0	44100	
6545	0	39224	5784	0	44280	
6546	0	39408	5785	0	44408	
6547	0	39536	5786	0	44314	
6548	0	39272	5787	0	44090	
6549	0	39216	5788	0	44291	
6550	0	39412	5789	0	44422	
6551	0	39548	5790	0	44316	
6552	0	39272	5791	0	44103	
6553	0	39228	5792	0	44286	
6554	0	39416	5793	0	44416	
6555	0	39552	5794	0	44326	
6556	0	39268	5795	0	44103	
6557	0	39224	5796	0	44280	
6558	0	39412	5797	0	44412	
6559	0	39552	5798	0	44306	
6560	0	39272	5799	0	44114	
6561	0	39232	5800	0	44295	
6562	0	39424	5801	0	44423	
6563	0	39560	5802	0	44326	
6564	0	39292	5803	0	44125	
6565	0	39240	5804	0	44295	
6566	0	39424	5805	0	44430	
6567	0	39576	5806	0	44324	
6568	0	39296	5807	0	44124	
6569	0	39244	5808	0	44300	
6570	0	39436	5809	0	44423	
6571	0	39580	5810	0	44332	
6572	0	39300	5811	0	44132	
6573	0	39248	5812	0	44308	
6574	0	39444	5813	0	44434	
6575	0	39588	5814	0	44318	
6576	0	39296	5815	0	44128	
6577	0	39244	5816	0	44306	
6578	0	39424	5817	0	44434	
6579	0	39583	5818	0	44324	
6580	0	39280	5819	0	44128	
6581	0	39256	5820	0	44309	
6582	0	39440	5821	0	44434	
6583	0	39588	5822	0	44324	
6584	0	39300	5823	0	44136	
6585	0	39260	5824	0	44320	
6586	0	39448	5825	0	44446	
6587	0	39588	5826	0	44335	
6588	0	39300	5827	0	44136	
6589	0	39256	5828	0	44308	
6590	0	39444	5829	0	44442	
6591	0	39600	5830	0	44326	
6592	0	39308	5831	0	44140	
6593	0	39264	5832	0	44320	
6594	0	39448	5833	0	44452	
6595	0	39584	5834	0	44323	
6596	0	39296	5835	0	44144	
6597	0	39264	5836	0	44317	
6598	0	39440	5837	0	44438	
6599	0	39592	5838	0	44308	
6600	0	39292	5839	0	44134	
6601	0	39265	5840	0	44308	
6602	0	39452	5841	0	44450	
6603	0	39584	5842	0	44325	
6604	0	39284	5843	0	44142	
6605	0	39264	5844	0	44319	
6606	0	39448	5845	0	44450	
6607	0	39600	5846	0	44312	
6608	0	39288	5847	0	44152	
6609	0	39268	5848	0	44312	
6610	0	39452	5849	0	44448	
6611	0	39584	5850	0	44302	
6612	0	39300	5851	0	44159	
6613	0	39264	5852	0	44316	
6614	0	39464	5853	0	44443	
6615	0	39584	5854	0	44306	
6616	0	39288	5855	0	44146	
6617	0	39268	5856	0	44310	
6618	0	39444	5857	0	44440	
6619	0	39588	5858	0	44306	
6620	0	39268	5859	0	44149	
6621	0	39268	5860	0	44331	
6622	0	39448	5861	0	44440	
6623	0	39584	5862	0	44298	
6624	0	39284	5863	0	44160	
6625	0	39272	5864	0	44327	
6626	0	39452	5865	0	44446	
6627	0	39604	5866	0	44304	
6628	0	39284	5867	0	44162	
6629	0	39276	5868	0	44337	
6630	0	39452	5869	0	44448	
6631	0	39600	5870	0	44295	
6632	0	39280	5871	0	44167	
6633	0	39272	5872	0	44332	
6634	0	39461	5873	0	44462	
6635	0	39608	5874	0	44315	
6636	0	39292	5875	0	44167	
6637	0	39276	5876	0	44324	
6638	0	39468	5877	0	44448	
6639	0	39596	5878	0	44284	
6640	0	39280	5879	0	44167	
6641	0	39284	5880	0	44334	
6642	0	39466	5881	0	44464	
6643	0	39604	5882	0	44304	
6644	0	39284	5883	0	44180	
6645	0	39301	5884	0	44340	
6646	0	39472	5885	0	44464	
6647	0	39600	5886	0	44315	
6648	0	39284	5887	0	44180	
6649	0	39300	5888	0	44348	
6650	0	39472	5889	0	44464	
6651	0	39600	5890	0	44306	
6652	0	39292	5891	0	44198	
6653	0	39312	5892	0	44352	
6654	0	39500	5893	0	44476	
6655	0	39616	5894	0	44304	
6656	0	39292	5895	0	44192	
6657	0	39316	5896	0	44356	
6658	0	39492	5897	0	44479	
6659	0	39612	5898	0	44298	
6660	0	39300	5899	0	44190	
6661	0	39312	5900	0	44356	
6662	0	39496	5901	0	44487	
6663	0	39612	5902	0	44316	
6664	0	39312	5903	0	44210	
6665	0	39320	5904	0	44370	
6666	0	39496	5905	0	44476	
6667	0	39624	5906	0	44322	
6668	0	39325	5907	0	44216	
6669	0	39332	5908	0	44370	
6670	0	39520	5909	0	44498	
6671	0	39636	5910	0	44320	
6672	0	39324	5911	0	44221	
6673	0	39356	5912	0	44390	
6674	0	39520	5913	0	44509	
6675	0	39636	5914	0	44326	
6676	0	39340	5915	0	44236	
6677	0	39352	5916	0	44391	
6678	0	39528	5917	0	44514	
6679	0	39624	5918	0	44324	
6680	0	39324	5919	0	44226	
6681	0	39348	5920	0	44396	
6682	0	39528	5921	0	44516	
6683	0	39640	5922	0	44326	
6684	0	39348	5923	0	44242	
6685	0	39368	5924	0	44392	
6686	0	39552	5925	0	44518	
6687	0	39652	5926	0	44344	
6688	0	39340	5927	0	44240	
6689	0	39352	5928	0	44399	
6690	0	39552	5929	0	44516	
6691	0	39640	5930	0	44333	
6692	0	39344	5931	0	44259	
6693	0	39360	5932	0	44408	
6694	0	39564	5933	0	44534	
6695	0	39660	5934	0	44336	
6696	0	39364	5935	0	44263	
6697	0	39384	5936	0	44414	
6698	0	39548	5937	0	44533	
6699	0	39644	5938	0	44338	
6700	0	39348	5939	0	44260	
6701	0	39380	5940	0	44416	
6702	0	39548	5941	0	44536	
6703	0	39656	5942	0	44328	
6704	0	39344	5943	0	44261	
6705	0	39380	5944	0	44416	
6706	0	39548	5945	0	44532	
6707	0	39652	5946	0	44330	
6708	0	39364	5947	0	44263	
6709	0	39372	5948	0	44412	
6710	0	39556	5949	0	44544	
6711	0	39660	5950	0	44336	
6712	0	39364	5951	0	44264	
6713	0	39380	5952	0	44423	
6714	0	39564	5953	0	44551	
6715	0	39680	5954	0	44344	
6716	0	39372	5955	0	44276	
6717	0	39384	5956	0	44438	
6718	0	39564	5957	0	44551	
6719	0	39664	5958	0	44341	
6720	0	39368	5959	0	44280	
6721	0	39372	5960	0	44423	
6722	0	39556	5961	0	44551	
6723	0	39676	5962	0	44340	
6724	0	39372	5963	0	44280	
6725	0	39392	5964	0	44439	
6726	0	39556	5965	0	44549	
6727	0	39676	5966	0	44347	
6728	0	39376	5967	0	44288	
6729	0	39380	5968	0	44439	
6730	0	39564	5969	0	44551	
6731	0	39680	5970	0	44334	
6732	0	39372	5971	0	44288	
6733	0	39384	5972	0	44444	
6734	0	39560	5973	0	44577	
6735	0	39696	5974	0	44344	
6736	0	39388	5975	0	44285	
6737	0	39380	5976	0	44455	
6738	0	39564	5977	0	44564	
6739	0	39684	5978	0	44337	
6740	0	39376	5979	0	44301	
6741	0	39384	5980	0	44447	
6742	0	39560	5981	0	44572	
6743	0	39684	5982	0	44341	
6744	0	39376	5983	0	44311	
6745	0	39388	5984	0	44448	
6746	0	39556	5985	0	44573	
6747	0	39680	5986	0	44339	
6748	0	39380	5987	0	44300	
6749	0	39396	5988	0	44450	
6750	0	39552	5989	0	44573	
6751	0	39680	5990	0	44342	
6752	0	39388	5991	0	44314	
6753	0	39400	5992	0	44461	
6754	0	39568	5993	0	44584	
6755	0	39696	5994	0	44344	
6756	0	39380	5995	0	44316	
6757	0	39396	5996	0	44470	
6758	0	39580	5997	0	44582	
6759	0	39696	5998	0	44336	
6760	0	39380	5999	0	44320	
6761	0	39388	6000	0	44468	
6762	0	39576	6001	0	44588	
6763	0	39696	6002	0	44341	
6764	0	39380	6003	0	44322	
6765	0	39404	6004	0	44464	
6766	0	39568	6005	0	44589	
6767	0	39692	6006	0	44336	
6768	0	39376	6007	0	44324	
6769	0	39400	6008	0	44479	
6770	0	39572	6009	0	44590	
6771	0	39689	6010	0	44338	
6772	0	39388	6011	0	44332	
6773	0	39412	6012	0	44478	
6774	0	39584	6013	0	44607	
6775	0	39708	6014	0	44350	
6776	0	39396	6015	0	44340	
6777	0	39408	6016	0	44487	
6778	0	39576	6017	0	44584	
6779	0	39712	6018	0	44347	
6780	0	39392	6019	0	44348	
6781	0	39412	6020	0	44486	
6782	0	39592	6021	0	44578	
6783	0	39704	6022	0	44348	
6784	0	39396	6023	0	44344	
6785	0	39408	6024	0	44493	
6786	0	39584	6025	0	44588	
6787	0	39708	6026	0	44349	
6788	0	39392	6027	0	44349	
6789	0	39408	6028	0	44496	
6790	0	39572	6029	0	44581	
6791	0	39696	6030	0	44352	
6792	0	39396	6031	0	44356	
6793	0	39412	6032	0	44511	
6794	0	39600	6033	0	44592	
6795	0	39704	6034	0	44359	
6796	0	39400	6035	0	44362	
6797	0	39412	6036	0	44506	
6798	0	39596	6037	0	44608	
6799	0	39712	6038	0	44352	
6800	0	39412	6039	0	44365	
6801	0	39416	6040	0	44513	
6802	0	39600	6041	0	44604	
6803	0	39716	6042	0	44356	
6804	0	39404	6043	0	44364	
6805	0	39432	6044	0	44521	
6806	0	39600	6045	0	44597	
6807	0	39708	6046	0	44359	
6808	0	39400	6047	0	44360	
6809	0	39412	6048	0	44516	
6810	0	39592	6049	0	44610	
6811	0	39712	6050	0	44354	
6812	0	39400	6051	0	44372	
6813	0	39432	6052	0	44527	
6814	0	39604	6053	0	44592	
6815	0	39700	6054	0	44354	
6816	0	39404	6055	0	44384	
6817	0	39432	6056	0	44526	
6818	0	39604	6057	0	44608	
6819	0	39700	6058	0	44364	
6820	0	39396	6059	0	44387	
6821	0	39436	6060	0	44524	
6822	0	39616	6061	0	44604	
6823	0	39696	6062	0	44372	
6824	0	39412	6063	0	44388	
6825	0	39436	6064	0	44524	
6826	0	39612	6065	0	44602	
6827	0	39692	6066	0	44366	
6828	0	39408	6067	0	44383	
6829	0	39432	6068	0	44536	
6830	0	39604	6069	0	44600	
6831	0	39704	6070	0	44362	
6832	0	39406	6071	0	44405	
6833	0	39444	6072	0	44543	
6834	0	39616	6073	0	44608	
6835	0	39708	6074	0	44372	
6836	0	39408	6075	0	44398	
6837	0	39440	6076	0	44545	
6838	0	39624	6077	0	44610	
6839	0	39700	6078	0	44378	
6840	0	39404	6079	0	44423	
6841	0	39460	6080	0	44551	
6842	0	39632	6081	0	44622	
6843	0	39716	6082	0	44387	
6844	0	39408	6083	0	44416	
6845	0	39461	6084	0	44551	
6846	0	39632	6085	0	44609	
6847	0	39720	6086	0	44388	
6848	0	39412	6087	0	44420	
6849	0	39468	6088	0	44551	
6850	0	39624	6089	0	44615	
6851	0	39704	6090	0	44378	
6852	0	39416	6091	0	44423	
6853	0	39468	6092	0	44572	
6854	0	39632	6093	0	44614	
6855	0	39720	6094	0	44388	
6856	0	39424	6095	0	44428	
6857	0	39460	6096	0	44566	
6858	0	39636	6097	0	44624	
6859	0	39716	6098	0	44384	
6860	0	39416	6099	0	44434	
6861	0	39472	6100	0	44580	
6862	0	39648	6101	0	44622	
6863	0	39728	6102	0	44396	
6864	0	39416	6103	0	44436	
6865	0	39472	6104	0	44576	
6866	0	39652	6105	0	44632	
6867	0	39720	6106	0	44397	
6868	0	39428	6107	0	44444	
6869	0	39464	6108	0	44578	
6870	0	39640	6109	0	44624	
6871	0	39716	6110	0	44396	
6872	0	39424	6111	0	44452	
6873	0	39480	6112	0	44586	
6874	0	39653	6113	0	44630	
6875	0	39733	6114	0	44400	
6876	0	39431	6115	0	44456	
6877	0	39488	6116	0	44592	
6878	0	39672	6117	0	44628	
6879	0	39724	6118	0	44406	
6880	0	39432	6119	0	44460	
6881	0	39488	6120	0	44599	
6882	0	39668	6121	0	44632	
6883	0	39728	6122	0	44410	
6884	0	39436	6123	0	44472	
6885	0	39492	6124	0	44606	
6886	0	39668	6125	0	44632	
6887	0	39716	6126	0	44404	
6888	0	39424	6127	0	44463	
6889	0	39496	6128	0	44599	
6890	0	39652	6129	0	44626	
6891	0	39716	6130	0	44392	
6892	0	39436	6131	0	44468	
6893	0	39500	6132	0	44615	
6894	0	39672	6133	0	44626	
6895	0	39720	6134	0	44398	
6896	0	39436	6135	0	44470	
6897	0	39508	6136	0	44612	
6898	0	39656	6137	0	44632	
6899	0	39712	6138	0	44404	
6900	0	39432	6139	0	44487	
6901	0	39496	6140	0	44615	
6902	0	39656	6141	0	44631	
6903	0	39724	6142	0	44402	
6904	0	39432	6143	0	44484	
6905	0	39504	6144	0	44623	
6906	0	39673	6145	0	44631	
6907	0	39716	6146	0	44395	
6908	0	39428	6147	0	44486	
6909	0	39500	6148	0	44606	
6910	0	39668	6149	0	44628	
6911	0	39716	6150	0	44391	
6912	0	39424	6151	0	44498	
6913	0	39496	6152	0	44624	
6914	0	39664	6153	0	44626	
6915	0	39712	6154	0	44384	
6916	0	39432	6155	0	44499	
6917	0	39488	6156	0	44631	
6918	0	39676	6157	0	44614	
6920	1	39448	6158	1	44394	
6921	1	39496	6159	1	44500	
6922	1	39668	6160	1	44628	
6923	1	39732	6161	1	44624	
6924	1	39428	6162	1	44404	
6925	1	39500	6163	1	44511	
6926	1	39668	6164	1	44642	
6927	1	39720	6165	1	44626	
6928	1	39424	6166	1	44401	
6929	1	39496	6167	1	44517	
6930	1	39656	6168	1	44637	
6931	1	39712	6169	1	44608	
6932	1	39432	6170	1	44384	
6933	1	39488	6171	1	44511	
6934	1	39648	6172	1	44640	
6935	1	39700	6173	1	44615	
6936	1	39430	6174	1	44396	
6937	1	39496	6175	1	44502	
6938	1	39668	6176	1	44646	
6939	1	39704	6177	1	44608	
6940	1	39430	6178	1	44395	
6941	1	39498	6179	1	44514	
6942	1	39668	6180	1	44646	
6943	1	39720	6181	1	44610	
6944	1	39444	6182	1	44394	
6945	1	39496	6183	1	44520	
6946	1	39660	6184	1	44652	
6947	1	39728	6185	1	44609	
6948	1	39431	6186	1	44392	
6949	1	39500	6187	1	44518	
6950	1	39664	6188	1	44647	
6951	1	39712	6189	1	44610	
6952	1	39424	6190	1	44397	
6953	1	39500	6191	1	44516	
6954	1	39664	6192	1	44647	
6955	1	39708	6193	1	44615	
6956	1	39424	6194	1	44390	
6957	1	39504	6195	1	44532	
6958	1	39676	6196	1	44660	
6959	1	39704	6197	1	44612	
6960	1	39436	6198	1	44396	
6961	1	39508	6199	1	44533	
6962	1	39676	6200	1	44675	
6963	1	39720	6201	1	44624	
6964	1	39436	6202	1	44408	
6965	1	39520	6203	1	44547	
6966	1	39680	6204	1	44672	
6967	1	39720	6205	1	44624	
6968	1	39432	6206	1	44402	
6969	1	39516	6207	1	44544	
6970	1	39676	6208	1	44679	
6971	1	39720	6209	1	44615	
6972	1	39428	6210	1	44399	
6973	1	39512	6211	1	44551	
6974	1	39688	6212	1	44679	
6975	1	39728	6213	1	44614	
6976	1	39436	6214	1	44412	
6977	1	39528	6215	1	44551	
6978	1	39701	6216	1	44686	
6979	1	39728	6217	1	44624	
6980	1	39448	6218	1	44406	
6981	1	39520	6219	1	44551	
6982	1	39716	6220	1	44690	
6983	1	39728	6221	1	44620	
6984	1	39440	6222	1	44422	
6985	1	39536	6223	1	44556	
6986	1	39692	6224	1	44702	
6987	1	39732	6225	1	44630	
6988	1	39456	6226	1	44418	
6989	1	39536	6227	1	44573	
6990	1	39696	6228	1	44700	
6991	1	39716	6229	1	44624	
6992	1	39445	6230	1	44422	
6993	1	39532	6231	1	44580	
6994	1	39696	6232	1	44704	
6995	1	39716	6233	1	44620	
6996	1	39444	6234	1	44414	
6997	1	39536	6235	1	44582	
6998	1	39704	6236	1	44704	
6999	1	39724	6237	1	44640	
7000	1	39448	6238	1	44418	
7001	1	39536	6239	1	44585	
7002	1	39716	6240	1	44709	
7003	1	39724	6241	1	44628	
7004	1	39460	6242	1	44423	
7005	1	39548	6243	1	44589	
7006	1	39728	6244	1	44724	
7007	1	39732	6245	1	44647	
7008	1	39440	6246	1	44423	
7009	1	39540	6247	1	44594	
7010	1	39696	6248	1	44709	
7011	1	39712	6249	1	44642	
7012	1	39424	6250	1	44422	
7013	1	39536	6251	1	44588	
7014	1	39700	6252	1	44712	
7015	1	39700	6253	1	44624	
7016	1	39428	6254	1	44414	
7017	1	39524	6255	1	44594	
7018	1	39704	6256	1	44717	
7019	1	39712	6257	1	44624	
7020	1	39416	6258	1	44417	
7021	1	39540	6259	1	44590	
7022	1	39692	6260	1	44712	
7023	1	39696	6261	1	44637	
7024	1	39420	6262	1	44423	
7025	1	39524	6263	1	44589	
7026	1	39696	6264	1	44727	
7027	1	39684	6265	1	44620	
7028	1	39408	6266	1	44422	
7029	1	39544	6267	1	44607	
7030	1	39688	6268	1	44712	
7031	1	39673	6269	1	44616	
7032	1	39400	6270	1	44423	
7033	1	39524	6271	1	44599	
7034	1	39688	6272	1	44708	
7035	1	39660	6273	1	44626	
7036	1	39384	6274	1	44421	
7037	1	39532	6275	1	44596	
7038	1	39680	6276	1	44724	
7039	1	39652	6277	1	44620	
7040	1	39388	6278	1	44436	
7041	1	39524	6279	1	44603	
7042	1	39672	6280	1	44720	
7043	1	39656	6281	1	44610	
7044	1	39384	6282	1	44420	
7045	1	39524	6283	1	44608	
7046	1	39680	6284	1	44734	
7047	1	39640	6285	1	44626	
7048	1	39380	6286	1	44436	
7049	1	39508	6287	1	44615	
7050	1	39680	6288	1	44728	
7051	1	39636	6289	1	44621	
7052	1	39376	6290	1	44448	
7053	1	39524	6291	1	44614	
7054	1	39672	6292	1	44726	
7055	1	39636	6293	1	44615	
7056	1	39360	6294	1	44450	
7057	1	39500	6295	1	44610	
7058	1	39664	6296	1	44728	
7059	1	39636	6297	1	44612	
7060	1	39360	6298	1	44450	
7061	1	39496	6299	1	44608	
7062	1	39664	6300	1	44736	
7063	1	39632	6301	1	44624	
7064	1	39368	6302	1	44452	
7065	1	39496	6303	1	44615	
7066	1	39668	6304	1	44749	
7067	1	39640	6305	1	44616	
7068	1	39380	6306	1	44466	
7069	1	39512	6307	1	44626	
7070	1	39656	6308	1	44748	
7071	1	39640	6309	1	44631	
7072	1	39376	6310	1	44460	
7073	1	39500	6311	1	44636	
7074	1	39660	6312	1	44760	
7075	1	39640	6313	1	44615	
7076	1	39364	6314	1	44483	
7077	1	39496	6315	1	44638	
7078	1	39660	6316	1	44773	
7079	1	39636	6317	1	44630	
7080	1	39362	6318	1	44487	
7081	1	39504	6319	1	44648	
7082	1	39668	6320	1	44781	
7083	1	39652	6321	1	44646	
7084	1	39376	6322	1	44504	
7085	1	39508	6323	1	44667	
7086	1	39668	6324	1	44786	
7087	1	39636	6325	1	44662	
7088	1	39376	6326	1	44519	
7089	1	39504	6327	1	44679	
7090	1	39660	6328	1	44799	
7091	1	39648	6329	1	44662	
7092	1	39384	6330	1	44543	
7093	1	39508	6331	1	44698	
7094	1	39676	6332	1	44818	
7095	1	39664	6333	1	44668	
7096	1	39376	6334	1	44533	
7097	1	39512	6335	1	44695	
7098	1	39664	6336	1	44810	
7099	1	39656	6337	1	44664	
7100	1	39372	6338	1	44550	
7101	1	39504	6339	1	44706	
7102	1	39668	6340	1	44816	
7103	1	39652	6341	1	44676	
7104	1	39388	6342	1	44551	
7105	1	39512	6343	1	44710	
7106	1	39672	6344	1	44839	
7107	1	39648	6345	1	44679	
7108	1	39388	6346	1	44566	
7109	1	39504	6347	1	44718	
7110	1	39668	6348	1	44851	
7111	1	39656	6349	1	44679	
7112	1	39392	6350	1	44568	
7113	1	39508	6351	1	44734	
7114	1	39680	6352	1	44861	
7115	1	39660	6353	1	44701	
7116	1	39384	6354	1	44583	
7117	1	39520	6355	1	44728	
7118	1	39672	6356	1	44848	
7119	1	39648	6357	1	44700	
7120	1	39384	6358	1	44584	
7121	1	39504	6359	1	44736	
7122	1	39680	6360	1	44864	
7123	1	39660	6361	1	44700	
7124	1	39392	6362	1	44599	
7125	1	39516	6363	1	44758	
7126	1	39684	6364	1	44864	
7127	1	39640	6365	1	44708	
7128	1	39384	6366	1	44607	
7129	1	39528	6367	1	44761	
7130	1	39668	6368	1	44885	
7131	1	39640	6369	1	44706	
7132	1	39386	6370	1	44615	
7133	1	39524	6371	1	44761	
7134	1	39676	6372	1	44886	
7135	1	39636	6373	1	44708	
7136	1	39376	6374	1	44620	
7137	1	39516	6375	1	44754	
7138	1	39672	6376	1	44892	
7139	1	39640	6377	1	44704	
7140	1	39360	6378	1	44610	
7141	1	39512	6379	1	44758	
7142	1	39680	6380	1	44888	
7143	1	39636	6381	1	44711	
7144	1	39376	6382	1	44638	
7145	1	39516	6383	1	44773	
7146	1	39668	6384	1	44899	
7147	1	39640	6385	1	44716	
7148	1	39368	6386	1	44624	
7149	1	39520	6387	1	44786	
7150	1	39676	6388	1	44892	
7151	1	39632	6389	1	44722	
7152	1	39368	6390	1	44639	
7153	1	39504	6391	1	44784	
7154	1	39676	6392	1	44900	
7155	1	39636	6393	1	44719	
7156	1	39356	6394	1	44642	
7157	1	39508	6395	1	44788	
7158	1	39668	6396	1	44902	
7159	1	39624	6397	1	44720	
7160	1	39368	6398	1	44644	
7161	1	39492	6399	1	44776	
7162	1	39664	6400	1	44896	
7163	1	39616	6401	1	44730	
7164	1	39352	6402	1	44650	
7165	1	39508	6403	1	44796	
7166	1	39664	6404	1	44922	
7167	1	39624	6405	1	44726	
7168	1	39360	6406	1	44663	
7169	1	39508	6407	1	44804	
7170	1	39656	6408	1	44916	
7171	1	39624	6409	1	44728	
7172	1	39360	6410	1	44658	
7173	1	39508	6411	1	44804	
7174	1	39660	6412	1	44930	
7175	1	39624	6413	1	44736	
7176	1	39360	6414	1	44674	
7177	1	39504	6415	1	44812	
7178	1	39660	6416	1	44922	
7179	1	39616	6417	1	44736	
7180	1	39356	6418	1	44668	
7181	1	39492	6419	1	44807	
7182	1	39660	6420	1	44935	
7183	1	39620	6421	1	44733	
7184	1	39356	6422	1	44674	
7185	1	39500	6423	1	44807	
7186	1	39656	6424	1	44935	
7187	1	39628	6425	1	44743	
7188	1	39360	6426	1	44679	
7189	1	39496	6427	1	44816	
7190	1	39664	6428	1	44935	
7191	1	39624	6429	1	44743	
7192	1	39352	6430	1	44688	
7193	1	39508	6431	1	44824	
7194	1	39669	6432	1	44935	
7195	1	39630	6433	1	44752	
7196	1	39368	6434	1	44684	
7197	1	39508	6435	1	44839	
7198	1	39672	6436	1	44942	
7199	1	39616	6437	1	44738	
7200	1	39356	6438	1	44690	
7201	1	39501	6439	1	44824	
7202	1	39665	6440	1	44947	
7203	1	39624	6441	1	44743	
7204	1	39356	6442	1	44694	
7205	1	39512	6443	1	44838	
7206	1	39660	6444	1	44959	
7207	1	39624	6445	1	44756	
7208	1	39364	6446	1	44708	
7209	1	39520	6447	1	44846	
7210	1	39664	6448	1	44952	
7211	1	39628	6449	1	44744	
7212	1	39372	6450	1	44704	
7213	1	39516	6451	1	44852	
7214	1	39676	6452	1	44960	
7215	1	39648	6453	1	44758	
7216	1	39383	6454	1	44724	
7217	1	39528	6455	1	44861	
7218	1	39684	6456	1	44965	
7219	1	39636	6457	1	44761	
7220	1	39376	6458	1	44724	
7221	1	39512	6459	1	44848	
7222	1	39676	6460	1	44966	
7223	1	39644	6461	1	44754	
7224	1	39372	6462	1	44722	
7225	1	39528	6463	1	44852	
7226	1	39676	6464	1	44981	
7227	1	39644	6465	1	44762	
7228	1	39392	6466	1	44724	
7229	1	39532	6467	1	44866	
7230	1	39676	6468	1	44983	
7231	1	39644	6469	1	44764	
7232	1	39388	6470	1	44730	
7233	1	39536	6471	1	44870	
7234	1	39680	6472	1	44980	
7235	1	39640	6473	1	44777	
7236	1	39384	6474	1	44739	
7237	1	39520	6475	1	44876	
7238	1	39696	6476	1	44988	
7239	1	39652	6477	1	44772	
7240	1	39400	6478	1	44740	
7241	1	39524	6479	1	44885	
7242	1	39680	6480	1	44989	
7243	1	39648	6481	1	44776	
7244	1	39393	6482	1	44740	
7245	1	39540	6483	1	44884	
7246	1	39680	6484	1	44994	
7247	1	39653	6485	1	44775	
7248	1	39392	6486	1	44743	
7249	1	39542	6487	1	44876	
7250	1	39688	6488	1	44992	
7251	1	39660	6489	1	44779	
7252	1	39388	6490	1	44740	
7253	1	39544	6491	1	44886	
7254	1	39688	6492	1	44992	
7255	1	39672	6493	1	44776	
7256	1	39404	6494	1	44762	
7257	1	39536	6495	1	44894	
7258	1	39701	6496	1	45005	
7259	1	39656	6497	1	44791	
7260	1	39400	6498	1	44764	
7261	1	39536	6499	1	44890	
7262	1	39696	6500	1	45017	
7263	1	39668	6501	1	44788	
7264	1	39404	6502	1	44764	
7265	1	39532	6503	1	44898	
7266	1	39692	6504	1	45014	
7267	1	39672	6505	1	44784	
7268	1	39412	6506	1	44764	
7269	1	39536	6507	1	44915	
7270	1	39688	6508	1	45016	
7271	1	39668	6509	1	44772	
7272	1	39408	6510	1	44765	
7273	1	39548	6511	1	44900	
7274	1	39700	6512	1	45012	
7275	1	39684	6513	1	44799	
7276	1	39412	6514	1	44781	
7277	1	39540	6515	1	44904	
7278	1	39704	6516	1	45022	
7279	1	39676	6517	1	44792	
7280	1	39408	6518	1	44780	
7281	1	39556	6519	1	44912	
7282	1	39712	6520	1	45020	
7283	1	39672	6521	1	44788	
7284	1	39420	6522	1	44780	
7285	1	39544	6523	1	44919	
7286	1	39696	6524	1	45017	
7287	1	39672	6525	1	44795	
7288	1	39416	6526	1	44781	
7289	1	39540	6527	1	44927	
7290	1	39705	6528	1	45020	
7291	1	39680	6529	1	44790	
7292	1	39416	6530	1	44784	
7293	1	39554	6531	1	44916	
7294	1	39712	6532	1	45019	
7295	1	39692	6533	1	44796	
7296	1	39444	6534	1	44792	
7297	1	39556	6535	1	44927	
7298	1	39708	6536	1	45025	
7299	1	39680	6537	1	44788	
7300	1	39436	6538	1	44807	
7301	1	39552	6539	1	44934	
7302	1	39716	6540	1	45016	
7303	1	39700	6541	1	44802	
7304	1	39440	6542	1	44807	
7305	1	39552	6543	1	44935	
7306	1	39716	6544	1	45024	
7307	1	39688	6545	1	44800	
7308	1	39440	6546	1	44807	
7309	1	39556	6547	1	44935	
7310	1	39716	6548	1	45024	
7311	1	39704	6549	1	44799	
7312	1	39434	6550	1	44807	
7313	1	39556	6551	1	44944	
7314	1	39724	6552	1	45028	
7315	1	39712	6553	1	44807	
7316	1	39452	6554	1	44814	
7317	1	39568	6555	1	44948	
7318	1	39728	6556	1	45030	
7319	1	39704	6557	1	44800	
7320	1	39464	6558	1	44829	
7321	1	39568	6559	1	44954	
7322	1	39720	6560	1	45037	
7323	1	39716	6561	1	44801	
7324	1	39460	6562	1	44818	
7325	1	39572	6563	1	44952	
7326	1	39736	6564	1	45026	
