# OpenSignals Text File Format
# {"internal sensors":{"sensor":["xAcc","yAcc","zAcc"],"device name":"internal sensors","column":["nSeq","xAcc","yAcc","zAcc"],"sync interval":2,"time":"14:55:57","comments":"","keywords":"","device connection":"UNKNOWNinternal sensors","channels":[0,1,2],"date":"2020-07-17","mode":0,"digital IO":[],"firmware version":0,"device":"android","position":0,"sampling rate":100,"label":["xAcc","yAcc","zAcc"],"resolution":[1,1,1],"special":[{},{},{}],"sleeve color":["UNKNOWN","UNKNOWN","UNKNOWN"]}}
# EndOfHeader
188488175020937	0.14724341	-0.2837129	9.660604	
188488195580234	0.16400282	-0.2789245	9.607931	
188488215623058	0.20231004	-0.2621651	9.615114	
188488225651529	0.20590134	-0.2633622	9.633071	
188488235595264	0.20590134	-0.2633622	9.633071	
188488235595264	0.20590134	-0.2633622	9.633071	
188488235595264	0.20590134	-0.2633622	9.633071	
188488235595264	0.20590134	-0.2633622	9.633071	
188488235595264	0.20590134	-0.2633622	9.633071	
188488235595264	0.20590134	-0.2633622	9.633071	
188488235595264	0.20590134	-0.2633622	9.633071	
188488235595264	0.20590134	-0.2633622	9.633071	
188488275625829	0.18555063	-0.23582886	9.691729	
188488275625829	0.18555063	-0.23582886	9.691729	
188488275625829	0.18555063	-0.23582886	9.691729	
188488275625829	0.18555063	-0.23582886	9.691729	
188488285685914	0.17717093	-0.20709845	9.692925	
188488295613457	0.17717093	-0.20709845	9.692925	
188488305614728	0.17118542	-0.19632454	9.680955	
188488315605864	0.17238252	-0.20350714	9.6845455	
188488325558432	0.17477672	-0.22625206	9.689334	
188488335649716	0.17477672	-0.22625206	9.694122	
188488345598358	0.20829555	-0.2633622	9.621099	
188488365577089	0.22266077	-0.2633622	9.621099	
188488365577089	0.22266077	-0.2633622	9.621099	
188488375626544	0.21667525	-0.2765303	9.592369	
188488397125136	0.19512744	-0.2777274	9.555259	
188488397125136	0.19512744	-0.2777274	9.555259	
188488406393068	0.16400282	-0.29688102	9.55885	
188488415975534	0.1364695	-0.29688102	9.566033	
188488425755767	0.12090719	-0.29448682	9.592369	
188488435638883	0.12090719	-0.2717419	9.616311	
188488445575441	0.11971009	-0.25737667	9.622296	
188488455569720	0.1352724	-0.23463176	9.631873	
188488465554360	0.14724341	-0.22266077	9.628283	
188488475547180	0.16160862	-0.22026655	9.659407	
188488485527590	0.18674773	-0.23582886	9.692925	
188488495539795	0.20590134	-0.23582886	9.692925	
188488505560897	0.22864626	-0.23343466	9.698911	
188488515546448	0.25737667	-0.25258827	9.688137	
188488525631224	0.25977087	-0.25019407	9.685743	
188488535673112	0.24899697	-0.24181437	9.67018	
188488545685056	0.23104046	-0.23822308	9.64145	
188488555685528	0.18914193	-0.23343466	9.613917	
188488565628264	0.16879122	-0.25617957	9.599552	
188488575659632	0.1316811	-0.2681506	9.594764	
188488585662816	0.108936176	-0.2753332	9.600749	
188488595576408	0.10414778	-0.2837129	9.606734	
188488605547704	0.11133038	-0.2837129	9.606734	
188488615546852	0.12689269	-0.2741361	9.589975	
188488625592926	0.15801731	-0.2657564	9.595961	
188488635638963	0.18435353	-0.2621651	9.593566	
188488645559981	0.22026655	-0.2693477	9.625888	
188488655599490	0.24420857	-0.2669535	9.627085	
188488665571245	0.23822308	-0.25737667	9.643845	
188488675553122	0.23822308	-0.2621651	9.652225	
188488685571061	0.22625206	-0.25139117	9.661801	
188488695545530	0.19991584	-0.24660277	9.665392	
188488705741765	0.17836803	-0.23582886	9.671378	
188488715695382	0.1592144	-0.22984336	9.668983	
188488725617191	0.1436521	-0.22505496	9.645041	
188488735735595	0.1352724	-0.21547815	9.640253	
188488745653297	0.130484	-0.22625206	9.621099	
188488755713648	0.1352724	-0.24061728	9.635465	
188488765836324	0.15442601	-0.260968	9.642648	
188488775835162	0.17717093	-0.2789245	9.627085	
188488785892581	0.19153613	-0.2885013	9.598354	
188488795773790	0.21428105	-0.2908955	9.601946	
188488805698395	0.22505496	-0.28491	9.583989	
188488815681697	0.21906945	-0.2777274	9.579201	
188488825713348	0.19512744	-0.2741361	9.582792	
188488835721674	0.17477672	-0.2669535	9.588778	
188488845745337	0.16759412	-0.272939	9.605537	
188488855706668	0.14604631	-0.2717419	9.634268	
188488865865334	0.1412579	-0.24899697	9.655815	
188488875902167	0.1592144	-0.24181437	9.655815	
188488885954083	0.16998832	-0.22625206	9.657013	
188488895867541	0.18794483	-0.21787235	9.651027	
188488906183270	0.20590134	-0.22505496	9.659407	
188488916038635	0.21068975	-0.24301147	9.677363	
188488926226317	0.20350714	-0.24181437	9.671378	
188488936062658	0.19273324	-0.25498247	9.67018	
188488945946829	0.19153613	-0.2669535	9.621099	
188488956122914	0.17597382	-0.25857377	9.605537	
188488965977957	0.16400282	-0.25977087	9.600749	
188488975940478	0.15682021	-0.25857377	9.591172	
188488985968739	0.1436521	-0.2789245	9.580399	
188488995936869	0.15322891	-0.2777274	9.581595	
188489006109934	0.15442601	-0.2825158	9.598354	
188489016046467	0.16639702	-0.2777274	9.595961	
188489025877733	0.17477672	-0.260968	9.603143	
188489036500866	0.18914193	-0.2621651	9.631873	
188489046246933	0.20231004	-0.2669535	9.625888	
188489056045466	0.20231004	-0.25019407	9.635465	
188489066028733	0.20231004	-0.24420857	9.652225	
188489076174866	0.18195933	-0.22864626	9.671378	
188489085949433	0.17118542	-0.22625206	9.692925	
188489095902216	0.17477672	-0.23343466	9.700109	
188489105930108	0.16400282	-0.22505496	9.682152	
188489116011054	0.17118542	-0.22984336	9.665392	
188489126121027	0.16759412	-0.23104046	9.642648	
188489135939013	0.17597382	-0.24779987	9.630676	
188489146421006	0.18914193	-0.25737667	9.618706	
188489156199503	0.18435353	-0.2717419	9.631873	
188489166069251	0.19033903	-0.29328972	9.618706	
188489175969625	0.20350714	-0.2825158	9.606734	
188489185996312	0.19991584	-0.29328972	9.61272	
188489196038156	0.17956513	-0.2765303	9.599552	
188489205836578	0.16759412	-0.25977087	9.606734	
188489215789289	0.16759412	-0.25737667	9.615114	
188489225878644	0.15442601	-0.25498247	9.607931	
188489235829822	0.15682021	-0.25977087	9.636662	
188489245738411	0.1604115	-0.2645593	9.653421	
188489255760705	0.17477672	-0.25378537	9.665392	
188489275634176	0.19752164	-0.24540567	9.654618	
188489275634176	0.19752164	-0.24540567	9.654618	
188489285907588	0.19991584	-0.24420857	9.623494	
188489295745794	0.19871874	-0.24061728	9.633071	
188489305772397	0.16998832	-0.24301147	9.645041	
188489315668698	0.16519992	-0.25258827	9.655815	
188489325628849	0.14963761	-0.2693477	9.65821	
188489335640924	0.15203181	-0.2657564	9.661801	
188489345701462	0.1592144	-0.24779987	9.637859	
188489355744231	0.17836803	-0.23582886	9.594764	
188489365866615	0.20111294	-0.260968	9.593566	
188489375884307	0.22266077	-0.2645593	9.598354	
188489386328653	0.23223756	-0.2908955	9.624691	
188489396136326	0.23463176	-0.30406362	9.637859	
188489406112163	0.22625206	-0.31244332	9.628283	
188489415964081	0.21547815	-0.2885013	9.636662	
188489425878040	0.18794483	-0.25139117	9.622296	
188489435879020	0.16280572	-0.24301147	9.618706	
188489446766510	0.1376666	-0.22146365	9.617508	
188489456215755	0.1352724	-0.22146365	9.64145	
188489466023877	0.1340753	-0.23343466	9.679757	
188489476091438	0.1364695	-0.24420857	9.672575	
188489485838219	0.15322891	-0.23822308	9.659407	
188489495697609	0.16998832	-0.25139117	9.661801	
188489505633804	0.18674773	-0.24301147	9.648633	
188489515687402	0.18794483	-0.25617957	9.646238	
188489525644701	0.20111294	-0.25737667	9.629479	
188489535642350	0.20350714	-0.25857377	9.624691	
188489545592675	0.20709845	-0.2645593	9.623494	
188489555727837	0.19033903	-0.2669535	9.627085	
188489565832918	0.17357962	-0.2633622	9.631873	
188489575837959	0.17956513	-0.2717419	9.640253	
188489585909979	0.18555063	-0.25977087	9.657013	
188489596030489	0.19752164	-0.260968	9.652225	
188489605988244	0.20111294	-0.24301147	9.631873	
188489615996622	0.20709845	-0.25019407	9.609129	
188489626729311	0.19033903	-0.23942018	9.631873	
188489636724155	0.17717093	-0.25258827	9.643845	
188489646227077	0.17118542	-0.260968	9.655815	
188489656053538	0.1592144	-0.2657564	9.654618	
188489665932269	0.1448492	-0.25977087	9.643845	
188489675786634	0.142455	-0.24660277	9.653421	
188489686345317	0.1388637	-0.23223756	9.652225	
188489696069158	0.1364695	-0.23463176	9.617508	
188489705810079	0.1592144	-0.24899697	9.578004	
188489715683039	0.17118542	-0.260968	9.585187	
188489725601019	0.18195933	-0.2801216	9.64983	
188489735621509	0.19752164	-0.2777274	9.659407	
188489745589754	0.20709845	-0.29568392	9.674969	
188489755565877	0.21308395	-0.2801216	9.654618	
188489765620938	0.22146365	-0.24899697	9.64145	
188489776008469	0.19393034	-0.22026655	9.605537	
188489785801234	0.16759412	-0.22266077	9.586384	
188489795689117	0.15322891	-0.23702596	9.607931	
188489805694558	0.12928689	-0.25258827	9.623494	
188489815604279	0.11611878	-0.2789245	9.664195	
188489825606139	0.1352724	-0.2741361	9.697714	
188489835577069	0.15682021	-0.24779987	9.661801	
188489845643034	0.18435353	-0.21787235	9.624691	
188489855600017	0.21188685	-0.22146365	9.599552	
188489865605508	0.22146365	-0.21667525	9.603143	
188489875700254	0.22146365	-0.24660277	9.628283	
188489885634627	0.22266077	-0.2789245	9.651027	
188489895668313	0.21667525	-0.30645782	9.660604	
188489905639656	0.20470424	-0.30286652	9.665392	
188489915638328	0.19752164	-0.2885013	9.643845	
188489926228164	0.17238252	-0.2753332	9.627085	
188489935886582	0.17118542	-0.24420857	9.605537	
188489945730791	0.16519992	-0.22864626	9.605537	
188489955703395	0.15203181	-0.22026655	9.613917	
188489965627197	0.16998832	-0.25258827	9.637859	
188489975585598	0.17238252	-0.260968	9.676167	
188489985573799	0.18914193	-0.2669535	9.680955	
188489995567399	0.19033903	-0.2741361	9.673772	
188490005551699	0.19153613	-0.24061728	9.654618	
188490015544349	0.19273324	-0.23702596	9.628283	
188490025566174	0.17597382	-0.23104046	9.629479	
188490035570087	0.17238252	-0.24540567	9.625888	
188490045569543	0.15442601	-0.260968	9.631873	
188490055556271	0.14724341	-0.2681506	9.642648	
188490065540135	0.1328782	-0.2741361	9.645041	
188490075559567	0.1340753	-0.2705448	9.619903	
188490085600783	0.1388637	-0.25857377	9.609129	
188490095564391	0.1436521	-0.24301147	9.642648	
188490105608195	0.14724341	-0.24420857	9.642648	
188490115608597	0.16639702	-0.22744916	9.643845	
188490125567798	0.19752164	-0.25139117	9.662998	
188490135614399	0.22385786	-0.25378537	9.692925	
188490145666199	0.22266077	-0.25857377	9.718064	
188490155683099	0.20590134	-0.24301147	9.731233	
188490165750049	0.19991584	-0.22385786	9.727641	
188490175729524	0.19153613	-0.20111294	9.738416	
188490185726262	0.20111294	-0.19991584	9.794679	
188490195652131	0.20949265	-0.17477672	9.859323	
188490205594565	0.21308395	-0.17118542	9.907207	
188490215618782	0.23343466	-0.16160862	9.90601	
188490225580391	0.24420857	-0.14963761	9.858126	
188490235585695	0.25139117	-0.14963761	9.787497	
188490245557847	0.24301147	-0.17717093	9.6845455	
188490255583423	0.18794483	-0.30885202	9.506178	
188490265537211	0.18794483	-0.30885202	9.506178	
188490275569105	0.1316811	-0.36511576	9.400833	
188490285547552	0.093373865	-0.45729253	9.307459	
188490295523276	0.18794483	-0.59136784	9.185355	
188490305565638	0.09816227	-0.58657944	9.308656	
188490315695819	0.007182605	-0.5398925	9.348161	
188490325613409	-0.020350715	-0.46567222	9.405622	
188490335574704	0.025139118	-0.36391866	9.475053	
188490345565852	0.10534488	-0.2777274	9.55885	
188490355595426	0.15083471	-0.18435353	9.7324295	
188490365636213	0.18794483	-0.14963761	9.809045	
188490375672106	0.22505496	-0.11372458	9.895236	
188490385634053	0.2837129	-0.11133038	9.922769	
188490395768026	0.33399114	-0.1352724	9.941922	
188490405872013	0.35673606	-0.1592144	9.937134	
188490415897506	0.33518824	-0.17836803	9.864111	
188490425941253	0.2669535	-0.20350714	9.752781	
188490436239126	0.19033903	-0.25617957	9.631873	
188490445940063	0.14724341	-0.29927522	9.537302	
188490456051031	0.11611878	-0.36391866	9.475053	
188490466001515	0.07182605	-0.4213795	9.442732	
188490475797757	0.050278235	-0.45729253	9.43076	
188490485684878	0.038307227	-0.47165772	9.423578	
188490495858439	0.073023155	-0.46088383	9.412804	
188490505797219	0.1364695	-0.4225766	9.406818	
188490515798109	0.20829555	-0.38067806	9.449914	
188490525795554	0.2633622	-0.35913026	9.509769	
188490535768277	0.2825158	-0.32202014	9.568427	
188490545696638	0.2837129	-0.30406362	9.607931	
188490555826819	0.272939	-0.2741361	9.628283	
188490565832909	0.2801216	-0.2753332	9.636662	
188490576015954	0.2681506	-0.2621651	9.642648	
188490585920477	0.22984336	-0.2681506	9.838972	
188490595938738	0.12090719	-0.25019407	10.020931	
188490605974369	-0.039504327	-0.16519992	10.080787	
188490616179684	-0.16998832	-0.045489833	10.012551	
188490626082842	-0.18195933	0.04189853	9.882068	
188490635974921	-0.061052144	0.088585466	9.753978	
188490645854960	0.12210429	0.007182605	9.65821	
188490655851980	0.29688102	-0.15682021	9.616311	
188490665926990	0.3854665	-0.34955344	9.5492735	
188490677155995	0.4189853	-0.5542577	9.479841	
188490688589497	0.4189853	-0.6572084	9.479841	
188490705858000	0.4177882	-0.688333	9.419987	
188490715645000	0.37828386	-0.6356605	9.376891	
188490725608000	0.2861071	-0.51116204	9.2787285	
188490735501000	0.11492168	-0.37469256	9.228451	
188490745535000	-0.039504327	-0.2681506	9.291897	
188490755586000	-0.14963761	-0.21906945	9.470264	
188490765722000	-0.14844051	-0.21787235	9.722853	
188490775614000	0.015562311	-0.18435353	10.023325	
188490785746000	0.1388637	-0.12090719	9.953894	
188490796283000	0.2693477	-0.08619126	9.858126	
188490805785000	0.3878607	-0.076614454	9.800665	
188490816522000	0.46088383	-0.107739076	9.788693	
188490825874000	0.46686932	-0.17956513	9.775525	
188490836590000	0.41060558	-0.2837129	9.743204	
188490846295000	0.29568392	-0.36391866	9.680955	
188490855968000	0.17477672	-0.39743748	9.625888	
188490865890000	0.06584055	-0.39624038	9.570822	
188490875979000	-0.022744916	-0.35913026	9.4535055	
188490885935000	-0.073023155	-0.33997664	9.352949	
188490896332000	-0.075417355	-0.33518824	9.307459	
188490905970000	-0.03232172	-0.34117374	9.36492	
188490916698000	0.023942016	-0.36631286	9.481039	
188490926042000	0.107739076	-0.38307226	9.566033	
188490935959000	0.22505496	-0.37948096	9.652225	
188490945708000	0.33039984	-0.34356794	9.714474	
188490955576000	0.39983168	-0.29328972	9.7240505	
188490965673000	0.4213795	-0.21428105	9.692925	
188490975648000	0.3854665	-0.16280572	9.719262	
188490985707000	0.32561144	-0.1364695	9.7719345	
188490995577000	0.23104046	-0.1376666	9.816227	
188491005750000	0.1376666	-0.18076223	9.758766	
188491015709000	0.055066638	-0.19393034	9.781511	
188491025667000	-0.005985504	-0.22625206	9.726444	
188491035800000	-0.02633622	-0.25857377	9.680955	
188491046077000	0.0011971008	-0.2765303	9.586384	
188491055711000	0.045489833	-0.30166942	9.518148	
188491066038000	0.11971009	-0.35194764	9.43076	
188491075943000	0.17836803	-0.3878607	9.425972	
188491085781000	0.24181437	-0.4225766	9.4535055	
188491096428000	0.29807812	-0.4357447	9.51336	
188491105879000	0.30406362	-0.439336	9.564836	
188491115935000	0.29688102	-0.40102878	9.579201	
188491125749000	0.25977087	-0.32561144	9.591172	
188491135966000	0.21188685	-0.25857377	9.604341	
188491145918000	0.15682021	-0.19991584	9.637859	
188491156227000	0.10055647	-0.16879122	9.707291	
188491165909000	0.06584055	-0.15442601	9.751583	
188491175973000	0.062249243	-0.1604115	9.783905	
188491185870000	0.06943185	-0.17956513	9.807847	
188491196429000	0.09696517	-0.20829555	9.7719345	
188491205887000	0.1388637	-0.22505496	9.726444	
188491216075000	0.17238252	-0.22744916	9.702502	
188491225905000	0.21667525	-0.2621651	9.629479	
188491235983000	0.24540567	-0.30406362	9.52174	
188491245729000	0.25019407	-0.36391866	9.507375	
188491255959000	0.21547815	-0.38187516	9.520543	
188491275975000	0.14963761	-0.34955344	9.515755	
188491285610000	0.11851298	-0.34955344	9.515755	
188491285610000	0.11851298	-0.34955344	9.515755	
188491295655000	0.10534488	-0.31004912	9.540894	
188491305517000	0.08738836	-0.2789245	9.591172	
188491315686000	0.093373865	-0.24660277	9.639056	
188491325627000	0.10534488	-0.22744916	9.680955	
188491335582000	0.1316811	-0.22026655	9.709685	
188491346053000	0.16160862	-0.21188685	9.728839	
188491355708000	0.18674773	-0.21906945	9.7324295	
188491365649000	0.21188685	-0.22266077	9.721656	
188491375594000	0.22984336	-0.22385786	9.692925	
188491385666000	0.23702596	-0.23942018	9.698911	
188491395683000	0.21667525	-0.25498247	9.67018	
188491405650000	0.20590134	-0.2861071	9.633071	
188491416571000	0.18195933	-0.30047232	9.607931	
188491426543000	0.15682021	-0.30885202	9.594764	
188491435974000	0.15083471	-0.3184288	9.581595	
188491446039000	0.12330139	-0.3172317	9.551667	
188491457344000	0.12210429	-0.3184288	9.53012	
188491465707000	0.12330139	-0.33758244	9.536105	
188491475748000	0.1328782	-0.33279404	9.548077	
188491485802000	0.14844051	-0.32800564	9.566033	
188491495602000	0.15801731	-0.32561144	9.615114	
188491505729000	0.16400282	-0.29568392	9.645041	
188491515938000	0.18076223	-0.2621651	9.654618	
188491525776000	0.18076223	-0.24660277	9.671378	
188491536133000	0.18315643	-0.21188685	9.7324295	
188491545736000	0.19752164	-0.19632454	9.762358	
188491555728000	0.19991584	-0.18195933	9.763555	
188491565815000	0.19153613	-0.17717093	9.751583	
188491575731000	0.19273324	-0.20829555	9.746795	
188491585689000	0.19752164	-0.22984336	9.714474	
188491595823000	0.19991584	-0.2681506	9.660604	
188491605806000	0.19033903	-0.30765492	9.598354	
188491615748000	0.17477672	-0.33518824	9.540894	
188491625873000	0.15801731	-0.35913026	9.488221	
188491635961000	0.14604631	-0.3854665	9.435549	
188491645748000	0.142455	-0.41180268	9.437943	
188491655972000	0.12928689	-0.4189853	9.455899	
188491665899000	0.12569559	-0.40821138	9.491813	
188491676005000	0.11133038	-0.37708676	9.524135	
188491685770000	0.11492168	-0.35553896	9.5492735	
188491696038000	0.12330139	-0.29568392	9.585187	
188491705724000	0.17357962	-0.25857377	9.636662	
188491715822000	0.18794483	-0.20709845	9.718064	
188491725893000	0.19871874	-0.20829555	9.739613	
188491735971000	0.22266077	-0.22266077	9.744401	
188491745821000	0.22625206	-0.23104046	9.757569	
188491756225000	0.22266077	-0.25019407	9.734824	
188491766025000	0.21308395	-0.2669535	9.680955	
188491776639000	0.19871874	-0.2813187	9.625888	
188491786387000	0.18076223	-0.30166942	9.587581	
188491796051000	0.1604115	-0.32561144	9.5492735	
188491806496000	0.130484	-0.34356794	9.536105	
188491816555000	0.12808979	-0.36511576	9.487024	
188491825866000	0.095768064	-0.36391866	9.489418	
188491835797000	0.10295067	-0.37828386	9.496601	
188491845595000	0.110133275	-0.36032736	9.54209	
188491855588000	0.12569559	-0.35075054	9.543288	
188491865656000	0.1352724	-0.3172317	9.615114	
188491876067000	0.16280572	-0.2885013	9.7324295	
188491885589000	0.18315643	-0.23942018	9.707291	
188491895712000	0.18435353	-0.19512744	9.714474	
188491905648000	0.21188685	-0.18555063	9.689334	
188491915761000	0.24779987	-0.19273324	9.701305	
188491925700000	0.25258827	-0.22026655	9.716867	
188491935737000	0.22984336	-0.2645593	9.698911	
188491945849000	0.19273324	-0.30047232	9.67018	
188491955982000	0.16519992	-0.33039984	9.64983	
188491965951000	0.16280572	-0.33279404	9.607931	
188491975928000	0.16160862	-0.33638534	9.5492735	
188491985888000	0.1352724	-0.34356794	9.497798	
188491995775000	0.11731588	-0.33159694	9.479841	
188492006012000	0.094570965	-0.32441434	9.508572	
188492016341000	0.11372458	-0.33399114	9.545682	
188492025851000	0.1328782	-0.34596214	9.569624	
188492035933000	0.15442601	-0.34715924	9.594764	
188492045844000	0.17836803	-0.320823	9.624691	
188492056044000	0.19632454	-0.30645782	9.636662	
188492065840000	0.20709845	-0.2633622	9.628283	
188492075772000	0.21787235	-0.23822308	9.633071	
188492085937000	0.23223756	-0.22625206	9.664195	
188492095780000	0.22505496	-0.23223756	9.704897	
188492106362000	0.19991584	-0.25498247	9.709685	
188492116360000	0.17597382	-0.2861071	9.710882	
188492126153000	0.1352724	-0.2753332	9.65821	
188492136021000	0.11611878	-0.2753332	9.57561	
188492145913000	0.1388637	-0.29448682	9.522937	
188492156749000	0.15322891	-0.32321724	9.5971575	
188492166717000	0.12928689	-0.35553896	9.617508	
188492175966000	0.12928689	-0.36511576	9.617508	
188492185875000	0.1436521	-0.31364042	9.582792	
188492196189000	0.19273324	-0.2873042	9.574412	
188492205887000	0.22026655	-0.2693477	9.5732155	
188492215934000	0.20111294	-0.2633622	9.578004	
188492225962000	0.17118542	-0.2813187	9.616311	
188492235949000	0.16280572	-0.29688102	9.676167	
188492246138000	0.17477672	-0.30406362	9.697714	
188492266116000	0.18914193	-0.23942018	9.643845	
188492285991000	0.1364695	-0.20709845	9.600749	
188492285991000	0.1364695	-0.20709845	9.600749	
188492285991000	0.1364695	-0.20709845	9.600749	
188492295979000	0.1400608	-0.22505496	9.569624	
188492305550000	0.15682021	-0.2621651	9.609129	
188492315647000	0.16879122	-0.29927522	9.65821	
188492325722000	0.17717093	-0.33279404	9.66659	
188492335683000	0.15562311	-0.34356794	9.628283	
188492345795000	0.15682021	-0.33518824	9.566033	
188492355980000	0.17477672	-0.32561144	9.53012	
188492365852000	0.19752164	-0.31004912	9.5013895	
188492376628000	0.20829555	-0.32561144	9.494206	
188492386020000	0.18076223	-0.33518824	9.537302	
188492396040000	0.16280572	-0.33997664	9.5732155	
188492405772000	0.1436521	-0.32441434	9.625888	
188492416033000	0.14844051	-0.31124622	9.65821	
188492426334000	0.16160862	-0.2705448	9.665392	
188492436001000	0.17118542	-0.23104046	9.655815	
188492446204000	0.16280572	-0.20709845	9.647436	
188492460593000	0.1592144	-0.20350714	9.657013	
188492475677000	0.17956513	-0.25857377	9.685743	
188492485698000	0.19393034	-0.30166942	9.685743	
188492495705000	0.19752164	-0.32800564	9.616311	
188492505545000	0.19033903	-0.3184288	9.674969	
188492515683000	0.18555063	-0.30047232	9.548077	
188492525774000	0.17118542	-0.2896984	9.534908	
188492535819000	0.17597382	-0.31483752	9.425972	
188492545903000	0.15203181	-0.33279404	9.483433	
188492555968000	0.15203181	-0.34596214	9.594764	
188492565874000	0.12569559	-0.34476504	9.633071	
188492575939000	0.11851298	-0.3184288	9.634268	
188492585878000	0.12928689	-0.29448682	9.605537	
188492596032000	0.15562311	-0.25019407	9.630676	
188492605935000	0.17238252	-0.22026655	9.639056	
188492616034000	0.17836803	-0.20470424	9.664195	
188492625830000	0.17597382	-0.21547815	9.68694	
188492635764000	0.18435353	-0.23942018	9.757569	
188492645753000	0.19991584	-0.272939	9.734824	
188492655977000	0.17836803	-0.2813187	9.627085	
188492665936000	0.16519992	-0.2657564	9.586384	
188492675919000	0.15203181	-0.2693477	9.589975	
188492685922000	0.15203181	-0.30166942	9.54209	
188492696055000	0.1352724	-0.31244332	9.507375	
188492705835000	0.1316811	-0.34715924	9.522937	
188492715836000	0.14963761	-0.36152446	9.64145	
188492726097000	0.18435353	-0.35793316	9.646238	
188492735998000	0.20350714	-0.32441434	9.600749	
188492745905000	0.21428105	-0.28491	9.514558	
188492755966000	0.22864626	-0.2765303	9.524135	
188492766728000	0.22744916	-0.2705448	9.568427	
188492775996000	0.19033903	-0.2861071	9.607931	
188492785906000	0.16400282	-0.31364042	9.629479	
188492796378000	0.12090719	-0.31124622	9.643845	
188492806370000	0.12090719	-0.30885202	9.652225	
188492816427000	0.11731588	-0.2896984	9.617508	
188492826088000	0.12808979	-0.2669535	9.570822	
188492836029000	0.12569559	-0.25857377	9.55885	
188492845983000	0.1436521	-0.2669535	9.585187	
188492855982000	0.15442601	-0.29209262	9.621099	
188492866209000	0.16998832	-0.30406362	9.615114	
188492878132000	0.19033903	-0.32202014	9.636662	
188492916384000	0.20470424	-0.2789245	9.540894	
188492916384000	0.20470424	-0.2789245	9.540894	
188492916384000	0.20470424	-0.2789245	9.540894	
188492925997000	0.19273324	-0.2753332	9.536105	
188492936726000	0.18315643	-0.30765492	9.57561	
188492945882000	0.15203181	-0.31364042	9.629479	
188492955929000	0.12330139	-0.3196259	9.623494	
188492965921000	0.107739076	-0.30526072	9.616311	
188492975952000	0.12808979	-0.2873042	9.592369	
188492986037000	0.15083471	-0.2789245	9.593566	
188492995737000	0.17118542	-0.25857377	9.601946	
188493006795000	0.17118542	-0.272939	9.560047	
188493015968000	0.16400282	-0.2825158	9.623494	
188493025864000	0.17956513	-0.30645782	9.64145	
188493035934000	0.18674773	-0.3172317	9.68694	
188493045866000	0.20111294	-0.31124622	9.631873	
188493055955000	0.19991584	-0.30286652	9.599552	
188493065837000	0.22505496	-0.2801216	9.589975	
188493075834000	0.22505496	-0.2777274	9.581595	
188493086645000	0.19752164	-0.2801216	9.585187	
188493095972000	0.17477672	-0.29927522	9.599552	
188493105863000	0.14963761	-0.31603462	9.588778	
188493115927000	0.12808979	-0.32800564	9.629479	
188493126197000	0.10175357	-0.3184288	9.639056	
188493136725000	0.12689269	-0.2765303	9.574412	
188493145992000	0.1592144	-0.2765303	9.5492735	
188493156566000	0.17956513	-0.2765303	9.576807	
188493165889000	0.18794483	-0.29448682	9.581595	
188493175931000	0.19871874	-0.3172317	9.627085	
188493186208000	0.19393034	-0.3184288	9.64983	
188493195943000	0.19991584	-0.3172317	9.652225	
188493205846000	0.19393034	-0.30047232	9.611523	
188493216018000	0.18195933	-0.29209262	9.56723	
188493225846000	0.1592144	-0.2873042	9.560047	
188493235952000	0.15682021	-0.30166942	9.586384	
188493245966000	0.14844051	-0.35913026	9.625888	
188493265953000	0.7206547	3.0693667	9.704897	
188493275964000	0.7206547	3.0693667	9.704897	
188493275964000	0.7206547	3.0693667	9.704897	
188493287593000	2.0111294	3.2812533	9.716867	
188493295765000	1.3443443	1.5658079	9.758766	
188493306008000	0.7589619	0.7158663	9.811439	
188493315567000	0.23942018	0.06584055	9.953894	
188493325688000	-1.9381063	-1.0295067	9.424775	
188493335637000	-2.7246015	-1.6448165	8.865729	
188493346190000	-2.7605145	-2.3127987	10.559627	
188493355585000	-1.851915	-2.6719291	8.676587	
188493365875000	-1.2114661	-3.0142999	9.606734	
188493375700000	-1.567005	-3.0573955	9.440337	
188493385747000	-0.7661445	-2.4384944	9.65821	
188493395799000	-0.36391866	-1.8698715	9.198523	
188493405928000	-0.30645782	-1.4652514	9.467871	
188493416013000	-0.21428105	-1.328782	9.520543	
188493426143000	2.9376855	-1.0247183	10.599131	
188493438831000	3.2333694	-0.93373865	9.445126	
188493455608000	1.246182	-1.2366052	9.526528	
188493466266000	-0.16160862	-1.0833763	9.77792	
188493475779000	0.059855044	0.6380547	9.437943	
188493485702000	0.35793316	0.89064306	9.750386	
188493495592000	0.29448682	0.5710171	9.610326	
188493505746000	0.06584055	-0.36870706	9.488221	
188493515516000	0.08259996	-0.62847793	9.715671	
188493525706000	0.046686932	-0.65242	9.592369	
188493535677000	0.20829555	-0.3866636	9.451111	
188493545607000	0.2896984	0.23463176	9.57561	
188493555979000	0.12569559	-0.62488663	9.694122	
188493565859000	0.18195933	-1.3204023	9.348161	
188493575963000	0.50637364	-1.0737995	9.782708	
188493585865000	0.12449849	-0.93493575	9.471462	
188493595982000	0.6715736	-0.23702596	9.514558	
188493606101000	0.92416185	0.5291186	9.044097	
188493616029000	1.2916719	0.8714894	9.785102	
188493625822000	0.878672	0.92655605	9.765948	
188493635701000	0.24301147	-0.16519992	9.940725	
188493645882000	0.2633622	-0.78888947	9.629479	
188493656130000	0.9840169	-0.36272156	9.633071	
188493665849000	0.10414778	-1.3227965	9.562442	
188493676029000	-0.8655039	-1.2174516	9.5971575	
188493685874000	-0.58897364	0.5482722	9.623494	
188493696059000	-1.3299791	-0.45609543	9.476251	
188493705853000	-1.0869676	-1.2114661	9.615114	
188493715934000	-0.4441244	-0.59974754	9.589975	
188493725853000	-0.19752164	-0.35793316	9.609129	
188493736305000	0.31603462	-0.08379706	9.622296	
188493745936000	0.5363012	0.30765492	9.615114	
188493756271000	0.80325466	0.82121116	9.627085	
188493765972000	1.1408371	1.8794483	9.634268	
188493775956000	0.22864626	2.3056161	9.65821	
188493785896000	-0.9720459	0.50757074	9.646238	
188493795792000	-0.4297592	-0.33399114	9.561244	
188493806029000	0.142455	-1.3239936	9.578004	
188493815976000	0.8571242	-0.830788	9.496601	
188493826061000	1.2258313	0.19153613	9.600749	
188493836050000	1.1935096	0.021547815	9.710882	
188493845960000	1.2785037	-0.7697359	9.7863	
188493856060000	1.6747441	0.25617957	9.829395	
188493865917000	2.100912	0.6955156	9.69532	
188493876213000	2.7868507	-0.16998832	9.405622	
188493886662000	3.8654387	0.08140286	9.130288	
188493895772000	4.349067	0.02873042	8.625112	
188493905953000	3.751714	-0.1592144	8.731653	
188493915978000	2.6120741	-0.19991584	8.978256	
188493925909000	1.9093759	-0.6739678	9.148245	
188493935984000	2.4492683	-0.5566519	8.972271	
188493945882000	2.7856536	-0.36032736	8.911219	
188493955820000	3.2154129	-1.7944542	9.062054	
188493965900000	4.177882	-1.8231846	8.89446	
188493975999000	3.5338416	-1.0953473	9.1255	
188493985875000	2.7341783	-0.15322891	9.372103	
188493995933000	2.5965118	-0.45848963	9.3421755	
188494007029000	3.3913867	-1.1563994	9.057265	
188494016050000	3.8295257	-0.61171854	8.836999	
188494025889000	2.9999347	-1.0366893	9.132683	
188494035966000	2.955642	-1.0606314	9.229648	
188494046320000	3.016694	-0.19871874	9.23683	
188494056021000	3.0454245	-0.005985504	9.357738	
188494065973000	3.2118216	-0.08379706	9.208099	
188494075720000	2.930503	-0.33039984	9.314642	
188494085935000	1.9333179	-1.0630256	9.412804	
188494095977000	1.8267759	-1.1145009	9.367314	
188494105863000	2.0518308	-0.7266402	9.31943	
188494115973000	2.3678656	-0.39624038	9.228451	
188494126287000	2.5187001	-0.60333884	9.186552	
188494135989000	2.5510218	-0.8487445	9.255983	
188494145817000	2.5617957	-0.7326257	9.28232	
188494156531000	2.4887726	-0.3842694	9.337387	
188494166462000	2.7042508	-0.24660277	9.281123	
188494175970000	2.822764	-0.15682021	9.227253	
188494185991000	2.9233203	0.02633622	9.238028	
188494196151000	2.9005754	0.17357962	9.307459	
188494205798000	2.7114334	-0.4249708	9.340978	
188494216801000	2.5115175	-1.1935096	9.409213	
188494225920000	2.8981812	-1.271321	9.202114	
188494236224000	3.2920272	-1.1815386	9.119514	
188494245980000	3.716998	-0.92895025	8.908825	
188494276302000	3.539827	0.7673417	9.0716305	
188494276302000	3.539827	0.7673417	9.0716305	
188494276302000	3.539827	0.7673417	9.0716305	
188494285493000	2.6443958	0.035913024	9.4535055	
188494295659000	2.1200657	-0.38067806	9.910798	
188494305864000	2.0111294	-0.82240826	10.1861315	
188494315565000	2.3355439	-0.8391677	10.617087	
188494325680000	2.858677	-0.7110779	11.226412	
188494335489000	2.9987376	-0.56982	11.309011	
188494345623000	3.0370448	-0.12569559	10.724827	
188494356543000	2.6204538	0.019153614	9.929952	
188494365603000	2.1523874	0.009576807	9.561244	
188494375606000	1.9285295	-0.0011971008	9.161413	
188494385636000	1.6651673	0.0047884034	9.138668	
188494395733000	1.6364368	0.044292733	8.659827	
188494405579000	1.8495208	0.015562311	8.498219	
188494415710000	2.385822	-0.2896984	8.834604	
188494425776000	2.2242134	-1.1324574	9.740809	
188494435634000	2.5019407	-0.92416185	7.501034	
188494445748000	2.6420016	-0.18555063	7.884106	
188494455739000	2.8000188	0.37828386	8.244433	
188494465879000	2.9759927	0.581791	9.085996	
188494475661000	3.0897174	0.48362875	9.774328	
188494485519000	3.3028011	0.20590134	9.8677025	
188494495481000	3.3722332	0.20350714	9.490616	
188494505666000	3.1783028	0.581791	9.239224	
188494515613000	2.8083985	0.724246	9.605537	
188494525512000	2.2840683	0.59495914	10.260351	
188494535649000	2.135628	0.6943185	10.180145	
188494545592000	2.0398598	0.6979098	9.495404	
188494555627000	2.1691468	0.90381116	8.37372	
188494565732000	2.2840683	0.9888053	8.036138	
188494575757000	2.2900538	0.9624691	8.312668	
188494585858000	2.2828712	0.93493575	8.576031	
188494595728000	2.2290018	0.91578215	8.516175	
188494605792000	2.2266076	0.89423436	8.359355	
188494615617000	2.2625206	0.8678981	8.497022	
188494625624000	2.3762453	0.8678981	8.655039	
188494635541000	2.5103204	0.8702923	8.829816	
188494646233000	2.6683378	0.8343793	9.081207	
188494655645000	2.8634653	0.82240826	9.178172	
188494665888000	2.9975405	0.8619126	9.174581	
188494675651000	3.072958	0.8523358	9.109938	
188494685669000	3.0023289	0.8343793	9.070433	
188494695609000	2.8275523	0.81881696	8.990228	
188494705628000	2.645593	0.79846627	8.971074	
188494715558000	2.554613	0.62847793	9.081207	
188494725997000	2.5258827	0.4249708	9.14585	
188494735630000	2.7820623	0.51475334	9.23683	
188494745578000	3.071761	0.5734113	9.260772	
188494755549000	3.3195608	0.5327099	9.270349	
188494765671000	3.6750996	0.5530606	9.69532	
188494775678000	3.7361517	0.5506664	10.041282	
188494785715000	3.5541923	0.5746084	10.395624	
188494795712000	3.2728736	0.50876784	9.903615	
188494805688000	3.4871547	0.8379706	9.457097	
188494815704000	3.5685577	0.78529817	9.221268	
188494825699000	3.5745432	0.6739678	8.945934	
188494835702000	3.1794999	0.4441244	8.863335	
188494845707000	2.634819	0.320823	8.990228	
188494855725000	2.4157495	0.50278234	9.001001	
188494865714000	2.2828712	0.6967127	9.051279	
188494875709000	2.3092074	0.59615624	9.400833	
188494885714000	2.4372973	0.4369418	9.691729	
188494895708000	2.4660277	0.45848963	9.615114	
188494905726000	2.4253263	0.5398925	9.329007	
188494915923000	2.5833437	0.62608373	8.88608	
188494925729000	2.8000188	0.62249243	8.485051	
188494935719000	2.9735985	0.6691794	8.437167	
188494945726000	3.1842883	0.6811504	8.696938	
188494955729000	3.2213984	0.6667852	8.731653	
188494965628000	3.2202013	0.60094464	8.924387	
188494975720000	3.192668	0.45250413	9.436746	
188494986312000	3.0933087	0.4177882	9.903615	
188494995716000	3.039439	0.3890578	10.103531	
188495005806000	2.9712043	0.4141969	9.868899	
188495015733000	2.8634653	0.415394	9.539697	
188495025722000	2.8263552	0.44651863	9.089587	
188495035715000	2.9053638	0.51834464	8.834604	
188495045716000	2.9245174	0.59974754	8.688558	
188495055722000	2.8526914	0.6739678	8.607155	
188495065727000	2.707842	0.7493851	8.588001	
188495075599000	2.634819	0.78290397	8.838196	
188495085684000	2.5905263	0.7254431	9.181764	
188495095611000	2.574964	0.62488663	9.466674	
188495105656000	2.7617116	0.5746084	9.935937	
188495115745000	3.0190883	0.59615624	9.901221	
188495125769000	2.6671407	0.12928689	9.710882	
188495135955000	2.5139117	0.11372458	9.155427	
188495145762000	2.7521348	0.58657944	8.713697	
188495156049000	2.7688942	0.62009823	8.506598	
188495165757000	2.753332	0.46208093	8.736442	
188495175726000	2.9161377	0.5710171	9.0476885	
188495185862000	3.072958	0.50637364	9.295488	
188495195773000	3.321955	0.47884035	9.380483	
188495205789000	3.4703953	0.47405192	9.264363	
188495215694000	3.4488475	0.4333505	9.074024	
188495225743000	3.3207579	0.427365	8.992621	
188495236039000	3.1962593	0.38067806	9.01776	
188495245682000	3.1292217	0.34476504	9.233239	
188495255653000	2.9999347	0.34596214	9.289502	
188495265740000	2.870648	0.39504328	9.226056	
188495275633000	2.8048072	0.4225766	9.082404	
188495285666000	2.718616	0.39624038	9.124303	
188495295623000	2.6611552	0.37469256	9.218874	
188495305941000	2.730587	0.37948096	9.31105	
188495315729000	2.9364884	0.48123455	9.469068	
188495325701000	3.1304188	0.5482722	9.491813	
188495335938000	3.1974564	0.5434838	9.346964	
188495345707000	3.1483753	0.4177882	8.990228	
188495356463000	2.992752	0.33877954	8.710106	
188495365762000	2.8550856	0.36511576	8.623915	
188495375756000	2.8802247	0.4189853	8.89805	
188495385783000	2.814384	0.24899697	9.518148	
188495395658000	2.7665	0.17357962	9.977836	
188495405673000	2.8562827	0.21787235	9.900024	
188495415551000	3.1531637	0.33518824	9.536105	
188495425616000	3.2968156	0.36990416	9.106346	
188495435542000	3.2381577	0.37708676	9.009381	
188495445665000	3.2333694	0.92296475	8.827422	
188495455560000	3.347094	-0.09816227	8.948329	
188495465546000	3.3662477	0.037110128	8.784326	
188495475619000	3.3028011	0.51235914	8.793902	
188495485554000	3.205836	0.56982	9.004593	
188495495653000	3.0693667	0.49320555	9.488221	
188495505513000	2.8634653	0.25977087	9.455899	
188495515745000	2.9293058	0.2753332	9.331401	
188495525585000	2.9257145	0.21547815	9.151836	
188495535512000	2.9376855	0.25378537	9.01776	
188495545505000	3.0131028	0.35075054	9.040505	
188495555718000	3.0693667	0.39264908	9.131485	
188495565629000	3.0813377	0.37708676	9.1829605	
188495575660000	3.040636	0.2657564	9.224859	
188495585788000	2.9652188	0.24779987	9.308656	
188495595932000	2.9532478	0.32680854	9.2069025	
188495605833000	2.9975405	0.34356794	9.027337	
188495616248000	2.9975405	0.33279404	8.902839	
188495625781000	2.991555	0.33877954	9.028535	
188495635536000	2.9137435	0.3184288	9.248801	
188495645578000	2.8191724	0.29688102	9.423578	
188495655548000	2.7964275	0.24061728	9.491813	
188495665632000	2.778471	0.16998832	9.400833	
188495675556000	2.7736826	0.17836803	9.293094	
188495685962000	2.72939	0.18674773	9.156625	
188495695625000	2.7473464	0.2789245	9.136273	
188495705518000	2.7808652	0.35075054	9.203311	
188495715565000	2.8407204	0.36032736	9.248801	
188495725778000	2.896984	0.35314476	9.077616	
188495735606000	2.9963434	0.35075054	8.961497	
188495745741000	3.0430303	0.37708676	8.979453	
188495755642000	3.015497	0.4441244	9.046491	
188495765694000	2.919729	0.41180268	9.216479	
188495775801000	2.873042	0.37948096	9.309854	
188495785549000	2.8862102	0.37469256	9.315839	
188495795595000	2.885013	0.33518824	9.238028	
188495805544000	2.9939492	0.2789245	9.186552	
188495815625000	3.1759086	0.29688102	9.258378	
188495825568000	3.205836	0.2801216	9.3733	
188495835606000	3.1256304	0.30286652	9.293094	
188495845659000	3.0382419	0.33039984	9.095572	
188495855548000	3.0442274	0.34237084	8.938752	
188495865557000	3.0969	0.37469256	8.969876	
188495875736000	3.1112652	0.3878607	9.106346	
188495885810000	3.071761	0.37110126	9.163807	
188495895587000	3.0226796	0.33638534	9.119514	
188495905639000	2.9975405	0.36152446	9.193734	
188495915607000	3.0178912	0.41060558	9.108741	
188495925650000	3.0071173	0.415394	9.02614	
188495935699000	2.9759927	0.37948096	9.053674	
188495945506000	2.9245174	0.36032736	9.106346	
188495955629000	2.9616275	0.35434186	9.203311	
188495965590000	3.0226796	0.35434186	9.194932	
188495975576000	3.074155	0.37110126	9.179369	
188495985683000	3.095703	0.37828386	9.187749	
188495995672000	3.0597897	0.36750996	9.119514	
188496005703000	3.0789435	0.38187516	9.066842	
188496016625000	3.1986535	0.39624038	9.150639	
188496025722000	3.2501287	0.38067806	9.334992	
188496035740000	3.1723173	0.35793316	9.350554	
188496045700000	3.072958	0.35673606	9.108741	
188496056142000	3.0693667	0.35314476	8.89805	
188496065714000	3.1136594	0.35553896	8.9363575	
188496075748000	3.13401	0.35075054	9.203311	
188496085827000	3.1064768	0.34476504	9.40203	
188496095735000	3.040636	0.34596214	9.26556	
188496105751000	3.040636	0.32920274	9.167398	
188496115690000	3.0142999	0.33997664	9.131485	
188496125733000	3.0609868	0.34835634	9.060856	
188496135696000	3.0430303	0.31483752	9.081207	
188496145737000	3.0011318	0.2885013	9.129091	
188496156045000	2.991555	0.32800564	9.345766	
188496165561000	2.9879637	0.37588966	9.40203	
188496175756000	2.9340942	0.34476504	9.313444	
188496185725000	2.7940333	0.32800564	9.283517	
188496195714000	2.9005754	0.46088383	9.105149	
188496206124000	2.9783869	0.4189853	8.98903	
188496215771000	3.0597897	0.4189853	8.996213	
188496225719000	3.0801406	0.40342298	9.03452	
188496235725000	2.9903579	0.34596214	9.103952	
188496245628000	2.883816	0.5758055	8.937555	
188496255593000	2.2888567	0.7410054	9.915586	
188496265829000	2.4025815	0.7098808	9.921572	
188496275640000	2.7952304	-0.1328782	9.976639	
188496315454000	3.1256304	0.6440403	8.655039	
188496325769000	3.1256304	0.6440403	8.655039	
188496325769000	3.1256304	0.6440403	8.655039	
188496325769000	3.1256304	0.6440403	8.655039	
188496325769000	3.1256304	0.6440403	8.655039	
188496335744000	2.943671	0.5793968	8.352173	
188496345728000	3.039439	0.51235914	8.130709	
188496355724000	3.1974564	0.48841715	8.301894	
188496365707000	3.0597897	0.37110126	8.483853	
188496375717000	3.1052797	0.40821138	8.446744	
188496385680000	3.1507695	0.4189853	8.576031	
188496396052000	3.2249897	0.40701428	8.850166	
188496405695000	3.5326445	0.45370123	9.040505	
188496415729000	3.8510735	0.5374983	9.192537	
188496425766000	3.9827545	0.62129533	9.358934	
188496435755000	3.9205053	0.6751649	9.5732155	
188496445776000	3.3147724	0.59017074	9.609129	
188496455699000	3.0083144	0.6967127	9.3026705	
188496468343000	2.956839	0.7410054	9.00579	
188496485650000	3.0418332	0.6811504	8.651448	
188496495611000	2.8311436	0.6356605	8.566454	
188496506251000	2.6048915	0.60932434	8.554482	
188496515625000	2.5198972	0.59735334	8.59279	
188496525779000	2.5701754	0.51235914	8.640674	
188496535644000	2.6527755	0.4309563	8.674192	
188496545737000	2.754529	0.37229836	8.839393	
188496556078000	2.8766334	0.37469256	9.2547865	
188496565791000	3.063381	0.50637364	9.606734	
188496575617000	3.335123	0.5781997	10.0029745	
188496585638000	3.7672763	0.7254431	10.419566	
188496595760000	3.6343982	0.46088383	9.986216	
188496605660000	3.4081461	0.48243165	9.326612	
188496615934000	3.156755	0.5327099	8.813056	
188496625737000	3.0083144	0.5410896	8.450335	
188496635759000	2.6192567	0.9636662	9.1255	
188496645732000	2.6048915	0.39025488	8.944737	
188496655759000	3.3255463	-0.022744916	9.157822	
188496666105000	3.6296098	0.50876784	9.396045	
188496675757000	3.4392707	0.50637364	9.291897	
188496685702000	3.3554738	0.45489833	9.217676	
188496695951000	3.289633	0.47285482	9.006987	
188496705698000	3.2632968	0.48722005	8.835801	
188496716374000	3.2393548	0.51954174	8.983045	
188496725718000	2.906561	0.25498247	9.911995	
188496735799000	2.9532478	0.46208093	10.168175	
188496745700000	2.9412768	0.58418524	9.871294	
188496755723000	2.837129	0.51954174	9.586384	
188496765762000	2.847903	0.5291186	9.2547865	
188496775744000	2.96881	0.5805939	8.722076	
188496785744000	3.132813	0.7589619	8.3821	
188496795759000	3.180697	0.8870517	8.457518	
188496805625000	3.1974564	0.78410107	8.735245	
188496815977000	3.3482912	0.7625532	9.054871	
188496825666000	3.3913867	0.7625532	9.198523	
188496835685000	3.4129345	0.7469909	9.141062	
188496845664000	3.3387144	0.7469909	9.094376	
188496855690000	3.2501287	0.760159	8.9519205	
188496865629000	3.1376014	0.78529817	8.632295	
188496875689000	3.0430303	0.79487497	8.562862	
188496885552000	3.0753522	0.81283146	8.866926	
188496895555000	3.1842883	0.80325466	9.234436	
188496905635000	3.2261868	0.79487497	9.279925	
188496915680000	3.1196449	0.81402856	8.967483	
188496925709000	2.7629087	0.82480246	9.020155	
188496935703000	2.6443958	0.79607207	9.088389	
188496945707000	2.6635494	0.7757214	9.222465	
188496955703000	2.7760768	0.7386112	9.31105	
188496965668000	2.8323407	0.7206547	9.16261	
188496975737000	2.7365725	0.79726917	8.9602995	
188496985642000	2.6013002	0.8379706	8.854955	
188496995753000	2.5330653	0.7553706	8.8645315	
188497005761000	2.6324248	0.6967127	9.113529	
188497015635000	2.956839	0.8798691	8.917204	
188497025622000	2.4660277	1.2497733	9.985018	
188497035758000	2.5210943	0.4405331	9.622296	
188497045706000	3.38181	0.6847417	9.090784	
188497055687000	3.4105403	1.0007763	8.694544	
188497065666000	3.0466216	1.4077905	8.99741	
188497075658000	2.8658595	0.8355764	8.880095	
188497085657000	3.5781345	0.9564836	8.924387	
188497095751000	3.5793316	1.021127	9.259575	
188497105658000	3.6056678	0.82719666	9.235633	
188497115664000	3.7541082	0.8607155	9.165004	
188497125662000	3.705027	0.8295909	9.093178	
188497135692000	3.5889084	0.7685388	8.856153	
188497145702000	3.6272156	0.7733272	8.702923	
188497155692000	3.5637693	0.830788	8.801085	
188497165689000	3.4452562	0.7553706	8.850166	
188497175691000	3.5087025	0.8451532	9.053674	
188497185699000	3.5230677	0.842759	9.297882	
188497195715000	3.513491	0.8738836	9.409213	
188497205703000	3.4344823	0.8822633	9.394848	
188497215711000	3.3865983	0.8882488	9.23683	
188497225662000	3.2980127	0.90141696	9.175778	
188497235741000	3.2190042	0.9911995	9.31943	
188497245652000	3.2309752	0.9540894	9.443929	
188497255660000	3.3171666	1.0462662	9.470264	
188497265986000	3.3518825	1.0283096	9.137471	
188497275522000	3.4213142	1.0163386	8.90643	
188497285624000	3.4225113	1.0175357	8.740033	
188497295677000	3.3662477	1.0342951	8.528147	
188497305579000	3.3147724	1.1228806	8.47308	
188497315760000	3.2333694	1.0893618	8.611943	
188497325621000	3.1615434	1.0761937	8.550891	
188497335659000	3.3602622	1.0510546	8.498219	
188497345660000	3.5793316	1.0714053	8.415619	
188497355698000	3.70383	1.1324574	8.202535	
188497365692000	3.6870706	1.1587936	7.9343843	
188497375705000	3.6236243	1.1013328	7.7069354	
188497385696000	3.7349546	1.1563994	7.645883	
188497395691000	3.927688	0.90381116	8.3150625	
188497405685000	4.0821137	0.94092125	8.835801	
188497415685000	4.309563	1.1133038	9.188946	
188497425680000	4.938041	1.2856863	10.854114	
188497435665000	4.5394063	1.7621324	12.682086	
188497445696000	4.11683	3.145981	10.960655	
188497455719000	3.072958	3.2381577	9.7084875	
188497468167000	2.3475149	2.2996306	8.372523	
188497485733000	3.0502129	1.8267759	8.1163435	
188497495650000	3.4703953	1.7645266	8.841787	
188497505651000	3.98874	1.2114661	9.333796	
188497515621000	4.4580035	1.6304513	9.028535	
188497525615000	4.253299	1.7944542	9.350554	
188497535642000	4.2341456	1.9668367	9.240421	
188497545721000	3.7553053	1.1180922	9.540894	
188497555687000	3.9552212	1.2569559	9.998186	
188497565698000	3.8307228	1.0618285	9.767146	
188497575752000	3.669114	0.7410054	9.223662	
188497585703000	3.6044707	0.9672575	8.892065	
188497595748000	3.5769374	0.9983821	8.556877	
188497605703000	3.2932243	0.6667852	8.367735	
188497616119000	3.5230677	0.9911995	7.727286	
188497625655000	4.1240125	1.721431	7.1730285	
188497635557000	4.605247	2.3535004	7.1790137	
188497645662000	4.2185836	2.231396	7.3609734	
188497655686000	3.7672763	2.0913353	7.8972745	
188497665700000	3.4320881	2.019509	8.517372	
188497675693000	3.265691	1.9201498	8.827422	
188497685681000	3.1591492	2.067393	8.722076	
188497695729000	3.25372	2.2613235	8.590396	
188497705640000	3.0083144	1.7381904	8.285135	
188497715732000	3.0334535	1.7405846	7.728483	
188497725756000	2.9999347	1.7992426	7.4483614	
188497735685000	3.1854854	2.0039468	7.6949644	
188497745744000	3.406949	1.8195933	8.033744	
188497755721000	3.3291376	1.1575965	7.952341	
188497765704000	3.5194764	0.6476316	8.305486	
188497775719000	4.0402155	0.107739076	9.428367	
188497785694000	4.7656584	0.055066638	9.7863	
188497795716000	5.1523223	0.30166942	9.660604	
188497805601000	5.079299	0.93014735	9.357738	
188497815656000	4.630386	1.3096284	9.357738	
188497825648000	4.197036	1.459266	9.85214	
188497835783000	3.9025488	1.6795325	10.26514	
188497845742000	3.4955344	1.8495208	10.518925	
188497855735000	3.1316159	1.9895816	9.853337	
188497865761000	2.5689783	2.0242975	9.609129	
188497875778000	2.4612393	1.9452889	9.363723	
188497885765000	2.2457612	1.7118542	9.064447	
188497895801000	1.9931729	1.5933412	8.467094	
188497905676000	1.543063	1.270124	7.642292	
188497915795000	0.7098808	0.6380547	7.560889	
188497925767000	-0.093373865	0.2645593	8.098388	
188497935714000	-0.17717093	0.15322891	8.574833	
188497945811000	0.61411273	0.48123455	8.281544	
188497955805000	1.376666	0.8535329	7.6470804	
188497965766000	1.42455	0.7661445	6.981492	
188497975731000	0.92775315	0.44651863	7.1969705	
188497985766000	0.7026982	0.36391866	8.352173	
188497995750000	1.5682021	0.9816227	11.325771	
188498005762000	2.9053638	1.1372458	11.123461	
188498015784000	4.581305	2.066196	11.115082	
188498025774000	6.56131	2.8538885	11.449073	
188498035726000	7.171831	2.9101522	12.23078	
188498045815000	5.088876	2.0470424	10.86369	
188498055711000	3.217807	1.6316484	8.7951	
188498065701000	3.241749	2.0614076	7.3430166	
188498075791000	3.3446999	1.8734628	6.813898	
188498085731000	2.8622682	1.1228806	7.153875	
188498096288000	3.4332852	1.2330139	8.189367	
188498105755000	3.8379054	0.93493575	8.9040365	
188498115691000	4.3119574	0.90620536	9.458294	
188498125771000	4.607641	1.0271125	9.588778	
188498135789000	4.337096	1.412579	9.552865	
188498145711000	3.2154129	1.4508862	9.227253	
188498155732000	2.134431	1.271321	9.103952	
188498165746000	2.0015526	1.1731589	8.784326	
188498175563000	1.982399	1.1264719	8.513782	
188498185622000	1.8507179	1.2593501	8.884883	
188498195743000	2.3511062	0.8810662	9.672575	
188498205738000	2.992752	0.91219085	10.466252	
188498215740000	2.920926	1.1073183	10.777499	
188498225744000	2.5833437	0.9528923	10.364499	
188498235711000	2.7006595	1.1683705	9.431957	
188498245908000	2.7281928	1.3730747	8.327033	
188498256050000	2.574964	1.2761095	7.6614456	
188498265610000	2.790442	1.2270284	7.5812397	
188498275543000	3.1016884	1.0319009	8.514978	
188498285775000	2.754529	1.1336545	9.67018	
188498295525000	2.5462334	1.1947067	8.426393	
188498305631000	2.7700913	1.1803415	9.277532	
188498315648000	2.6252422	1.1288661	9.229648	
188498325612000	1.9740193	1.1360487	9.816227	
188498335694000	2.7928362	1.0857705	9.720459	
188498345728000	3.6092591	1.2892777	9.7719345	
188498355688000	3.4356794	1.3275849	9.880871	
188498365665000	3.490746	1.1085154	9.929952	
188498375691000	3.4811692	1.246182	9.878476	
188498385671000	2.823961	1.1767502	9.297882	
188498395658000	2.719813	0.9696517	8.856153	
188498405598000	3.1196449	1.2354081	8.556877	
188498415719000	3.265691	1.328782	8.872911	
188498427707000	3.1316159	0.81402856	8.974665	
188498445583000	2.8179753	1.103727	8.310274	
188498455686000	2.4241292	0.9876082	8.374918	
188498465882000	2.1332338	0.712275	7.5561004	
188498475573000	2.0853498	0.736217	8.428787	
188498485593000	2.516306	0.7206547	7.979874	
188498495596000	2.9735985	0.9744401	8.516175	
188498505806000	2.8886044	1.2198458	9.647436	
188498515630000	2.4181437	1.1408371	10.534488	
188498525657000	1.9069817	0.9923966	11.263522	
188498535589000	2.2122424	0.93014735	10.637438	
188498545703000	3.6858735	1.389834	11.025299	
188498555665000	3.0765493	1.5310919	8.450335	
188498565723000	3.028665	1.174356	8.1163435	
188498575762000	2.6013002	0.8463503	8.356961	
188498585705000	2.3630772	0.81522566	8.215703	
188498595717000	2.918532	1.0953473	8.264784	
188498606050000	4.1706996	1.5753847	9.497798	
188498615661000	4.3059716	1.483208	9.639056	
188498625575000	3.6619315	1.1408371	9.982624	
188498635675000	2.790442	0.7386112	10.101137	
188498645646000	1.8866309	0.32321724	9.606734	
188498655695000	1.6998832	0.29568392	9.417592	
188498665658000	1.7753005	0.16759412	9.1829605	
188498675691000	2.1559787	0.47285482	8.702923	
188498685665000	3.0561984	1.697489	8.2516165	
188498695663000	4.343082	3.2620997	10.192117	
188498705648000	2.0973208	-0.23822308	10.309433	
188498715675000	0.4177882	-0.7266402	12.962208	
188498725704000	0.33159694	-1.2366052	13.563152	
188498735691000	-0.90021986	-1.4413095	14.057555	
188498745677000	-1.3000516	-1.0929531	16.262615	
188498755977000	0.7146692	0.92296475	15.382746	
188498765518000	0.58538234	1.3910311	15.540763	
188498775628000	0.6560113	3.4237084	14.79497	
188498785697000	0.712275	2.0901382	13.532028	
188498795573000	-0.21428105	0.7565677	12.376825	
188498805632000	0.51714754	2.1523874	12.525267	
188498815689000	3.41892	4.177882	14.578294	
188498825697000	3.8139634	4.9176903	15.336059	
188498835636000	3.7912183	4.6100354	14.1904335	
188498845667000	3.064578	3.4249055	12.265495	
188498855569000	2.3594859	2.7952304	11.043256	
188498865542000	2.0242975	2.5881321	10.898406	
188498875505000	1.9512744	2.4372973	10.621876	
188498885662000	1.7872716	2.1787236	9.935937	
188498895611000	1.5478514	2.280477	9.340978	
188498905804000	1.2485762	2.8395233	9.137471	
188498915679000	0.997185	3.0454245	8.893262	
188498925563000	0.5494693	3.2225955	9.012972	
188498935559000	-0.1592144	3.5302503	9.009381	
188498945691000	-0.89303726	3.560178	9.194932	
188498955718000	-1.3096284	3.527856	9.19972	
188498965661000	-1.4065934	3.6332011	8.550891	
188498975697000	-1.9333179	3.6044707	7.6602483	
188498985638000	-2.6551697	3.3315318	7.5549035	
188498995999000	-3.405752	3.0585926	7.6506715	
188499005716000	-3.6631286	3.084929	6.8881183	
188499015689000	-3.942053	3.8067808	5.9663506	
188499025664000	-4.727351	5.386954	5.8562174	
188499035693000	-5.631162	5.518635	4.486734	
188499045637000	-6.3123126	5.079299	2.0482395	
188499055710000	-6.944382	4.914099	0.6452374	
188499065646000	-8.08881	4.9284644	0.5434838	
188499075679000	-9.284714	5.2648497	0.47764325	
188499085646000	-8.803479	5.085284	-0.1388637	
188499096063000	-7.1730285	4.531027	0.48602295	
188499105669000	-6.9108634	3.954024	1.9405005	
188499115670000	-7.920019	3.3985693	3.750517	
188499125704000	-8.826224	2.6048915	5.5868697	
188499135696000	-9.010578	2.397793	6.9503675	
188499145640000	-8.706514	2.6791117	8.7771435	
188499155583000	-8.640674	2.8754363	9.096769	
188499165706000	-9.107543	2.2421699	8.878897	
188499175655000	-9.7240505	1.316811	8.480263	
188499185642000	-9.965864	0.82719666	8.389283	
188499196078000	-9.831789	0.10295067	9.23683	
188499205740000	-7.961918	1.2629414	12.220005	
188499215699000	-5.693412	3.5565867	14.07192	
188499225725000	-4.620809	4.572925	12.840104	
188499235690000	-4.796783	4.38498	9.890448	
188499245695000	-5.0014873	4.224569	7.406463	
188499255636000	-4.201824	5.021838	6.4906807	
188499265807000	-2.7868507	6.147113	6.159084	
188499275659000	-1.8064252	7.241263	5.6658783	
188499285627000	-2.7341783	6.633136	2.682703	
188499295779000	-3.8007953	5.0781016	0.7098808	
188499305628000	-4.677073	3.466804	0.022744916	
188499315553000	-4.782418	3.8893807	0.7433996	
188499325734000	-4.542998	4.047398	1.2054806	
188499335674000	-4.921282	3.5098996	2.112883	
188499345673000	-5.461174	2.8981812	2.815581	
188499355690000	-5.4168816	2.409764	3.6116533	
188499365749000	-4.6100354	2.2972364	4.594473	
188499375729000	-3.7840357	2.2697031	5.461174	
188499385695000	-3.3554738	1.9752164	6.2752028	
188499395665000	-2.823961	1.7082629	7.2628107	
188499405692000	-2.7210102	1.9859903	10.354922	
188499415690000	-3.7217865	2.6611552	16.090233	
188499425706000	-3.714604	3.0561984	18.53591	
188499435695000	-2.0901382	1.6663644	17.65604	
188499445662000	-0.6919243	-0.8607155	13.06037	
188499456326000	-1.2545617	-1.9069817	13.582306	
188499475494000	-2.6791117	-0.90021986	6.1076083	
188499485556000	-2.195483	-0.90021986	6.1076083	
188499485556000	-2.195483	-0.90021986	6.1076083	
188499495569000	0.49799395	4.736928	0.40581718	
188499505631000	1.3479356	8.258799	6.2823853	
188499515741000	-0.3172317	6.805518	8.492233	
188499525628000	-1.0031705	4.26527	7.00304	
188499535637000	-2.360683	2.231396	6.1447186	
188499545733000	-3.8833952	0.9720459	6.615179	
188499555740000	-4.497508	0.80325466	7.4926543	
188499565770000	-4.280833	1.2892777	9.178172	
188499575739000	-3.039439	0.92296475	8.42759	
188499585738000	-1.8986019	1.2521675	6.279991	
188499595715000	-1.6903064	1.2737153	7.345411	
188499605745000	-1.3227965	1.4939818	6.363788	
188499615942000	-2.457648	0.6344634	5.647922	
188499625870000	-2.0266917	1.9189527	7.3106947	
188499635736000	-1.1073183	2.9173348	7.1347213	
188499645785000	-1.0821792	3.0011318	5.3438582	
188499655765000	-1.5239093	2.8658595	4.4328647	
188499665870000	-1.70946	2.8323407	4.619612	
188499676031000	-1.4903905	2.8167782	5.1822495	
188499685931000	-1.0007763	2.7688942	5.7269306	
188499696571000	-0.80564886	2.6599581	5.911284	
188499705776000	-1.0642227	2.3786395	5.74369	
188499715621000	-1.4185646	1.9656396	6.0046577	
188499725783000	-1.4389153	1.8926164	6.7624226	
188499735830000	-0.9720459	2.2062569	7.9954367	
188499745939000	-1.7944542	1.0450691	6.075287	
188499755716000	-2.0721815	1.7010803	7.615956	
188499765691000	-1.6927006	1.9788077	7.433996	
188499775568000	-1.2880806	1.4341269	8.1163435	
188499785554000	-0.6380547	1.7633295	9.411607	
188499795629000	0.2705448	2.8491	9.600749	
188499805710000	1.1923125	3.9001546	9.67018	
188499815657000	1.7669208	3.9827545	10.111911	
188499825646000	1.745373	3.3961751	10.049662	
188499835652000	1.5993267	3.1112652	9.701305	
188499845760000	1.5286977	3.028665	9.380483	
188499855750000	1.4820108	3.0214825	8.987833	
188499866015000	1.4030021	2.8886044	8.876503	
188499875775000	1.2629414	2.504335	8.948329	
188499885734000	1.1336545	2.1416135	9.317036	
188499895918000	1.2186487	2.0733786	9.759963	
188499905532000	1.6603789	2.0697873	10.023325	
188499915831000	2.2278047	2.1296425	10.204087	
188499925565000	2.846706	2.4648306	10.301053	
188499935619000	3.2561142	2.7748797	10.705673	
188499945899000	3.2860417	3.004723	10.981006	
188499955565000	3.0561984	3.1986535	10.913968	
188499965571000	2.6647465	3.1172507	10.333375	
188499975542000	2.268506	2.8646624	9.92636	
188499985580000	2.007538	2.64679	9.704897	
188499995835000	1.8243817	2.6001031	9.653421	
188500005647000	1.7597382	2.669535	9.508572	
188500015612000	1.7908629	2.7150247	9.497798	
188500025538000	1.9081788	2.6491842	9.725247	
188500035624000	2.1511903	2.6515784	10.131064	
188500045749000	2.3894134	2.7353754	10.478224	
188500055575000	2.645593	2.870648	10.684125	
188500065539000	2.944868	3.0382419	10.782288	
188500075560000	3.3087866	3.1759086	10.939108	
188500085556000	3.691859	3.2381577	11.071986	
188500095538000	4.050989	3.3291376	10.964247	
188500105516000	4.262876	3.503914	10.928333	
188500115678000	4.298789	3.5087025	11.244369	
188500125682000	4.3754034	3.3985693	11.453861	
188500135737000	4.4184995	3.3411086	11.496957	
188500145685000	4.471172	3.3411086	11.301829	
188500155726000	4.531027	3.3746274	11.080365	
188500165900000	4.578911	3.3901896	10.714052	
188500175821000	4.606444	3.4033577	10.2974615	
188500185914000	4.653131	3.3530796	10.085575	
188500195929000	4.6232033	3.1902738	9.8677025	
188500205927000	4.620809	3.0382419	9.874885	
188500215984000	4.6842556	2.8179753	10.261548	
188500225893000	4.7381253	2.2361844	10.368091	
188500236000000	4.735731	2.1823149	10.13705	
188500245814000	4.721366	2.1547816	9.55047	
188500256106000	4.6160207	2.1296425	8.761581	
188500275656000	4.286818	2.0087352	7.135918	
188500285796000	4.259285	1.9440918	7.135918	
188500285796000	4.259285	1.9440918	7.135918	
188500296135000	4.4556093	2.0398598	6.9360023	
188500305525000	4.8841715	2.2732944	7.016208	
188500315515000	5.33907	2.4061728	7.515399	
188500325651000	5.7855883	2.336741	8.075643	
188500335629000	6.105214	2.148796	8.686164	
188500345676000	6.265626	1.8770541	9.382876	
188500355727000	6.232107	1.5502456	9.850943	
188500365676000	6.183026	1.4053963	10.17416	
188500375608000	6.217742	1.401805	10.212467	
188500385874000	6.1399302	1.3204023	10.298658	
188500396026000	6.007052	1.103727	10.032902	
188500405964000	5.819107	1.033098	9.200917	
188500415933000	5.6108117	1.2473791	8.48146	
188500425920000	5.544971	1.5574282	7.9822683	
188500435931000	5.4312468	1.7274165	7.559692	
188500446218000	5.234922	1.6639702	6.956353	
188500455838000	4.981137	1.6903064	6.113594	
188500465771000	4.7548847	1.7046716	5.109226	
188500475820000	4.3358994	1.839944	4.349067	
188500485710000	4.134786	2.2385786	3.394978	
188500495608000	3.9959226	2.529474	2.385822	
188500505587000	3.645172	2.4744074	1.6759412	
188500515700000	3.6619315	2.4863784	1.6927006	
188500525657000	3.7301662	2.2481554	1.3874398	
188500535677000	2.8048072	2.2828712	1.435324	
188500545774000	1.8231846	2.1691468	0.8690952	
188500555788000	0.7206547	1.7202339	0.45130703	
188500565805000	0.62608373	1.2114661	1.0737995	
188500575556000	0.5518635	0.7278373	2.005144	
188500585799000	0.30166942	0.29807812	2.1691468	
188500595775000	0.39145198	0.17357962	2.3870192	
188500605798000	0.63087213	0.47165772	2.5510218	
188500615776000	0.7015011	0.4225766	2.574964	
188500625978000	1.0522517	0.25617957	2.4959552	
188500635734000	1.5765818	-0.35793316	1.6472107	
188500645639000	1.8291701	-0.94930094	1.282095	
188500655668000	1.9440918	-1.6950948	1.5598224	
188500665782000	2.1404164	-2.6360161	1.6208745	
188500675658000	2.5629928	-3.667917	1.9536686	
188500685834000	3.0693667	-4.674679	3.9372647	
188500695687000	4.582502	-6.005855	7.025785	
188500705744000	5.103241	-6.9850836	10.824186	
188500715783000	5.816713	-7.751228	12.799402	
188500725756000	6.70975	-7.6770077	12.338518	
188500735784000	7.575254	-7.0221934	11.09473	
188500745824000	8.74961	-6.253655	10.809821	
188500755967000	9.921572	-5.5365915	11.547235	
188500765825000	10.582372	-5.1786585	13.090298	
188500775762000	10.320207	-5.519832	14.67885	
188500785828000	9.487024	-6.585252	15.859192	
188500795749000	8.423999	-7.9236107	16.597803	
188500805817000	7.4591355	-9.126697	16.460136	
188500815786000	6.7384806	-9.706094	15.890317	
188500825808000	6.483498	-9.673772	14.981717	
188500835808000	6.3482256	-9.546879	14.1629	
188500845830000	6.3111157	-9.570822	13.129802	
188500855797000	6.7133417	-9.387665	12.089521	
188500865832000	7.2484455	-9.303867	11.334151	
188500875775000	7.5165963	-9.3661175	11.004948	
188500885803000	7.6051817	-9.406818	10.849325	
188500895797000	7.6243353	-9.360131	10.800244	
188500905824000	7.3765354	-9.337387	11.127052	
188500915755000	7.023391	-9.308656	11.567586	
188500925745000	6.575675	-9.176975	11.96622	
188500935800000	6.113594	-8.9363575	12.032061	
188500945762000	5.6084175	-8.603564	11.719617	
188500955798000	5.17387	-8.226477	11.123461	
188500965833000	4.8374844	-7.7584105	10.471041	
188500975949000	4.4675803	-7.2699933	9.816227	
188500985663000	4.06296	-6.7229185	9.440337	
188500995826000	3.6140475	-6.191406	9.31943	
188501005697000	3.145981	-5.731719	9.0081835	
188501015738000	2.718616	-5.4204726	8.488642	
188501025704000	2.2960393	-5.305551	7.869741	
188501035624000	1.9967642	-5.2301335	7.067683	
188501045631000	1.6950948	-5.129577	6.159084	
188501055596000	1.4053963	-5.04578	5.329493	
188501065530000	1.1336545	-5.073313	4.608838	
188501075557000	0.93493575	-5.1439424	3.7924154	
188501085547000	0.94570965	-5.0637364	3.0478187	
188501095520000	1.0534488	-4.853047	2.7018566	
188501105541000	1.2246342	-4.793192	2.3989902	
188501115478000	1.5251064	-4.88058	2.171541	
188501125490000	1.7896658	-5.2528787	2.4121583	
188501135643000	2.0015526	-5.8322754	2.7700913	
188501145589000	2.291251	-6.3003416	3.288436	
188501155713000	2.8993783	-6.467936	4.3287168	
188501165665000	3.7588966	-6.3566055	7.3310456	
188501175672000	5.506664	-6.0585275	8.774749	
188501185752000	6.117185	-5.8562174	10.157401	
188501195535000	6.421249	-5.7305217	11.025299	
188501205773000	6.50744	-5.639542	11.33894	
188501215992000	6.4739213	-5.603629	11.170148	
188501226463000	6.2045736	-5.6323595	10.086772	
188501236116000	5.813122	-5.591658	8.746018	
188501245857000	5.2636523	-5.6156	7.7679873	
188501255629000	4.6471453	-5.7496753	7.1969705	
188501265731000	4.021062	-5.8741736	6.6989765	
188501285664000	3.0933087	-5.9878983	5.7999535	
188501285664000	3.0933087	-5.9878983	5.7999535	
188501295790000	2.8574798	-5.9627595	5.6084175	
188501305715000	2.8538885	-5.864597	5.6886234	
188501315521000	3.0813377	-5.7245364	6.0764837	
188501325500000	3.4476504	-5.5509567	6.513426	
188501335555000	3.918111	-5.3582234	6.907272	
188501345538000	4.4161053	-5.2636523	7.3657618	
188501355503000	4.80636	-5.2421045	7.8865004	
188501365587000	5.1259856	-5.1343656	8.237251	
188501375678000	5.3438582	-4.9559975	8.578424	
188501386259000	5.4563856	-4.76087	9.283517	
188501395667000	5.505467	-4.7668557	9.7958765	
188501405817000	5.3678	-4.9308586	9.605537	
188501415766000	5.171476	-4.935647	9.209297	
188501425700000	5.149928	-4.871003	8.839393	
188501435750000	5.233725	-4.8578353	8.281544	
188501445679000	5.363012	-4.64116	7.6410947	
188501455674000	5.5270147	-4.3406878	7.369353	
188501465562000	5.5617304	-4.0880995	7.145495	
188501475830000	5.6084175	-3.8019924	6.7121444	
188501485636000	5.6215854	-3.5290532	6.1782374	
188501496129000	5.6886234	-3.2800562	5.547365	
188501505664000	5.6203885	-3.0310593	4.987122	
188501515491000	5.674258	-2.6755204	4.3885717	
188501525583000	5.8203044	-2.207454	3.618836	
188501535591000	5.849035	-1.7609353	2.8119898	
188501545589000	5.7855883	-1.4281414	2.3558946	
188501555566000	5.7975593	-1.151611	2.4349031	
188501565664000	6.0860605	-0.79607207	2.7569232	
188501575617000	6.4368114	-0.4141969	2.8526914	
188501585554000	6.8103065	-0.1328782	2.9317	
188501595503000	7.2185183	-0.09816227	3.4213142	
188501605571000	7.5788455	-0.1448492	4.2221746	
188501615563000	8.050503	-0.31364042	4.959589	
188501625629000	8.467094	-0.44771573	5.5270147	
188501635570000	8.839393	-0.40701428	5.7400985	
188501645593000	9.860519	-0.12090719	5.1343656	
188501655560000	10.681731	-0.061052144	4.9548006	
188501665563000	11.603498	-0.108936176	5.209783	
188501675644000	12.696451	0.0011971008	6.2847795	
188501685707000	13.798982	0.1376666	7.9930425	
188501695677000	14.634558	0.045489833	9.854534	
188501705734000	15.002068	-0.2741361	11.836933	
188501715655000	14.486117	-1.1408371	14.056358	
188501725615000	13.927072	-2.1631613	15.446193	
188501735688000	13.421895	-2.6324248	15.395914	
188501745748000	13.798982	-2.6024973	13.819332	
188501755801000	14.12579	-2.2026656	12.059594	
188501765867000	13.408727	-1.6938977	9.876082	
188501775798000	12.339716	-1.2210429	7.6387005	
188501785747000	11.354502	-0.8415619	6.136339	
188501795988000	10.143036	-0.6476316	5.0996494	
188501805930000	8.631097	-0.6392518	4.3059716	
188501815981000	7.038953	-0.90620536	3.8295257	
188501825798000	5.485116	-1.3012487	3.4835634	
188501835785000	4.1012673	-1.685518	3.4560301	
188501845916000	3.0813377	-1.9764135	3.5290532	
188501855680000	2.4049757	-2.0015526	3.477578	
188501865782000	1.9596541	-1.7908629	3.3387144	
188501875769000	1.6831238	-1.532289	3.1399956	
188501886019000	1.5514427	-1.3575124	2.9520507	
188501896685000	1.5119383	-1.2844892	2.9508536	
188501905846000	1.555034	-1.2270284	3.1794999	
188501915952000	1.5837644	-1.1971009	3.3650506	
188501925792000	1.6005238	-1.1935096	3.2920272	
188501935820000	1.6603789	-1.1647792	3.1783028	
188501945902000	1.7621324	-1.1228806	3.2273839	
188501956011000	1.8674773	-1.1468226	3.2968156	
188501965906000	2.1021092	-1.1492168	3.3758245	
188501975955000	2.5270798	-1.0175357	3.537433	
188501985804000	3.1495724	-0.8379706	3.8606503	
188501996000000	3.7349546	-0.6739678	4.238934	
188502005699000	4.370615	-0.5722142	4.6806645	
188502015949000	5.019444	-0.47165772	5.257667	
188502025914000	5.6551046	-0.34835634	5.8741736	
188502036037000	6.2620344	-0.2765303	6.3985043	
188502045970000	7.005434	-0.19752164	6.906075	
188502058599000	8.26239	0.11492168	7.8182654	
188502075956000	8.588001	0.088585466	8.452729	
188502085711000	8.671799	-0.022744916	8.963891	
188502095638000	8.495825	-0.2801216	9.215282	
188502105832000	8.139089	-0.6715736	9.136273	
188502115615000	7.5968018	-1.1791444	8.215703	
188502125795000	7.630321	-1.1085154	7.807492	
188502135822000	7.8613615	-0.8882488	7.2807674	
188502145712000	8.244433	-0.60333884	6.813898	
188502155806000	8.662222	-0.45250413	6.4990606	
188502165846000	9.094376	-0.39983168	6.31351	
188502175773000	9.452309	-0.36631286	6.302736	
188502185870000	9.721656	-0.29927522	6.519411	
188502195969000	9.765948	-0.19512744	7.016208	
188502205808000	9.57561	-0.1412579	7.6027875	
188502215999000	9.166202	-0.06943185	8.294712	
188502225930000	8.686164	-0.031124622	8.74123	
188502236016000	8.307879	-0.24540567	8.737639	
188502246055000	8.043321	-0.8283938	8.336611	
188502256116000	8.4647	-1.9273324	8.061277	
188502275964000	9.26197	-2.042254	8.628703	
188502275964000	9.26197	-2.042254	8.628703	
188502285785000	10.3692875	-1.8052281	9.733627	
188502295544000	11.663354	-1.5466543	11.020511	
188502305802000	12.77546	-1.3850456	12.200851	
188502315491000	13.517663	-1.1408371	13.041217	
188502325632000	13.887567	-0.7182605	13.377602	
188502335587000	13.78701	-0.36391866	13.220781	
188502345785000	13.03164	-0.23104046	12.366052	
188502355783000	11.702858	-0.3878607	10.948685	
188502365761000	10.183737	-0.88944596	9.44752	
188502375718000	8.684967	-1.4676456	7.9391727	
188502385707000	7.369353	-2.0530279	6.5086374	
188502395765000	6.317101	-2.7090392	5.153519	
188502405849000	5.439626	-3.3123782	3.916914	
188502415768000	4.6830587	-3.6894648	3.0083144	
188502425819000	4.1132383	-3.9396589	2.2864625	
188502435936000	3.809175	-3.965995	1.5394717	
188502445780000	3.70383	-3.762488	0.7266402	
188502455997000	3.8271315	-3.4680011	0.022744916	
188502465890000	4.1826706	-3.1112652	-0.17597382	
188502475980000	4.8458643	-2.7114334	0.20709845	
188502485754000	5.6096144	-2.3355439	0.7062895	
188502495911000	6.3793507	-1.9847932	1.423353	
188502505611000	6.943185	-1.7238252	2.421735	
188502515570000	7.4028716	-1.4532804	3.5434184	
188502525643000	7.6482773	-1.1851299	4.689044	
188502535668000	7.627927	-1.0378864	5.6790466	
188502545676000	7.3442135	-1.0390835	6.43322	
188502555762000	6.8522053	-1.1061212	6.939594	
188502565710000	6.2883706	-1.1971009	7.147889	
188502575777000	5.7125654	-1.2485762	7.091625	
188502585804000	4.9045224	-1.1444284	6.1064115	
188502595768000	4.736928	-0.90979666	5.5389857	
188502605697000	4.6339774	-0.6344634	4.933253	
188502615828000	4.6112323	-0.37588966	4.3382936	
188502625725000	4.68665	-0.14963761	3.855862	
188502635680000	4.7896004	0.06464344	3.526659	
188502645853000	4.9105077	0.2705448	3.3770216	
188502655613000	5.0302176	0.4261679	3.2345665	
188502665791000	5.044583	0.45130703	3.1028855	
188502675788000	5.0146556	0.35793316	3.0765493	
188502685747000	4.8877625	0.16400282	3.1256304	
188502695735000	4.799177	-0.073023155	3.1615434	
188502705787000	4.7165775	-0.35793316	3.3674448	
188502716053000	4.8255134	-0.51235914	3.9576154	
188502725734000	5.1547165	-0.6500258	4.537012	
188502736641000	5.6982	-0.724246	4.997896	
188502745807000	6.43322	-0.8295909	5.434838	
188502756438000	7.36217	-1.0127473	5.8717794	
188502765848000	8.459911	-1.2557588	6.453571	
188502775683000	9.470264	-1.6304513	7.1885905	
188502785631000	10.516531	-1.9488802	8.166622	
188502795772000	11.493365	-2.054225	9.369708	
188502805649000	12.210428	-1.9656396	10.496181	
188502815571000	12.588713	-1.780089	11.316195	
188502825712000	12.628217	-1.5801731	11.765107	
188502835697000	12.337321	-1.5263035	11.963826	
188502845730000	11.668142	-1.6017209	11.803414	
188502855585000	10.747571	-1.7429788	11.456255	
188502865701000	9.855731	-1.8339585	11.071986	
188502875676000	9.075222	-1.8351556	10.59554	
188502885722000	8.395268	-1.6891093	9.898827	
188502895756000	7.8709383	-1.3874398	9.229648	
188502905680000	7.404069	-1.0749966	8.67539	
188502915772000	6.9168487	-0.81642276	8.039729	
188502925881000	6.3949127	-0.8451532	6.9647326	
188502935960000	6.1782374	-1.3036429	5.746084	
188502945838000	6.2967505	-2.0039468	4.9164934	
188502955997000	6.7468605	-2.396596	4.662708	
188502965896000	7.6410947	-2.505532	4.6938324	
188502975989000	8.823831	-2.6276364	4.7500963	
188502985953000	10.079589	-2.7952304	5.1822495	
188502995771000	11.166556	-2.8550856	6.3745623	
188503005911000	11.953052	-2.6982653	7.77517	
188503015792000	12.221203	-2.7269957	8.848969	
188503025936000	11.6669445	-3.3279405	9.423578	
188503035985000	10.554838	-4.2197804	9.583989	
188503045885000	9.556456	-5.1475334	9.610326	
188503055968000	7.9906483	-5.768829	9.667787	
188503066320000	7.429208	-5.483919	9.173384	
188503075928000	7.27957	-5.019444	8.672996	
188503085811000	7.45315	-4.4005427	8.2169	
188503095731000	7.7320743	-3.774459	7.631518	
188503105852000	7.9391727	-3.1244333	6.847417	
188503116132000	7.9391727	-2.528277	5.8586116	
188503125903000	7.8446016	-2.0147207	4.8362875	
188503135952000	7.5668745	-1.5969325	3.9240966	
188503145938000	7.1586633	-1.2617443	3.0753522	
188503155743000	6.647501	-1.0402806	2.3594859	
188503165860000	6.0920463	-0.89423436	1.8650831	
188503175970000	5.544971	-0.7565677	1.5394717	
188503185852000	5.052963	-0.6440403	1.3742718	
188503195969000	4.72376	-0.5566519	1.353921	
188503205901000	4.5274353	-0.4297592	1.5023615	
188503215970000	4.4699745	-0.30047232	1.7262194	
188503225896000	4.5202527	-0.15801731	1.9548657	
188503235919000	4.6962266	0.005985504	2.291251	
188503245995000	4.903325	0.14724341	2.7126305	
188503275654000	5.3366756	0.055066638	4.0138793	
188503275654000	5.3366756	0.055066638	4.0138793	
188503275654000	5.3366756	0.055066638	4.0138793	
188503286597000	5.3857565	-0.038307227	4.5382094	
188503295627000	5.445612	-0.16280572	4.959589	
188503305553000	5.506664	-0.3196259	5.3043537	
188503315626000	5.6203885	-0.58657944	5.5126495	
188503325635000	5.8226986	-0.9504981	5.5581393	
188503335577000	6.1279593	-1.2593501	5.747281	
188503345697000	6.6079965	-1.4425066	6.3446345	
188503355671000	7.2831616	-1.5143325	7.2831616	
188503365753000	7.953538	-1.435324	8.324639	
188503375992000	8.558074	-1.282095	9.408015	
188503385682000	8.944737	-1.1288661	10.172963	
188503395967000	9.00579	-0.9648633	10.553641	
188503405911000	8.708909	-0.81761986	10.662578	
188503415959000	8.139089	-0.8738836	10.333375	
188503426041000	7.398083	-1.1827357	9.623494	
188503435765000	6.7205243	-1.5705963	8.902839	
188503469171000	5.731719	-2.135628	7.3849154	
188503469171000	5.731719	-2.135628	7.3849154	
188503469171000	5.731719	-2.135628	7.3849154	
188503485932000	6.2644286	-1.6687586	7.1993647	
188503495586000	6.5325794	-1.3982137	6.9491706	
188503505575000	6.754043	-1.1360487	6.493075	
188503515662000	6.815095	-0.9708488	5.9448028	
188503525564000	6.7588315	-0.93852705	5.3462524	
188503535756000	6.609194	-0.985214	4.5046906	
188503545679000	6.7839704	-0.94810385	4.4819455	
188503555651000	7.133524	-0.8499416	4.847061	
188503565558000	7.513005	-0.8571242	5.2756233	
188503575683000	7.7847466	-1.0199299	5.731719	
188503585661000	8.054094	-1.2294226	6.326678	
188503595660000	8.263587	-1.435324	6.963536	
188503606117000	8.441956	-1.62686	7.539341	
188503616079000	8.626308	-1.804031	8.056489	
188503626112000	8.77834	-1.9369092	8.619126	
188503636238000	8.92319	-2.0518308	9.25359	
188503645921000	8.957906	-2.1021092	9.66659	
188503655634000	8.8645315	-2.0913353	9.668983	
188503665893000	8.53054	-2.1260512	9.38168	
188503676320000	8.147469	-2.1679497	8.871715	
188503685789000	7.811083	-2.0973208	8.186973	
188503696070000	7.505822	-1.9572599	7.395689	
188503706051000	7.1993647	-1.7705121	6.5589156	
188503715756000	6.931214	-1.5586253	5.8717794	
188503725840000	6.719327	-1.3299791	5.2744265	
188503735702000	6.505046	-1.0702082	4.6782703	
188503745865000	6.283582	-0.8439561	4.0892963	
188503755770000	6.069301	-0.6859388	3.678691	
188503765765000	5.8885393	-0.60094464	3.5110967	
188503775998000	5.8238955	-0.51834464	3.4847605	
188503785806000	5.8238955	-0.38067806	3.4368765	
188503795942000	5.898116	-0.2681506	3.4320881	
188503805807000	6.123171	-0.18195933	3.6128504	
188503816098000	6.4032927	-0.12808979	3.9839516	
188503826032000	6.615179	-0.1316811	4.38498	
188503835975000	6.7588315	-0.16998832	4.736928	
188503846050000	6.7959414	-0.25378537	5.0757074	
188503856574000	6.815095	-0.39863458	5.398925	
188503865888000	6.827066	-0.5746084	5.7185507	
188503875826000	6.8893156	-0.7757214	5.9531827	
188503885983000	7.005434	-0.93852705	6.179435	
188503896017000	7.1969705	-0.997185	6.5110316	
188503905837000	7.439982	-0.9744401	6.993463	
188503915944000	7.714118	-0.8403648	7.5189905	
188503925931000	7.8912888	-0.7374141	7.9595237	
188503935939000	7.937976	-0.6691794	8.305486	
188503945925000	7.9188223	-0.6931214	8.504205	
188503956009000	7.9236107	-0.7697359	8.394072	
188503966006000	7.8912888	-0.82719666	8.182184	
188503976423000	7.8793178	-0.80564886	7.571663	
188503985872000	7.78355	-0.79367787	7.571663	
188503995990000	7.711724	-0.78050977	7.5644803	
188504005789000	7.309498	-0.8858546	7.6734166	
188504016035000	7.017405	-1.0833763	7.5668745	
188504025935000	6.7444663	-1.3599066	7.3873096	
188504035655000	6.588843	-1.697489	7.289147	
188504045895000	6.567295	-1.8555063	7.2687964	
188504055918000	6.7564373	-1.8974048	7.350199	
188504065897000	7.052121	-1.8459295	7.442376	
188504075919000	7.2939353	-1.733402	7.4615297	
188504085884000	7.3849154	-1.6400281	7.2592196	
188504095997000	7.392098	-1.5993267	6.927623	
188504105961000	7.301118	-1.6448165	6.542156	
188504116039000	7.1383123	-1.7441759	6.232107	
188504125802000	7.0126166	-1.8435353	5.973533	
188504135749000	6.956353	-1.8962077	5.7748146	
188504145818000	6.979098	-1.9297266	5.4863133	
188504155948000	7.0832458	-1.9033904	5.306748	
188504165800000	7.1287355	-1.8890251	5.389348	
188504175916000	7.181408	-1.8327614	5.6922145	
188504185847000	7.2723875	-1.6891093	5.969942	
188504195997000	7.2424603	-1.6017209	6.2129536	
188504205991000	7.1873937	-1.5131354	6.542156	
188504215994000	7.123947	-1.5729905	7.03177	
188504226560000	6.9587474	-1.7705121	7.72968	
188504235782000	6.7205243	-1.9812019	8.286332	
188504246010000	6.4643445	-2.0602105	8.221688	
188504255643000	6.205771	-2.0817583	7.787141	
188504265961000	5.973533	-2.2002714	7.3178773	
188504275763000	5.8334723	-2.2002714	7.3178773	
188504285631000	5.791574	-2.2158337	7.529764	
188504295545000	5.90889	-2.1739352	7.9583263	
188504305654000	6.0525417	-2.0841527	7.997831	
188504315752000	6.2165446	-1.9057846	7.4974427	
188504325701000	6.331466	-1.7345991	6.861782	
188504335616000	6.4882865	-1.6292542	6.303933	
188504345739000	6.6630635	-1.5071499	5.8705826	
188504356074000	6.885724	-1.271321	5.583278	
188504365754000	7.098808	-1.0115502	5.3594203	
188504375724000	7.4232225	-0.6931214	4.950012	
188504385692000	7.8302364	-0.24779987	4.369418	
188504395737000	8.321048	0.24301147	3.8127663	
188504405781000	8.717288	0.6512229	3.371036	
188504415751000	9.015367	1.0067618	3.0561984	
188504425729000	9.118318	1.2485762	2.802413	
188504436021000	9.02614	1.2892777	2.5366566	
188504445732000	8.882488	1.2114661	2.4265234	
188504459081000	8.910022	1.2354081	2.4947581	
188504471934500	9.259575	1.1432313	2.72939	
188504485858000	9.369708	1.1073183	2.706645	
188504495745000	9.495404	1.0163386	2.707842	
188504505536000	9.613917	0.90141696	2.7724855	
188504515568000	9.742006	0.7649474	2.9604304	
188504525807000	9.812635	0.62488663	3.1603463	
188504535691000	9.907207	0.51595044	3.2704794	
188504545684000	10.03769	0.36990416	3.4584243	
188504555789000	10.139444	0.16879122	3.643975	
188504565746000	10.316615	0.008379706	3.6966474	
188504576310000	10.560823	-0.01436521	3.894169	
188504585688000	10.875661	0.007182605	4.1539397	
188504595775000	11.244369	0.108936176	4.164714	
188504605798000	11.482592	0.10055647	3.9013517	
188504616532000	11.517307	0.033518825	3.5901055	
188504625637000	11.440693	-0.08619126	3.2249897	
188504635668000	11.116279	-0.23343466	2.815581	
188504645757000	10.761936	-0.32561144	2.4384944	
188504655563000	10.418368	-0.46686932	2.183512	
188504666207000	10.147824	-0.58418524	1.8914193	
188504675642000	9.90601	-0.7110779	1.5251064	
188504685689000	9.757569	-0.79966336	1.412579	
188504695605000	9.779117	-0.676362	1.4987702	
188504705552000	9.813833	-0.39983168	1.5777789	
188504715642000	9.763555	-0.22625206	1.5191209	
188504725695000	9.583989	-0.25977087	1.2856863	
188504735679000	9.354146	-0.40462008	1.0175357	
188504745525000	9.222465	-0.51475334	0.80684596	
188504755491000	9.271546	-0.46926352	0.6691794	
188504765838000	9.309854	-0.427365	0.6536171	
188504775610000	9.369708	-0.45609543	0.70509243	
188504785655000	9.461885	-0.44771573	0.92775315	
188504796280000	9.544485	-0.45489833	1.423353	
188504805633000	9.5013895	-0.47764325	1.8902222	
188504815543000	9.459491	-0.4213795	2.4049757	
188504825681000	9.379285	-0.37828386	2.8514943	
188504835496000	9.241618	-0.39384618	2.943671	
188504845652000	9.022549	-0.39983168	2.634819	
188504855604000	8.823831	-0.4381389	2.2050598	
188504865593000	8.773552	-0.34356794	1.7764976	
188504875687000	8.768764	-0.17477672	1.5191209	
188504885746000	8.798691	0.050278235	1.436521	
188504895688000	8.895657	0.30765492	1.412579	
188504905761000	9.093178	0.5470751	1.3311762	
188504915702000	9.25359	0.78170687	1.2078748	
188504925832000	9.324219	0.94211835	1.1180922	
188504935755000	9.287108	0.9588778	1.2629414	
188504945928000	9.109938	0.736217	1.6687586	
188504955929000	8.995016	0.58298814	1.8148049	
188504965897000	8.938752	0.5530606	1.9416976	
188504975974000	8.968679	0.63087213	2.079364	
188504985897000	9.065644	0.7338228	2.1272483	
188504995986000	9.241618	0.8355764	2.1679497	
188505005891000	9.552865	0.94930094	2.19668	
188505015964000	9.844957	1.1025299	2.0709844	
188505026138000	10.146626	1.210269	1.9045875	
188505036583000	10.382456	1.2366052	1.8387469	
188505045788000	10.579977	1.2126632	1.8028339	
188505055725000	10.741586	1.1492168	1.6891093	
188505065770000	10.813412	0.973243	1.7070658	
188505075959000	10.868479	0.80684596	1.7178397	
188505085858000	10.939108	0.7254431	1.899799	
188505095702000	11.104307	0.7158663	2.0961237	
188505105868000	11.206061	0.7326257	2.135628	
188505115947000	11.200075	0.7697359	2.1547816	
188505125796000	11.087548	0.724246	2.2780828	
188505135761000	10.957064	0.6512229	2.4720132	
188505146878000	10.790668	0.46806642	2.6779146	
188505156008000	10.630256	0.25977087	2.883816	
188505165971000	10.420763	0.089782566	2.8814218	
188505175933000	10.21965	-0.033518825	2.7246015	
188505185898000	10.070012	-0.059855044	2.5091233	
188505195981000	9.913192	-0.09935937	2.3211784	
188505205935000	9.757569	-0.18076223	2.1332338	
188505215940000	9.653421	-0.35913026	2.043451	
188505225759000	9.633071	-0.59855044	2.2002714	
188505235930000	9.660604	-0.866701	2.3930047	
188505245940000	9.739613	-1.0618285	2.4995465	
188505256020000	9.828198	-1.1791444	2.7353754	
188505275978000	9.91798	-1.1168951	3.3554738	
188505285977000	9.920375	-1.1168951	3.3554738	
188505285977000	9.920375	-1.1168951	3.3554738	
188505295730000	9.865308	-1.1121067	3.4392707	
188505305584000	9.6845455	-1.2006922	3.3542767	
188505315562000	9.471462	-1.376666	3.1232362	
188505325631000	9.295488	-1.5442601	3.0310593	
188505335683000	9.251195	-1.7130513	2.9233203	
188505345667000	9.222465	-1.8555063	2.822764	
188505355709000	9.291897	-1.9285295	2.7365725	
188505365619000	9.548077	-1.9405005	2.7042508	
188505375631000	9.840169	-1.8794483	2.7269957	
188505385679000	10.047267	-1.7944542	2.815581	
188505395725000	10.084377	-1.7645266	3.1639376	
188505405777000	10.103531	-1.7932571	3.8510735	
188505415611000	10.0029745	-1.7836803	4.156334	
188505425601000	9.569624	-1.1815386	3.301604	
188505435702000	9.406818	-0.5805939	2.6264393	
188505445693000	9.197326	-0.031124622	1.8914193	
188505455989000	8.917204	0.3854665	1.2593501	
188505465758000	8.505402	0.7553706	0.7541735	
188505475793000	7.9248075	1.1623849	0.33159694	
188505485792000	7.297527	1.4628572	0.01316811	
188505496786000	6.7863646	1.567005	-0.20709845	
188505505570000	6.519411	1.4030021	-0.32441434	
188505515827000	6.3709707	1.043872	-0.23223756	
188505525636000	6.3446345	0.59855044	0.5554548	
188505535673000	6.862979	0.39624038	2.267309	
188505545650000	7.4471645	0.48482585	3.9564183	
188505555581000	7.8589673	0.2885013	4.894945	
188505565664000	8.323442	-0.22026655	4.97156	
188505575768000	8.980651	-0.63206923	4.56694	
188505585799000	9.800665	-0.5398925	4.31076	
188505595793000	10.588357	-0.10654198	4.449624	
188505605795000	11.282676	0.45370123	4.5741224	
188505615777000	11.675324	0.94451255	4.486734	
188505625775000	11.808203	1.1791444	4.344279	
188505635816000	11.584345	1.151611	4.6220064	
188505645895000	10.97502	0.7074866	5.153519	
188505655741000	10.116699	0.093373865	5.697003	
188505665741000	8.986636	-0.60214174	6.0956373	
188505675999000	7.8865004	-1.365892	5.864597	
188505685939000	7.0904284	-1.8243817	4.88058	
188505695935000	6.7025676	-1.7286136	3.739743	
188505705946000	6.7253127	-1.2844892	2.908955	
188505715633000	6.9826894	-0.6859388	2.3080103	
188505725738000	7.327454	-0.016759412	1.8052281	
188505735713000	7.7548194	0.7026982	1.6460136	
188505745779000	8.110358	1.2749124	1.7968484	
188505756921000	8.130709	1.5502456	1.863886	
188505765887000	8.112753	1.2018893	2.1272483	
188505775795000	8.080431	0.90859956	2.6515784	
188505785799000	7.6626425	0.6488287	2.9113493	
188505795798000	7.4327993	0.46926352	3.229778	
188505805893000	7.5309615	0.56982	3.6523547	
188505816070000	7.7931266	0.92895025	3.9217024	
188505825683000	8.032547	1.1791444	3.964798	
188505835772000	8.170214	1.353921	3.86903	
188505845806000	8.503007	1.5298948	3.643975	
188505855966000	9.065644	1.9381063	3.526659	
188505865856000	9.648633	2.542642	3.7612908	
188505875992000	9.884461	2.906561	4.1455603	
188505885882000	9.817424	2.8766334	4.748899	
188505895992000	9.337387	2.3355439	5.1810527	
188505905783000	9.059659	2.0003555	5.631162	
188505915966000	8.956709	1.9081788	5.849035	
188505926209000	8.973468	2.0566192	5.9639564	
188505936005000	8.9124155	2.2900538	5.8322754	
188505945931000	8.900445	2.469619	5.896919	
188505955981000	8.969876	2.3211784	5.997475	
188505965773000	9.136273	1.7381904	6.0848637	
188505975982000	9.2907	0.58538234	5.895722	
188505985766000	9.591172	-0.641646	5.577293	
188505995988000	10.324995	-1.2162545	5.9771247	
188506005986000	11.356895	-1.2378023	6.8809357	
188506015802000	12.496535	-1.103727	7.813477	
188506025679000	13.482946	-0.92176765	8.511387	
188506036019000	14.103045	-0.6907272	8.797494	
188506045935000	14.285005	-0.41060558	8.799889	
188506056002000	14.074315	-0.11133038	8.702923	
188506065910000	13.572729	0.16879122	8.553286	
188506075998000	12.678495	0.25617957	8.139089	
188506085795000	11.683704	0.25737667	7.603985	
188506096025000	10.564415	0.19991584	7.1514807	
188506105852000	9.458294	-0.090979666	6.6726403	
188506116134000	8.495825	-0.36750996	6.2608376	
188506125784000	7.5094137	-0.770933	5.819107	
188506136049000	6.657078	-1.3132197	5.473145	
188506145896000	5.9867015	-1.7561469	5.5988407	
188506155791000	5.4288526	-2.2888567	5.7005944	
188506165892000	4.855441	-2.846706	5.604826	
188506175837000	4.337096	-3.3039982	5.410896	
188506185890000	4.167108	-3.4500446	5.351041	
188506195794000	4.1659107	-3.4392707	5.2768207	
188506205800000	4.3275194	-3.3674448	5.0421886	
188506215781000	4.572925	-3.2429461	5.0062757	
188506225622000	5.0362034	-3.110068	5.237316	
188506235787000	5.638345	-2.9137435	5.5030727	
188506245900000	6.293159	-2.622848	5.9064956	
188506255755000	6.9587474	-2.3092074	6.4308257	
188506275997000	7.811083	-1.8543092	7.5213847	
188506286074000	8.012196	-1.7932571	7.5213847	
188506286074000	8.012196	-1.7932571	7.5213847	
188506295656000	8.090008	-1.9033904	7.5106106	
188506305527000	8.074445	-2.0242975	7.313089	
188506315954000	8.032547	-2.1140802	7.1706343	
188506325592000	8.084022	-2.0638018	7.028179	
188506335574000	8.276755	-1.8483237	6.909666	
188506345558000	8.564059	-1.5143325	6.884527	
188506355669000	8.809465	-1.2282255	6.847417	
188506365758000	8.841787	-1.0761937	6.658275	
188506375583000	8.555679	-1.1001357	6.6486983	
188506385637000	8.512584	-1.0582372	6.7360864	
188506396030000	8.471883	-0.92416185	6.731298	
188506405765000	8.39048	-0.90979666	6.6067996	
188506415946000	8.346188	-0.91578215	6.5565214	
188506425932000	8.317456	-0.94211835	6.5589156	
188506435653000	8.412027	-0.8355764	6.469133	
188506445801000	8.4587145	-0.7326257	6.2464724	
188506455764000	8.4647	-0.79128367	6.0345855	
188506466308000	8.541314	-0.8798691	6.0980315	
188506476841000	8.726865	-0.8858546	6.254852	
188506486025000	8.820239	-0.89303726	6.1243677	
188506495659000	8.866926	-0.9876082	5.8813562	
188506505637000	8.820239	-1.1109096	5.828684	
188506515615000	8.850166	-1.2425907	5.7736173	
188506525668000	8.911219	-1.3156139	5.7867856	
188506535565000	8.991425	-1.3323733	5.8801594	
188506545700000	9.094376	-1.3515269	5.9867015	
188506555774000	9.271546	-1.3623008	6.090849	
188506565697000	9.363723	-1.4508862	6.1327477	
188506575798000	9.502586	-1.6484078	6.0022635	
188506585672000	9.868899	-1.7705121	5.9364233	
188506596213000	10.45907	-1.8267759	5.9878983	
188506605787000	11.098322	-1.7705121	6.1650696	
188506615929000	11.628637	-1.5646108	6.506243	
188506625795000	11.930307	-1.2773066	7.0964136	
188506635746000	11.869255	-1.1001357	7.5644803	
188506646101000	11.344925	-1.2868834	7.6482773	
188506655608000	10.382456	-1.8770541	7.4375877	
188506665774000	9.266758	-2.6970682	6.992266	
188506675645000	8.395268	-3.3961751	6.43322	
188506685632000	7.7320743	-3.9312792	5.852626	
188506695654000	7.323863	-4.31914	5.3366756	
188506705685000	7.2699933	-4.2281604	5.1583076	
188506715630000	7.4028716	-3.8391025	4.9943047	
188506725639000	7.338228	-3.50152	4.6244006	
188506735672000	7.041347	-3.3375173	3.989937	
188506745634000	6.5744777	-3.2070332	3.3518825	
188506755569000	6.1411276	-3.015497	2.6886885	
188506765585000	5.813122	-2.7593174	2.1428106	
188506775643000	5.683835	-2.468422	1.7992426	
188506786364000	5.673061	-2.1894975	1.471237	
188506795560000	5.910087	-1.8171991	1.5765818	
188506805564000	6.157887	-1.459266	2.067393	
188506815523000	6.51582	-1.2533646	2.4037786	
188506825581000	6.9144545	-1.1001357	2.813187	
188506835789000	7.941567	-0.91578215	4.0581717	
188506845525000	8.467094	-0.92655605	4.6722846	
188506855554000	8.816648	-0.842759	5.305551	
188506865547000	9.096769	-0.6691794	5.7784057	
188506875794000	9.240421	-0.45848963	6.2009826	
188506885569000	9.296685	-0.14963761	7.0006456	
188506905552000	9.054871	-0.076614454	7.228095	
188506905552000	9.054871	-0.076614454	7.228095	
188506915521000	8.722076	-0.11971009	7.121553	
188506925715000	8.389283	-0.2801216	6.8007298	
188506935935000	8.198944	-0.35194764	6.6486983	
188506945565000	8.1163435	-0.4441244	6.564901	
188506955533000	8.110358	-0.4309563	6.623559	
188506965551000	8.124723	-0.4237737	6.6534867	
188506975529000	8.104373	-0.39624038	6.6534867	
188506985546000	8.003817	-0.439336	6.5816603	
188506995607000	7.904457	-0.47405192	6.4308257	
188507005689000	7.7847466	-0.4249708	6.2991447	
188507015607000	7.6949644	-0.40102878	5.9639564	
188507025580000	7.5572977	-0.36990416	5.6299653	
188507035493000	7.428011	-0.34715924	5.3378725	
188507045502000	7.3298483	-0.21906945	5.2037973	
188507055579000	7.265205	-0.073023155	5.2480903	
188507065627000	7.20535	-0.029927522	5.424064	
188507075634000	7.249643	-0.011971008	5.729325	
188507085715000	7.2544312	0.005985504	5.896919	
188507095610000	7.1993647	-0.01316811	5.955577	
188507105776000	7.0784574	-0.08619126	6.1423244	
188507115754000	6.9120603	-0.21906945	6.4032927	
188507125602000	6.8522053	-0.33159694	6.691794	
188507135663000	6.8127007	-0.39983168	6.9144545	
188507145914000	6.7971387	-0.33758244	7.03177	
188507155639000	6.803124	-0.19871874	7.1526775	
188507165945000	6.811504	-0.09696517	7.243657	
188507175617000	6.8665705	0.12808979	7.3346367	
188507185590000	6.767211	0.31124622	7.3047094	
188507195550000	6.578069	0.35673606	7.1371155	
188507206606000	6.3338604	0.4141969	7.091625	
188507215601000	6.157887	0.5494693	6.977901	
188507225526000	6.0836663	0.7015011	6.853402	
188507235677000	6.0238113	0.89184016	6.9647326	
188507245723000	5.9543796	1.0702082	7.28795	
188507255639000	5.791574	1.2174516	7.285556	
188507265829000	5.427655	1.1611878	7.3657618	
188507275577000	5.08289	1.1611878	7.3657618	
188507285603000	5.0242324	1.1336545	7.750031	
188507295651000	5.1690817	1.1815386	8.475474	
188507305642000	5.279215	1.2210429	9.074024	
188507315564000	5.2265425	1.1887212	10.356119	
188507325567000	5.046977	1.1252748	10.9834	
188507335566000	4.6926355	1.0354922	11.133038	
188507345607000	4.3143516	1.0630256	10.961852	
188507355619000	3.9240966	1.1013328	10.420763	
188507365675000	3.5661635	1.1085154	9.572019	
188507375614000	3.2273839	1.1827357	8.683769	
188507385953000	3.052607	1.3000516	8.128315	
188507395769000	3.0059202	1.4748282	8.1319065	
188507405804000	3.1543608	1.555034	8.540117	
188507415632000	3.3506854	1.7034745	9.099164	
188507425820000	3.3925838	1.7753005	9.467871	
188507436085000	3.3614593	1.7537527	9.464279	
188507445813000	3.2309752	1.7944542	9.423578	
188507455656000	2.9903579	1.7262194	9.449914	
188507465782000	2.7006595	1.602918	9.671378	
188507475994000	2.48159	1.5370775	9.974244	
188507485939000	2.2421699	1.4772224	10.127473	
188507495602000	2.0087352	1.4305356	9.904813	
188507505709000	1.733402	1.3730747	9.572019	
188507515715000	1.4628572	1.316811	9.234436	
188507525680000	1.2545617	1.3251907	8.857349	
188507535724000	1.0618285	1.2988545	8.550891	
188507546108000	0.9935937	1.2892777	8.550891	
188507555583000	1.0977415	1.3132197	8.6334915	
188507565602000	1.2473791	1.4137762	8.834604	
188507575609000	1.3742718	1.5777789	9.065644	
188507585661000	1.4030021	1.6364368	9.039309	
188507595993000	1.3215994	1.6124948	9.053674	
188507605787000	1.1480197	1.6101006	9.269152	
188507615917000	1.0726024	1.5705963	9.476251	
188507625679000	1.0019734	1.5526398	9.593566	
188507636346000	0.94810385	1.6053122	9.609129	
188507645950000	0.89543146	1.6244658	9.357738	
188507655571000	0.78290397	1.6531962	9.02614	
188507665579000	0.7673417	1.7549498	8.811859	
188507675769000	0.94092125	1.9081788	8.759187	
188507685752000	1.0522517	2.0338743	9.070433	
188507695642000	1.1683705	2.1440077	9.390059	
188507705768000	1.0749966	2.1200657	9.281123	
188507715712000	0.91338795	2.0853498	8.876503	
188507725718000	0.7613561	2.0757728	8.524555	
188507736246000	0.56982	2.055422	8.335413	
188507745837000	0.5303157	2.0362685	8.546103	
188507755780000	0.5315128	1.9692309	8.872911	
188507765944000	0.61530983	1.9764135	9.105149	
188507775958000	0.6440403	2.0326772	9.326612	
188507785871000	0.5291186	1.9033904	9.249998	
188507795950000	0.58538234	1.9189527	9.339781	
188507805896000	0.78529817	2.078167	9.508572	
188507816083000	0.80325466	2.1535845	9.362526	
188507825898000	0.7146692	2.1523874	8.956709	
188507835989000	0.545878	2.148796	8.6299	
188507846326000	0.44891283	2.1296425	8.379706	
188507856002000	0.5530606	2.1918917	8.37013	
188507865783000	0.8750807	2.3451207	8.534132	
188507876011000	0.9983821	2.4109612	8.7532015	
188507885889000	0.9564836	2.3546975	8.742428	
188507895925000	0.81761986	2.3116016	8.678981	
188507905779000	0.6631939	2.2266076	8.60117	
188507915969000	0.62847793	2.1918917	8.549694	
188507925898000	0.724246	2.1799207	8.669404	
188507935975000	0.9840169	2.2385786	8.916007	
188507945881000	1.2186487	2.2996306	9.279925	
188507955992000	1.3910311	2.2996306	9.478644	
188507965960000	1.3383588	2.1787236	9.653421	
188507975989000	1.2617443	1.9788077	9.958682	
188507985955000	1.2952632	1.8722657	10.210073	
188507995986000	1.3299791	1.7788919	10.261548	
188508005933000	1.3467385	1.7178397	10.1861315	
188508015984000	1.2306197	1.6196774	9.774328	
188508025930000	1.1240777	1.6041151	9.143456	
188508035838000	1.067814	1.5873557	8.595184	
188508045910000	1.0702082	1.5251064	8.201338	
188508055980000	1.1432313	1.5107412	8.118738	
188508065864000	1.2521675	1.5095441	8.145074	
188508075796000	1.2485762	1.4221559	8.075643	
188508085993000	1.2066777	1.2868834	8.082825	
188508095993000	1.3443443	1.2473791	8.141483	
188508105903000	1.578976	1.3239936	8.219295	
188508116073000	1.7070658	1.3850456	8.243237	
188508125922000	1.7070658	1.4556746	8.12592	
188508135798000	1.4987702	1.436521	7.795521	
188508145868000	1.2090719	1.4401124	7.2448545	
188508155827000	0.9540894	1.5382746	6.7887588	
188508165785000	0.8451532	1.6555905	6.38773	
188508175776000	0.8810662	1.8387469	6.1530986	
188508185890000	0.93373865	2.0326772	6.2021794	
188508195982000	1.0307038	2.207454	6.208165	
188508205955000	1.1085154	2.3259668	6.113594	
188508215993000	1.1192893	2.4432828	6.0238113	
188508225990000	1.009156	2.4516625	6.14831	
188508235984000	0.93613285	2.3678656	6.393716	
188508245946000	1.0055647	2.280477	6.95755	
188508255803000	0.92057055	2.3211784	7.047333	
188508275950000	0.88944596	2.4504654	6.519411	
188508285903000	0.7745243	2.4420857	6.1890116	
188508285903000	0.7745243	2.4420857	6.1890116	
188508295993000	0.37588966	2.2744915	6.0285997	
188508305855000	0.09696517	1.9249382	5.8203044	
188508315817000	-0.25139117	1.567005	5.8825536	
188508325755000	-0.47644615	1.1623849	6.019023	
188508335636000	-0.47165772	0.94211835	6.066907	
188508345711000	-0.40940848	0.8750807	5.9424086	
188508355731000	-0.25857377	0.93972415	5.5737014	
188508365825000	-0.17597382	1.0079589	5.044583	
188508375943000	0.06823475	1.1324574	4.721366	
188508385870000	0.59017074	0.78050977	6.3985043	
188508395782000	0.9660604	-0.044292733	8.591593	
188508405933000	1.412579	-0.7422025	9.087193	
188508415982000	1.9381063	-1.2138603	8.269572	
188508425885000	2.7641058	-1.5610195	7.2867527	
188508436532000	3.7672763	-2.0518308	6.5720835	
188508445954000	4.6459484	-2.6060886	5.8442464	
188508455817000	5.6215854	-3.7325604	5.9064956	
188508465635000	6.587646	-5.093664	7.2245035	
188508476360000	7.501034	-6.281188	10.645818	
188508485662000	8.725668	-6.9383965	15.446193	
188508495578000	9.922769	-6.7229185	19.303251	
188508505555000	10.366894	-6.381745	20.683508	
188508515628000	10.151415	-5.9878983	19.868282	
188508525729000	9.540894	-5.471948	18.167202	
188508535499000	9.180567	-5.363012	16.608578	
188508545659000	8.534132	-5.3618145	14.713567	
188508555750000	7.988254	-5.1104236	12.196063	
188508565710000	7.65546	-4.6698904	9.998186	
188508575756000	7.3992805	-4.047398	8.37013	
188508585750000	7.1861963	-3.3913867	7.428011	
188508596231000	7.049727	-2.7629087	6.9012866	
188508605793000	6.754043	-2.1703439	6.8306575	
188508616027000	6.2823853	-1.7178397	6.9719152	
188508625885000	5.717354	-1.423353	7.037756	
188508635784000	5.088876	-1.2330139	6.897695	
188508645832000	4.5046906	-1.1252748	6.7013707	
188508655766000	3.9935284	-1.0247183	6.5481415	
188508665607000	3.5326445	-0.89423436	6.4416	
188508676024000	3.1495724	-0.78410107	6.1662664	
188508686009000	2.8119898	-0.7230489	5.791574	
188508695752000	2.4911668	-0.6955156	5.5222263	
188508706212000	2.1894975	-0.724246	5.397728	
188508715631000	1.9656396	-0.79846627	5.3486466	
188508725724000	1.7034745	-0.91697925	5.554548	
188508735713000	1.6543933	-1.043872	5.461174	
188508745877000	1.6879122	-1.1875241	5.409699	
188508755984000	1.9740193	-1.2797008	5.2720323	
188508765925000	2.3104045	-1.3060371	5.225345	
188508775965000	2.7569232	-1.3192052	5.121197	
188508785827000	3.1148565	-1.3371617	5.2983685	
188508796438000	3.3482912	-1.4197617	5.8825536	
188508805906000	3.4991257	-1.471237	6.6522894	
188508815966000	3.558981	-1.3922282	7.410054	
188508825861000	3.5984852	-1.3132197	7.8972745	
188508835922000	3.394978	-1.472434	8.194156	
188508845940000	2.9149406	-1.9752164	8.109161	
188508855954000	2.516306	-2.4756045	7.323863	
188508865932000	2.2649148	-2.944868	6.063316	
188508875953000	2.372654	-3.3638535	4.847061	
188508886642000	2.9628246	-3.9432502	3.8295257	
188508896163000	4.158728	-4.9895163	3.2321723	
188508905886000	5.8143187	-6.495469	2.6635494	
188508915962000	7.9188223	-8.418014	2.6527755	
188508925947000	10.151415	-9.952697	4.4759603	
188508935963000	12.352883	-10.381259	8.2037325	
188508945937000	14.107834	-10.327389	13.261483	
188508955977000	15.213955	-10.08318	18.956093	
188508965931000	15.374366	-10.263943	23.066936	
188508975931000	14.372393	-10.535685	24.149115	
188508985932000	12.599486	-10.650606	23.757664	
188508995805000	10.606314	-10.754754	22.365435	
188509005894000	8.596381	-10.360908	19.637243	
188509015997000	6.9120603	-9.478644	16.516401	
188509025721000	5.7185507	-8.413225	13.648147	
188509036484000	4.8937483	-7.359776	10.952275	
188509045704000	4.3718123	-6.3769565	8.53892	
188509055734000	4.0557775	-5.315128	6.2871737	
188509065939000	3.8762126	-4.095282	4.626795	
188509075840000	3.9935284	-2.9532478	3.2441432	
188509085858000	4.2197804	-1.8579005	2.1212628	
188509095939000	4.5860934	-1.0043676	1.4437037	
188509106024000	4.747702	-0.39384618	1.3036429	
188509115725000	4.6471453	0.035913024	1.4137762	
188509125825000	4.225766	0.18555063	1.6376339	
188509135956000	3.50152	0.11372458	1.9452889	
188509145755000	2.621651	-0.17836803	1.9800048	
188509155906000	1.7788919	-0.5243302	1.8076223	
188509165594000	1.1049241	-0.724246	1.340753	
188509175629000	0.7565677	-0.7649474	0.33279404	
188509185549000	0.5434838	-0.7733272	-0.770933	
188509195584000	0.36391866	-0.49200845	-1.6340426	
188509205719000	0.21667525	1.2952632	-2.705448	
188509215680000	0.20949265	2.0614076	-3.834314	
188509225616000	-0.06344634	1.7585411	-5.2421045	
188509235581000	-0.6380547	-0.29807812	-6.2380924	
188509245521000	-0.48482585	-3.2980127	-7.8745294	
188509255596000	0.94690675	-5.753267	-8.6095495	
188509265651000	4.2185836	-7.309498	-5.8598084	
188509275652000	8.5473	-9.051279	0.19033903	
188509285543000	12.810176	-10.512939	9.576807	
188509295546000	16.466122	-10.277111	19.737799	
188509305530000	18.54788	-8.593987	27.184963	
188509315521000	19.059042	-6.921637	30.536846	
188509325611000	17.960104	-6.003461	30.928297	
188509335498000	14.58428	-5.566519	28.033709	
188509345551000	10.96664	-5.6790466	24.02342	
188509355504000	8.128315	-5.507861	21.320366	
188509365526000	6.0106435	-4.710592	18.302475	
188509375579000	4.44723	-3.41892	15.136143	
188509385645000	3.3686419	-2.160767	12.619837	
188509395632000	2.6982653	-1.1803415	10.3214035	
188509405616000	2.2996306	-0.48362875	8.057686	
188509415645000	2.15957	0.031124622	6.1100025	
188509425631000	2.3714569	0.50158525	4.1838675	
188509435642000	2.5258827	1.1168951	2.6384103	
188509445549000	2.7162218	1.6639702	1.5478514	
188509455640000	2.847903	1.9967642	0.7625532	
188509465981000	2.9053638	2.2038627	0.79487497	
188509475605000	3.0657754	2.3175871	1.3670892	
188509485729000	3.2632968	2.3702598	2.160767	
188509495540000	3.38181	2.384625	3.1280246	
188509505553000	3.4344823	2.4756045	3.9971197	
188509515630000	3.4620156	2.3810337	4.7022123	
188509525557000	3.3662477	2.0266917	5.5126495	
188509535661000	3.1268275	1.6089035	6.1219735	
188509545736000	2.8682537	1.2533646	6.2620344	
188509555620000	2.5498247	1.0342951	6.9264255	
188509565846000	2.3080103	0.08259996	7.8206596	
188509575644000	2.717419	-2.8048072	6.081272	
188509585846000	4.1419687	-6.471527	5.5030727	
188509595822000	7.314286	-8.78672	10.860099	
188509605736000	12.0332575	-10.160992	17.688362	
188509615781000	16.281769	-11.190498	21.869835	
188509625846000	19.430143	-10.510546	24.268826	
188509636349000	21.150377	-8.408437	26.00103	
188509645921000	21.301212	-6.787562	26.454731	
188509655778000	19.528307	-6.4547677	25.46473	
188509665847000	16.215929	-7.392098	22.650345	
188509676016000	9.927557	-8.998607	16.153679	
188509685857000	7.5668745	-8.902839	13.120225	
188509695939000	6.1938	-8.183381	10.819398	
188509705935000	5.681441	-7.047333	8.781932	
188509715937000	5.6096144	-5.638345	6.980295	
188509725742000	5.542577	-4.459201	5.4539914	
188509735831000	5.377377	-3.691859	4.146757	
188509745858000	5.0541596	-3.2632968	3.0621839	
188509756096000	4.721366	-2.8862102	2.030283	
188509765873000	4.3514614	-2.433706	1.2018893	
188509775832000	3.9073372	-2.0446482	0.40940848	
188509785878000	3.442862	-1.7202339	-0.2681506	
188509795945000	3.039439	-1.4449008	-0.6452374	
188509805940000	2.8083985	-1.3144168	-0.91338795	
188509815959000	2.6120741	-1.2509704	-1.1168951	
188509825756000	2.4827871	-1.1959038	-1.42455	
188509835935000	2.5091233	-1.0869676	-1.7705121	
188509846309000	2.754529	-0.78769237	-1.8076223	
188509855665000	3.1723173	-0.4177882	-1.8579005	
188509865746000	3.6750996	-0.074220255	-2.0649989	
188509875593000	4.268862	0.20709845	-2.0530279	
188509885746000	4.865018	0.34596214	-1.6244658	
188509895550000	5.589264	0.32441434	-0.7565677	
188509905531000	6.105214	0.20111294	0.36391866	
188509915808000	6.408081	-0.047884032	1.2198458	
188509925538000	6.5696893	-0.35434186	2.0829554	
188509936080000	6.609194	-0.7218518	3.0813377	
188509945495000	6.555324	-0.91219085	4.4077253	
188509955513000	6.3661823	-0.9636662	5.771223	
188509965533000	6.218939	-1.2210429	6.528988	
188509975634000	6.3589997	-2.730587	5.9124813	
188509985539000	6.658275	-4.8243165	5.0122614	
188509995575000	7.469909	-6.256049	6.1507044	
188510005657000	9.249998	-6.659472	9.378088	
188510015548000	11.018116	-6.625953	12.276269	
188510025712000	12.304999	-6.3769565	14.43105	
188510035547000	13.080721	-5.9543796	16.097416	
188510045668000	13.453019	-5.3761797	17.173609	
188510055724000	13.231556	-4.808754	17.488447	
188510065685000	12.510901	-4.06296	17.198748	
188510075564000	11.47062	-3.4213142	16.695965	
188510085682000	10.0508585	-3.0992942	16.021997	
188510095680000	8.26239	-3.1639376	14.638149	
188510105682000	6.7648168	-2.9281087	12.846089	
188510115700000	5.410896	-2.7976246	11.116279	
188510125694000	4.361038	-2.755726	9.591172	
188510135660000	3.6152446	-2.529474	8.218098	
188510145793000	3.071761	-1.7681179	6.113594	
188510155688000	3.095703	-1.2593501	4.961983	
188510165794000	3.1830912	-0.82360536	4.1395745	
188510175656000	3.3746274	-0.45010993	3.6822822	
188510185893000	3.5805287	-0.15203181	3.4967315	
188510195952000	3.7708676	0.08259996	3.4320881	
188510205781000	4.0222588	0.36391866	3.6140475	
188510215654000	4.2521024	0.5770026	3.7349546	
188510225742000	4.38498	0.58777654	3.8989575	
188510235612000	4.5178585	0.45489833	4.1096473	
188510245645000	4.5633483	0.31244332	4.2042184	
188510255697000	4.7261543	0.20350714	4.3418846	
188510265655000	4.9536033	0.011971008	4.4807487	
188510275565000	5.201403	-0.21428105	4.631583	
188510285539000	5.577293	-0.4417302	4.900931	
188510295552000	6.0118403	-0.6775591	5.3223104	
188510305552000	6.4104753	-0.89902276	5.756858	
188510315515000	6.787562	-1.2413936	6.1243677	
188510325558000	7.1311297	-1.5658079	6.7887588	
188510335488000	7.4495587	-1.6124948	7.831434	
188510345553000	7.6841903	-1.3850456	8.816648	
188510355599000	7.6949644	-0.9708488	9.53012	
188510365651000	7.4627266	-0.61291564	9.931149	
188510375611000	6.8079123	-0.51116204	9.811439	
188510385644000	5.9759274	-0.6871359	8.983045	
188510395529000	5.121197	-0.9876082	8.021772	
188510405644000	4.5262384	-1.3000516	7.123947	
188510415627000	4.1144357	-1.6496049	6.4511766	
188510425629000	4.0521865	-1.970428	6.187814	
188510435640000	4.3179426	-2.0745757	6.361394	
188510445641000	4.9404354	-1.9788077	6.7959414	
188510455626000	5.663484	-1.7956513	7.231686	
188510465632000	6.3422403	-1.7824832	7.404069	
188510475558000	6.9647326	-1.9560628	7.548918	
188510485608000	7.463924	-2.19668	7.699753	
188510495671000	7.9906483	-2.3511062	7.908048	
188510505661000	8.4826565	-2.3511062	8.330625	
188510515590000	8.892065	-2.2146366	8.689755	
188510525535000	9.175778	-1.9428947	8.995016	
188510535631000	9.238028	-1.685518	9.333796	
188510545671000	8.89805	-1.6089035	9.3421755	
188510556203000	8.214506	-1.70946	8.99741	
188510565645000	7.410054	-1.9321208	8.717288	
188510575645000	6.658275	-2.0518308	8.564059	
188510585739000	5.993884	-2.0853498	8.469488	
188510595559000	5.392939	-2.1260512	8.307879	
188510605913000	4.914099	-2.0015526	7.433996	
188510625674000	3.976769	-2.0769699	6.8222775	
188510625674000	3.976769	-2.0769699	6.8222775	
188510635726000	3.9013517	-2.4839842	6.1243677	
188510645802000	3.9516299	-2.9484594	5.804742	
188510656691000	4.333505	-3.4883518	5.6670756	
188510665921000	5.081693	-4.2197804	5.591658	
188510675956000	6.090849	-4.9069166	6.218939	
188510685568000	7.2209125	-5.3235073	7.3322425	
188510696034000	8.611943	-5.3259015	9.226056	
188510705871000	9.903615	-5.141548	11.146206	
188510715928000	11.009736	-4.699818	12.270284	
188510725709000	11.316195	-4.4424415	12.998121	
188510735729000	11.0061455	-4.3382936	13.111846	
188510745973000	9.825804	-4.495114	12.503718	
188510755981000	8.449138	-4.5801077	11.295844	
188510765968000	7.3537903	-4.4927197	10.281899	
188510775788000	6.271611	-4.5645456	9.093178	
188510786633000	5.2899885	-4.6782703	7.6147585	
188510795815000	4.4699745	-4.7764325	6.4763155	
188510805819000	4.0581717	-4.853047	5.6563015	
188510816223000	3.8606503	-4.8027687	4.841076	
188510825958000	3.8618474	-4.7022123	4.1683054	
188510835817000	4.0521865	-4.525041	3.8187518	
188510845811000	4.2664676	-4.332308	3.5972881	
188510855937000	4.5046906	-4.140772	3.2872388	
188510865854000	4.7022123	-3.8726213	3.2752678	
188510876007000	4.8722005	-3.715801	3.4703953	
188510885819000	5.0397944	-3.678691	3.7229836	
188510895841000	5.033809	-3.7062242	3.83192	
188510905789000	5.0661306	-3.74094	4.035427	
188510915839000	4.995502	-3.7816415	4.5046906	
188510925919000	4.8961425	-3.867833	4.7201686	
188510935694000	4.673482	-3.952827	4.879383	
188510945886000	4.4244847	-4.0641575	5.2157683	
188510955802000	4.256891	-4.1299977	5.497087	
188510965834000	4.120421	-4.132392	5.6946087	
188510975799000	4.0078936	-4.1635165	5.8801594	
188510985864000	3.8414967	-4.2760444	6.242881	
188510995961000	3.6858735	-4.390966	6.7085533	
188511005806000	3.6008794	-4.4448357	7.0904284	
188511015838000	3.5661635	-4.461595	7.517793	
188511025872000	3.6655228	-4.4364557	7.893683	
188511036001000	3.7792473	-4.368221	8.328231	
188511045738000	3.9671922	-4.2640734	8.911219	
188511055999000	4.1479545	-4.104859	9.508572	
188511065940000	4.361038	-3.976769	9.91439	
188511076048000	4.5980644	-3.8115692	10.220847	
188511085948000	4.8243165	-3.608062	10.497377	
188511096040000	4.829105	-3.3435028	10.387244	
188511105917000	4.847061	-3.1830912	10.226832	
188511115769000	4.921282	-2.966416	10.019734	
188511125893000	4.993108	-2.834735	9.77792	
188511136063000	4.969166	-2.755726	9.411607	
188511145792000	4.9428296	-2.6479871	9.088389	
188511155746000	4.938041	-2.6048915	8.9842415	
188511165809000	4.960786	-2.5689783	8.866926	
188511175837000	5.019444	-2.4959552	8.7951	
188511185924000	5.177461	-2.3810337	8.801085	
188511195706000	5.3079453	-2.2972364	8.768764	
188511205823000	5.415684	-2.2661119	8.730456	
188511215827000	5.5006785	-2.2002714	8.607155	
188511225856000	5.555745	-2.1440077	8.438364	
188511235818000	5.554548	-2.1332338	8.274361	
188511245942000	5.518635	-2.1392193	8.158242	
188511255827000	5.509058	-2.148796	7.9990277	
188511275832000	5.708974	-2.0925324	7.728483	
188511285735000	5.825093	-2.030283	7.608773	
188511285735000	5.825093	-2.030283	7.608773	
188511295558000	5.9902925	-2.0123265	7.550115	
188511305541000	6.0645127	-2.0326772	7.6003933	
188511315504000	6.1327477	-2.0733786	7.615956	
188511325608000	6.114791	-2.124854	7.679402	
188511335690000	5.995081	-2.2182279	7.753622	
188511345665000	5.767632	-2.385822	7.666234	
188511356361000	5.5102553	-2.5582044	7.463924	
188511365683000	5.3139305	-2.6982653	7.285556	
188511375760000	5.233725	-2.7940333	7.1526775	
188511385557000	5.258864	-2.8682537	7.04015	
188511395676000	5.482722	-2.822764	7.1646485	
188511406188000	5.805939	-2.741361	7.358579	
188511415698000	6.0944405	-2.7090392	7.445967	
188511425581000	6.289568	-2.7102363	7.5704656	
188511435555000	6.4499793	-2.693477	7.7129207	
188511445644000	6.528988	-2.7006595	7.8709383	
188511455590000	6.5816603	-2.6635494	8.063671	
188511468692000	6.622362	-2.5905263	8.175002	
188511485561000	6.5816603	-2.3439236	8.282741	
188511495556000	6.4044895	-2.2541409	8.137892	
188511505547000	6.1519012	-2.2014685	7.7332716	
188511515522000	5.8586116	-2.1320367	7.3083005	
188511525532000	5.6419363	-2.007538	6.9479733	
188511535504000	5.5018754	-1.8327614	6.5744777	
188511545920000	5.403713	-1.6436194	6.302736	
188511555672000	5.357026	-1.6077064	6.1040173	
188511565547000	5.3402667	-1.5610195	5.8478374	
188511575594000	5.315128	-1.3850456	5.8262897	
188511585642000	5.258864	-1.2868834	5.9160724	
188511595645000	5.2085857	-1.2569559	6.135142	
188511605562000	5.12838	-1.2557588	6.542156	
188511615515000	5.1116204	-1.2808979	6.7719994	
188511625484000	5.104438	-1.2677298	7.026982	
188511635632000	5.0745106	-1.2737153	7.383718	
188511645461000	5.085284	-1.3263878	7.7464395	
188511655551000	5.0062757	-1.2497733	8.14268	
188511665540000	4.9081135	-1.1324574	8.437167	
188511675499000	4.734534	-1.0139444	8.546103	
188511685610000	4.507085	-0.89902276	8.297106	
188511695573000	4.284424	-0.80325466	7.7943234	
188511705867000	4.0701427	-0.7661445	7.2604165	
188511715682000	3.9600096	-0.7194576	6.8450227	
188511725496000	3.9935284	-0.6775591	6.659472	
188511735584000	4.188656	-0.59136784	6.6415157	
188511745625000	4.4795513	-0.49081135	6.859388	
188511755570000	4.8614264	-0.39145198	7.023391	
188511765532000	5.1846437	-0.29328972	7.2843585	
188511776040000	5.451597	-0.2837129	7.643489	
188511785620000	5.590461	-0.32321724	7.964312	
188511795625000	5.6431336	-0.37948096	8.380903	
188511805722000	5.649119	-0.4189853	8.736442	
188511815676000	5.590461	-0.39025488	9.166202	
188511825823000	5.471948	-0.40821138	9.566033	
188511835940000	5.3007627	-0.39743748	9.8677025	
188511845573000	5.145139	-0.36272156	10.132261	
188511855625000	5.0026846	-0.37708676	10.356119	
188511865609000	4.820725	-0.4261679	10.392033	
188511875650000	4.620809	-0.46806642	10.286688	
188511885914000	4.5238442	-0.51954174	10.195708	
188511895663000	4.4939165	-0.56982	9.981427	
188511905782000	4.548983	-0.5805939	9.799467	
188511915721000	4.6710877	-0.5351041	9.8042555	
188511925768000	4.8733974	-0.47524905	9.866506	
188511936235000	5.044583	-0.49200845	9.850943	
188511945584000	5.106832	-0.5422867	9.720459	
188511956675000	5.118803	-0.6500258	9.478644	
188511965619000	5.0374002	-0.7445967	9.343372	
188511975717000	5.0505686	-0.80564886	9.105149	
188511985692000	5.0374002	-0.8283938	8.827422	
188511995592000	5.0840874	-0.82001406	8.584411	
188512005815000	5.1666875	-0.81522566	8.333019	
188512015722000	5.243302	-0.79966336	8.175002	
188512025659000	5.2744265	-0.80804306	8.136695	
188512035926000	5.1475334	-0.82480246	8.010999	
188512045698000	4.996699	-0.961272	8.039729	
188512055676000	4.847061	-1.0594343	8.119935	
188512065555000	4.7261543	-1.1085154	8.039729	
188512075608000	4.6519337	-1.1168951	7.928399	
188512085877000	4.675876	-1.1240777	7.8158712	
188512095600000	4.7141833	-1.1061212	7.7189064	
188512106002000	4.757279	-1.1659763	7.607576	
188512115815000	4.748899	-1.2030864	7.493851	
188512125732000	4.7656584	-1.2413936	7.40766	
188512136716000	4.747702	-1.2964603	7.419631	
188512145636000	4.709395	-1.340753	7.4950485	
188512156031000	4.68665	-1.3682863	7.529764	
188512165686000	4.6471453	-1.3515269	7.526173	
188512175631000	4.626795	-1.376666	7.418434	
188512185752000	4.571728	-1.4030021	7.241263	
188512195745000	4.5896845	-1.4185646	7.053318	
188512205792000	4.5860934	-1.4197617	7.0245876	
188512215710000	4.620809	-1.4532804	7.0006456	
188512225654000	4.643554	-1.4867992	6.96593	
188512235737000	4.687847	-1.5011644	7.015011	
188512246050000	4.771644	-1.5634137	7.111976	
188512255612000	4.7776294	-1.6160861	7.2185183	
188512265716000	4.8243165	-1.6795325	7.321469	
188512275676000	4.927267	-1.7274165	7.4567413	
188512286105000	5.0601454	-1.7753005	7.5788455	
188512295559000	5.213374	-1.7717092	7.7919292	
188512305608000	5.409699	-1.7345991	7.965509	
188512315625000	5.5162406	-1.6759412	7.961918	
188512325595000	5.6227827	-1.6160861	7.8469963	
188512336690000	5.6551046	-1.5622166	7.837419	
188512345543000	5.7724204	-1.4676456	7.801506	
188512355600000	5.8262897	-1.3850456	7.6135616	
188512365555000	5.8801594	-1.2976574	7.3442135	
188512375595000	5.9244523	-1.1959038	7.1634517	
188512385569000	5.9483943	-1.1456255	7.061698	
188512395540000	5.979519	-1.1168951	7.076063	
188512405678000	5.985504	-1.0893618	7.1861963	
188512415590000	5.9890957	-1.0785879	7.359776	
188512426563000	5.9986725	-1.1731589	7.559692	
188512437676000	5.9926867	-1.328782	7.728483	
188512450883000	6.301539	-1.6101006	8.01459	
188512465860000	6.5720835	-1.7118542	8.401254	
188512476034000	6.8318543	-1.7681179	8.944737	
188512485688000	7.0724716	-1.7812861	9.460688	
188512495505000	7.2340803	-1.7369933	9.953894	
188512505543000	7.2592196	-1.7429788	10.346542	
188512515524000	6.839037	-2.087744	10.461464	
188512525659000	6.4392056	-2.4516625	10.152613	
188512536853000	6.1243677	-2.6563668	9.7084875	
188512545581000	5.901707	-2.834735	9.340978	
188512555603000	5.85502	-3.0705638	9.012972	
188512565695000	5.9531827	-3.3494883	8.7532015	
188512575600000	6.2105594	-3.4620156	8.615535	
188512585725000	6.5744777	-3.300407	8.577228	
188512595612000	6.8366427	-3.0813377	8.415619	
188512605743000	6.9012866	-2.9532478	8.252813	
188512615725000	6.7348895	-2.7629087	8.1319065	
188512625761000	6.3482256	-2.610877	7.9487495	
188512635655000	5.8358665	-2.5258827	7.6829934	
188512645622000	5.269638	-2.4732103	7.299921	
188512655704000	4.722563	-2.4612393	6.906075	
188512666821000	4.1635165	-2.5342624	6.31351	
188512675614000	3.7481227	-2.4947581	5.8741736	
188512691465000	3.3913867	-2.5833437	5.521029	
188512705753000	3.0669725	-2.7461493	5.088876	
188512715738000	3.2752678	-2.7114334	4.915296	
188512725649000	3.6822822	-2.4971523	4.9069166	
188512735720000	4.1826706	-2.3942018	5.085284	
188512745614000	4.656722	-2.421735	5.2840033	
188512755655000	5.1319714	-2.3714569	5.485116	
188512765617000	5.592855	-2.3678656	5.843049	
188512775618000	5.955577	-2.4133554	6.483498	
188512787272000	6.194997	-2.4516625	7.2807674	
188512795729000	6.3206925	-2.468422	8.185776	
188512805682000	6.3446345	-2.4875755	9.100361	
188512815643000	6.2847795	-2.4983494	9.726444	
188512825891000	6.1638722	-2.457648	10.01734	
188512836013000	6.019023	-2.360683	10.032902	
188512845613000	5.8705826	-2.2852654	9.661801	
188512855635000	5.6766524	-2.1942859	9.046491	
188512865737000	5.6227827	-1.99437	8.556877	
188512875624000	5.5701103	-1.7753005	8.075643	
188512886819000	5.5258174	-1.5957354	7.6590514	
188512895620000	5.5102553	-1.4820108	7.3777328	
188512905787000	5.483919	-1.4628572	7.2245035	
188512915623000	5.475539	-1.4676456	7.144298	
188512925846000	5.459977	-1.4556746	7.026982	
188512936990000	5.439626	-1.459266	7.061698	
188512945646000	5.4420204	-1.4616601	7.193379	
188512955684000	5.407305	-1.4616601	7.249643	
188512965608000	5.3833623	-1.5167267	7.327454	
188512975619000	5.3474493	-1.6448165	7.419631	
188512985702000	5.579687	-1.6376339	7.4723034	
188512995721000	5.9400144	-1.4544775	7.386112	
188513005654000	6.339846	-1.2940661	7.422025	
188513015618000	6.7265096	-1.1001357	7.469909	
188513025678000	6.9491706	-0.8858546	7.49026	
188513035684000	7.1431007	-0.6476316	7.5848308	
188513045604000	7.0808516	-0.5506664	7.630321	
188513055688000	6.903681	-0.60453594	7.6267295	
188513065790000	6.631939	-0.79128367	7.639898	
188513075744000	6.3542113	-0.9720459	7.7224975	
188513086264000	6.1423244	-1.1827357	7.6829934	
188513095785000	5.9926867	-1.2988545	7.4687123	
188513105825000	5.9807158	-1.3455414	7.3047094	
188513115761000	6.0944405	-1.2641385	7.261614	
188513125834000	6.4368114	-0.94451255	7.2149267	
188513136476000	6.8438253	-0.5398925	7.088034	
188513145671000	7.1502833	-0.1388637	7.1383123	
188513155646000	7.2963295	0.18435353	7.2819643	
188513165603000	7.2149267	0.1400608	7.4351935	
188513176613000	6.9707184	-0.20709845	7.547721	
188513186825000	6.6654577	-0.7338228	7.5213847	
188513195592000	6.420052	-1.3551182	7.4363904	
188513205841000	6.265626	-1.9416976	7.339425	
188513215587000	6.671443	-2.1440077	7.253234	
188513225622000	7.6267295	-1.6831238	6.963536	
188513236486000	8.736442	-0.81283146	6.8067155	
188513245726000	9.799467	0.25617957	6.7025676	
188513265607000	11.192893	1.6687586	6.4523735	
188513265607000	11.192893	1.6687586	6.4523735	
188513275597000	11.2371855	1.9153614	6.1542954	
188513286053000	10.904391	1.8746599	5.7185507	
188513295550000	10.286688	1.5813702	5.3007627	
188513305569000	9.496601	1.0151415	5.3606176	
188513315568000	8.686164	0.21068975	6.0716953	
188513325538000	7.893683	-0.40940848	6.963536	
188513335595000	7.2544312	-0.7733272	7.559692	
188513345656000	6.5589156	-1.30484	7.9990277	
188513355571000	5.7377043	-1.8938135	8.401254	
188513365551000	5.129577	-2.3319526	8.670602	
188513376083000	4.867412	-2.4947581	8.471883	
188513386838000	4.876989	-2.4911668	7.878121	
188513395538000	5.104438	-2.3750482	7.299921	
188513405528000	5.5521536	-2.1272483	6.8318543	
188513415646000	6.0920463	-1.922544	6.5445504	
188513425554000	6.4763155	-1.9776106	6.5325794	
188513435538000	6.8067155	-2.0709844	6.3470287	
188513445579000	7.133524	-2.054225	5.768829	
188513455598000	7.586028	-2.0362685	5.088876	
188513465627000	7.741651	-1.9979613	5.2636523	
188513475584000	7.785944	-1.9045875	5.650316	
188513485543000	7.7129207	-1.9488802	6.101623	
188513496397000	7.524976	-1.9955671	6.55293	
188513505542000	7.2867527	-2.0901382	6.9012866	
188513515540000	7.0006456	-2.304419	7.0844426	
188513525603000	6.740875	-2.5594015	7.2005615	
188513535531000	6.6271505	-2.7234044	7.4268136	
188513545572000	6.669049	-2.7952304	7.631518	
188513555594000	6.7684083	-2.778471	7.607576	
188513565647000	6.839037	-2.7006595	7.3992805	
188513575660000	6.811504	-2.5390508	6.96593	
188513585726000	6.751649	-2.373851	6.634333	
188513595547000	6.661866	-2.31639	6.411672	
