# OpenSignals Text File Format
# {"00:07:80:4D:2E:AD": {"sensor": ["RAW"], "device name": "00:07:80:4D:2E:AD", "column": ["nSeq", "DI", "CH1"], "sync interval": 2, "time": "13:28:8.601", "comments": "", "device connection": "BTH00:07:80:4D:2E:AD", "channels": [1], "keywords": "", "mode": 0, "digital IO": [0, 1], "firmware version": 773, "device": "biosignalsplux", "position": 0, "sampling rate": 1000, "label": ["CH1"], "resolution": [16], "date": "2019-3-12", "special": [{}]}}
# EndOfHeader
0	0	32560	
1	0	33340	
2	0	33072	
3	0	32904	
4	0	33236	
5	0	32164	
6	0	32633	
7	0	33096	
8	0	32538	
9	0	32596	
10	0	32857	
11	0	33032	
12	0	33016	
13	0	32704	
14	0	32860	
15	0	33132	
16	0	32200	
17	0	32556	
18	0	32977	
19	0	32720	
20	0	33028	
21	0	32704	
22	0	32872	
23	0	33220	
24	0	32648	
25	0	32664	
26	0	32948	
27	0	32308	
28	0	32720	
29	0	32632	
30	0	32648	
31	0	33192	
32	0	32884	
33	0	32968	
34	0	32800	
35	0	32776	
36	0	32888	
37	0	32477	
38	0	32700	
39	0	32764	
40	0	32744	
41	0	32924	
42	0	32636	
43	0	32724	
44	0	32896	
45	0	32374	
46	0	32452	
47	0	32600	
48	0	32680	
49	0	32944	
50	0	32871	
51	0	32712	
52	0	33056	
53	0	33028	
54	0	32728	
55	0	32592	
56	0	32904	
57	0	32812	
58	0	32704	
59	0	32854	
60	0	32932	
61	0	32817	
62	0	32804	
63	0	32976	
64	0	32752	
65	0	32772	
66	0	32624	
67	0	32432	
68	0	32980	
69	0	32910	
70	0	32744	
71	0	33208	
72	0	33240	
73	0	33116	
74	0	32930	
75	0	32684	
76	0	32848	
77	0	32764	
78	0	32848	
79	0	33026	
80	0	32756	
81	0	32861	
82	0	32962	
83	0	32605	
84	0	32932	
85	0	32524	
86	0	32090	
87	0	32621	
88	0	32344	
89	0	32373	
90	0	33008	
91	0	32960	
92	0	32644	
93	0	32644	
94	0	32732	
95	0	32688	
96	0	32804	
97	0	32960	
98	0	32972	
99	0	33142	
100	0	33160	
101	0	33148	
102	0	33209	
103	0	33332	
104	0	32912	
105	0	32916	
106	0	32844	
107	0	32584	
108	0	32504	
109	0	32632	
110	0	32632	
111	0	32597	
112	0	32636	
113	0	32480	
114	0	32608	
115	0	32484	
116	0	32304	
117	0	32368	
118	0	32712	
119	0	32807	
120	0	32808	
121	0	33100	
122	0	33321	
123	0	33136	
124	0	32972	
125	0	32938	
126	0	32834	
127	0	32960	
128	0	32724	
129	0	32752	
130	0	33096	
131	0	32996	
132	0	32892	
133	0	32929	
134	0	32828	
135	0	32436	
136	0	32560	
137	0	32544	
138	0	32428	
139	0	32473	
140	0	32748	
141	0	32864	
142	0	32928	
143	0	32912	
144	0	32860	
145	0	32832	
146	0	32764	
147	0	32584	
148	0	32680	
149	0	32964	
150	0	33112	
151	0	33060	
152	0	33249	
153	0	33100	
154	0	33024	
155	0	32834	
156	0	32621	
157	0	32646	
158	0	32660	
159	0	32744	
160	0	32840	
161	0	33000	
162	0	32804	
163	0	32708	
164	0	32684	
165	0	32600	
166	0	32402	
167	0	32304	
168	0	32416	
169	0	32598	
170	0	32742	
171	0	33096	
172	0	33068	
173	0	33096	
174	0	32824	
175	0	32652	
176	0	32756	
177	0	32793	
178	0	32812	
179	0	32960	
180	0	33048	
181	0	33072	
182	0	33040	
183	0	32872	
184	0	32692	
185	0	32824	
186	0	32636	
187	0	32428	
188	0	32540	
189	0	32832	
190	0	32728	
191	0	32848	
192	0	33072	
193	0	32716	
194	0	32628	
195	0	32716	
196	0	32580	
197	0	32440	
198	0	32606	
199	0	32764	
200	0	32836	
201	0	33152	
202	0	33000	
203	0	32826	
204	0	32965	
205	0	33108	
206	0	32924	
207	0	33146	
208	0	32984	
209	0	32908	
210	0	32872	
211	0	32714	
212	0	32896	
213	0	32940	
214	0	32672	
215	0	32384	
216	0	32532	
217	0	32634	
218	0	32411	
219	0	32564	
220	0	32808	
221	0	32613	
222	0	32572	
223	0	32680	
224	0	32693	
225	0	32740	
226	0	32705	
227	0	32748	
228	0	32856	
229	0	33092	
230	0	32916	
231	0	33152	
232	0	33160	
233	0	33053	
234	0	32916	
235	0	32988	
236	0	32880	
237	0	32516	
238	0	32728	
239	0	32724	
240	0	32696	
241	0	32804	
242	0	32840	
243	0	32788	
244	0	32812	
245	0	32518	
246	0	32632	
247	0	32868	
248	0	32700	
249	0	32480	
250	0	32640	
251	0	32820	
252	0	32728	
253	0	32692	
254	0	32672	
255	0	32840	
256	0	32748	
257	0	32740	
258	0	32776	
259	0	33136	
260	0	33216	
261	0	32916	
262	0	32972	
263	0	33120	
264	0	32888	
265	0	32752	
266	0	32816	
267	0	32789	
268	0	32702	
269	0	32601	
270	0	32616	
271	0	32746	
272	0	32648	
273	0	32545	
274	0	32608	
275	0	32600	
276	0	32396	
277	0	32381	
278	0	32700	
279	0	32836	
280	0	32969	
281	0	33256	
282	0	33404	
283	0	33116	
284	0	33008	
285	0	32836	
286	0	32904	
287	0	33044	
288	0	32900	
289	0	32868	
290	0	32872	
291	0	32704	
292	0	32540	
293	0	32693	
294	0	32654	
295	0	32484	
296	0	32560	
297	0	32552	
298	0	32642	
299	0	32696	
300	0	32864	
301	0	32808	
302	0	32997	
303	0	33048	
304	0	32684	
305	0	32706	
306	0	32792	
307	0	32624	
308	0	32836	
309	0	33064	
310	0	32980	
311	0	33009	
312	0	33144	
313	0	32924	
314	0	32896	
315	0	32988	
316	0	32668	
317	0	32744	
318	0	32886	
319	0	32808	
320	0	32648	
321	0	32640	
322	0	32748	
323	0	32852	
324	0	32705	
325	0	32405	
326	0	32476	
327	0	32588	
328	0	32256	
329	0	32636	
330	0	32724	
331	0	32524	
332	0	32748	
333	0	33032	
334	0	32942	
335	0	33132	
336	0	33352	
337	0	32817	
338	0	32724	
339	0	33500	
340	0	33036	
341	0	32940	
342	0	33368	
343	0	32962	
344	0	32262	
345	0	32636	
346	0	32588	
347	0	32160	
348	0	32574	
349	0	32870	
350	0	32332	
351	0	32640	
352	0	32908	
353	0	32120	
354	0	32364	
355	0	32768	
356	0	32440	
357	0	32652	
358	0	32960	
359	0	32900	
360	0	33098	
361	0	33652	
362	0	33012	
363	0	32937	
364	0	33776	
365	0	33057	
366	0	32344	
367	0	33216	
368	0	33152	
369	0	32844	
370	0	33025	
371	0	32904	
372	0	32704	
373	0	32745	
374	0	32756	
375	0	32264	
376	0	32636	
377	0	33016	
378	0	31988	
379	0	32408	
380	0	32876	
381	0	32584	
382	0	32508	
383	0	32679	
384	0	32670	
385	0	32860	
386	0	32816	
387	0	32572	
388	0	32876	
389	0	33588	
390	0	33260	
391	0	32800	
392	0	33156	
393	0	33412	
394	0	32980	
395	0	32776	
396	0	32928	
397	0	33112	
398	0	33108	
399	0	32664	
400	0	32572	
401	0	32944	
402	0	32648	
403	0	32320	
404	0	32388	
405	0	32696	
406	0	32452	
407	0	32160	
408	0	32508	
409	0	32664	
410	0	32684	
411	0	32828	
412	0	32782	
413	0	32960	
414	0	32894	
415	0	32756	
416	0	32712	
417	0	33046	
418	0	33020	
419	0	32828	
420	0	33032	
421	0	33161	
422	0	33216	
423	0	33288	
424	0	32892	
425	0	32688	
426	0	32696	
427	0	32656	
428	0	32504	
429	0	32480	
430	0	32629	
431	0	32656	
432	0	32624	
433	0	32414	
434	0	32520	
435	0	32648	
436	0	32472	
437	0	32465	
438	0	32728	
439	0	33064	
440	0	33116	
441	0	33120	
442	0	33120	
443	0	33383	
444	0	33161	
445	0	32716	
446	0	32994	
447	0	33084	
448	0	32656	
449	0	32640	
450	0	32960	
451	0	32908	
452	0	32864	
453	0	32952	
454	0	32528	
455	0	32092	
456	0	32568	
457	0	32604	
458	0	32016	
459	0	32676	
460	0	33288	
461	0	32852	
462	0	32920	
463	0	33424	
464	0	33012	
465	0	32654	
466	0	32774	
467	0	32600	
468	0	32472	
469	0	33072	
470	0	33241	
471	0	32812	
472	0	32832	
473	0	33004	
474	0	32714	
475	0	32808	
476	0	32700	
477	0	32589	
478	0	32828	
479	0	32704	
480	0	32720	
481	0	32948	
482	0	32906	
483	0	32644	
484	0	32764	
485	0	32744	
486	0	32432	
487	0	32514	
488	0	32656	
489	0	32749	
490	0	32650	
491	0	33012	
492	0	33080	
493	0	32576	
494	0	32600	
495	0	32888	
496	0	32704	
497	0	32429	
498	0	32796	
499	0	33264	
500	0	33004	
501	0	32752	
502	0	33256	
503	0	33380	
504	0	32982	
505	0	32818	
506	0	32750	
507	0	32908	
508	0	32928	
509	0	32636	
510	0	32941	
511	0	32987	
512	0	32702	
513	0	32532	
514	0	32920	
515	0	33016	
516	0	32312	
517	0	32284	
518	0	32546	
519	0	32680	
520	0	32556	
521	0	32708	
522	0	32704	
523	0	32972	
524	0	33140	
525	0	32764	
526	0	32848	
527	0	33144	
528	0	32992	
529	0	32752	
530	0	33032	
531	0	33180	
532	0	32913	
533	0	32916	
534	0	33101	
535	0	32644	
536	0	32388	
537	0	32376	
538	0	32552	
539	0	32456	
540	0	32562	
541	0	32460	
542	0	32516	
543	0	32928	
544	0	32828	
545	0	32796	
546	0	32860	
547	0	32648	
548	0	32852	
549	0	32844	
550	0	33000	
551	0	33068	
552	0	33036	
553	0	32925	
554	0	32991	
555	0	32984	
556	0	32604	
557	0	32668	
558	0	33008	
559	0	32728	
560	0	32716	
561	0	33204	
562	0	32925	
563	0	32568	
564	0	32714	
565	0	32796	
566	0	32536	
567	0	32608	
568	0	32678	
569	0	32724	
570	0	32780	
571	0	32824	
572	0	32936	
573	0	33160	
574	0	32868	
575	0	32372	
576	0	32548	
577	0	32920	
578	0	32864	
579	0	32676	
580	0	32872	
581	0	33036	
582	0	32804	
583	0	32660	
584	0	32652	
585	0	32764	
586	0	32940	
587	0	32576	
588	0	32720	
589	0	32970	
590	0	33064	
591	0	33060	
592	0	32896	
593	0	32992	
594	0	32744	
595	0	32576	
596	0	32608	
597	0	32644	
598	0	32732	
599	0	32613	
600	0	32988	
601	0	32960	
602	0	32852	
603	0	32856	
604	0	32682	
605	0	32608	
606	0	32568	
607	0	32788	
608	0	32856	
609	0	32832	
610	0	32764	
611	0	32720	
612	0	33114	
613	0	33128	
614	0	32824	
615	0	32728	
616	0	32684	
617	0	32425	
618	0	32468	
619	0	32592	
620	0	32788	
621	0	32968	
622	0	32944	
623	0	32788	
624	0	32672	
625	0	32852	
626	0	32712	
627	0	32588	
628	0	32908	
629	0	32984	
630	0	32616	
631	0	32688	
632	0	33337	
633	0	33192	
634	0	32824	
635	0	32528	
636	0	32792	
637	0	32728	
638	0	32708	
639	0	32628	
640	0	32740	
641	0	32828	
642	0	32744	
643	0	32856	
644	0	32964	
645	0	32505	
646	0	32528	
647	0	32876	
648	0	32968	
649	0	32798	
650	0	33036	
651	0	33200	
652	0	32848	
653	0	32684	
654	0	32929	
655	0	33025	
656	0	32877	
657	0	32496	
658	0	32760	
659	0	32958	
660	0	32705	
661	0	32512	
662	0	33216	
663	0	32948	
664	0	32262	
665	0	32676	
666	0	32868	
667	0	32629	
668	0	32412	
669	0	32676	
670	0	32792	
671	0	32780	
672	0	32728	
673	0	32902	
674	0	32941	
675	0	32788	
676	0	32566	
677	0	32980	
678	0	33073	
679	0	32510	
680	0	32874	
681	0	33232	
682	0	33024	
683	0	32584	
684	0	32896	
685	0	32900	
686	0	32544	
687	0	32344	
688	0	32596	
689	0	32696	
690	0	32888	
691	0	32732	
692	0	32676	
693	0	33010	
694	0	32872	
695	0	32584	
696	0	32424	
697	0	32701	
698	0	32572	
699	0	32696	
700	0	32648	
701	0	33048	
702	0	33128	
703	0	32988	
704	0	32572	
705	0	32760	
706	0	32924	
707	0	33068	
708	0	32848	
709	0	32993	
710	0	33158	
711	0	33104	
712	0	32900	
713	0	32900	
714	0	33016	
715	0	32792	
716	0	32420	
717	0	32352	
718	0	32648	
719	0	32888	
720	0	32858	
721	0	32656	
722	0	32712	
723	0	32900	
724	0	32856	
725	0	32424	
726	0	32489	
727	0	32892	
728	0	32980	
729	0	32772	
730	0	32934	
731	0	33128	
732	0	33012	
733	0	32704	
734	0	32520	
735	0	32697	
736	0	32760	
737	0	32485	
738	0	32452	
739	0	32812	
740	0	33208	
741	0	33006	
742	0	32916	
743	0	32942	
744	0	32992	
745	0	32868	
746	0	32608	
747	0	32402	
748	0	32948	
749	0	33134	
750	0	32760	
751	0	32556	
752	0	32944	
753	0	32920	
754	0	32479	
755	0	32200	
756	0	32512	
757	0	32780	
758	0	32789	
759	0	32416	
760	0	32860	
761	0	33568	
762	0	32908	
763	0	32468	
764	0	32752	
765	0	33308	
766	0	32806	
767	0	32284	
768	0	32580	
769	0	33284	
770	0	33308	
771	0	32692	
772	0	32620	
773	0	33580	
774	0	33080	
775	0	32000	
776	0	32352	
777	0	33076	
778	0	32860	
779	0	32608	
780	0	32320	
781	0	32984	
782	0	33196	
783	0	32728	
784	0	32012	
785	0	32728	
786	0	33273	
787	0	32612	
788	0	32300	
789	0	32847	
790	0	33488	
791	0	33124	
792	0	32760	
793	0	32756	
794	0	33364	
795	0	33108	
796	0	32160	
797	0	32164	
798	0	32984	
799	0	33204	
800	0	32612	
801	0	32420	
802	0	33348	
803	0	33288	
804	0	32448	
805	0	31937	
806	0	32632	
807	0	33388	
808	0	32710	
809	0	32032	
810	0	32932	
811	0	33594	
812	0	32960	
813	0	32208	
814	0	32621	
815	0	33424	
816	0	33032	
817	0	31940	
818	0	32448	
819	0	33708	
820	0	33468	
821	0	32133	
822	0	32696	
823	0	33592	
824	0	33336	
825	0	32216	
826	0	32036	
827	0	32816	
828	0	33516	
829	0	32524	
830	0	31984	
831	0	32968	
832	0	33528	
833	0	32428	
834	0	31664	
835	0	32628	
836	0	33372	
837	0	32776	
838	0	32036	
839	0	32456	
840	0	33524	
841	0	33384	
842	0	32353	
843	0	32544	
844	0	33561	
845	0	33120	
846	0	32264	
847	0	32256	
848	0	33120	
849	0	33413	
850	0	32836	
851	0	32256	
852	0	32868	
853	0	33512	
854	0	32844	
855	0	31998	
856	0	32560	
857	0	33184	
858	0	32822	
859	0	32148	
860	0	32416	
861	0	33176	
862	0	33164	
863	0	32281	
864	0	32400	
865	0	33281	
866	0	33232	
867	0	32604	
868	0	32512	
869	0	33500	
870	0	33476	
871	0	33020	
872	0	32738	
873	0	33032	
874	0	33173	
875	0	32828	
876	0	32156	
877	0	32508	
878	0	32996	
879	0	32712	
880	0	32374	
881	0	32588	
882	0	32904	
883	0	32872	
884	0	32484	
885	0	32304	
886	0	32716	
887	0	32976	
888	0	32532	
889	0	32660	
890	0	33484	
891	0	33346	
892	0	32924	
893	0	32720	
894	0	32864	
895	0	32896	
896	0	32660	
897	0	32044	
898	0	32428	
899	0	32952	
900	0	32676	
901	0	32578	
902	0	32700	
903	0	32956	
904	0	32748	
905	0	32728	
906	0	32864	
907	0	33116	
908	0	32954	
909	0	32912	
910	0	32904	
911	0	33388	
912	0	33465	
913	0	32924	
914	0	32760	
915	0	32784	
916	0	32676	
917	0	32316	
918	0	32336	
919	0	32676	
920	0	32788	
921	0	32778	
922	0	32444	
923	0	32552	
924	0	32756	
925	0	32536	
926	0	32340	
927	0	32502	
928	0	32632	
929	0	32928	
930	0	33176	
931	0	33040	
932	0	32980	
933	0	33340	
934	0	33096	
935	0	32801	
936	0	32936	
937	0	32940	
938	0	32736	
939	0	32984	
940	0	33024	
941	0	33128	
942	0	32952	
943	0	32689	
944	0	32644	
945	0	32844	
946	0	32649	
947	0	32412	
948	0	32448	
949	0	32500	
950	0	32484	
951	0	32714	
952	0	32842	
953	0	32796	
954	0	32760	
955	0	32616	
956	0	32524	
957	0	32672	
958	0	32928	
959	0	32981	
960	0	33108	
961	0	33228	
962	0	32984	
963	0	32956	
964	0	33068	
965	0	32848	
966	0	32740	
967	0	32924	
968	0	32820	
969	0	32633	
970	0	32603	
971	0	32748	
972	0	32852	
973	0	32906	
974	0	32612	
975	0	32570	
976	0	32744	
977	0	32745	
978	0	32356	
979	0	32512	
980	0	32752	
981	0	32648	
982	0	32840	
983	0	32868	
984	0	32693	
985	0	32720	
986	0	32700	
987	0	32772	
988	0	32901	
989	0	32960	
990	0	32784	
991	0	32872	
992	0	33057	
993	0	33144	
994	0	33048	
995	0	32942	
996	0	32752	
997	0	32896	
998	0	32840	
999	0	32788	
1000	0	32844	
1001	0	32847	
1002	0	32672	
1003	0	32492	
1004	0	32528	
1005	0	32428	
1006	0	32566	
1007	0	32852	
1008	0	32538	
1009	0	32556	
1010	0	32728	
1011	0	32833	
1012	0	32920	
1013	0	33276	
1014	0	33061	
1015	0	33116	
1016	0	32828	
1017	0	32644	
1018	0	32928	
1019	0	33188	
1020	0	33076	
1021	0	32764	
1022	0	32828	
1023	0	32848	
1024	0	32621	
1025	0	32721	
1026	0	32780	
1027	0	32636	
1028	0	32592	
1029	0	32688	
1030	0	32576	
1031	0	32780	
1032	0	32900	
1033	0	32796	
1034	0	32825	
1035	0	32808	
1036	0	32596	
1037	0	32658	
1038	0	32948	
1039	0	32736	
1040	0	32805	
1041	0	33136	
1042	0	32948	
1043	0	32676	
1044	0	32745	
1045	0	32608	
1046	0	32641	
1047	0	32964	
1048	0	32796	
1049	0	32752	
1050	0	33093	
1051	0	32992	
1052	0	32930	
1053	0	32936	
1054	0	32769	
1055	0	32580	
1056	0	32648	
1057	0	32632	
1058	0	32712	
1059	0	32893	
1060	0	32790	
1061	0	32796	
1062	0	32904	
1063	0	32740	
1064	0	32652	
1065	0	32768	
1066	0	32672	
1067	0	32548	
1068	0	32706	
1069	0	33048	
1070	0	33068	
1071	0	33116	
1072	0	33001	
1073	0	32848	
1074	0	32790	
1075	0	32820	
1076	0	32560	
1077	0	32520	
1078	0	32785	
1079	0	32629	
1080	0	32664	
1081	0	32932	
1082	0	32810	
1083	0	32688	
1084	0	32792	
1085	0	32540	
1086	0	32664	
1087	0	32720	
1088	0	32760	
1089	0	32852	
1090	0	33044	
1091	0	32916	
1092	0	32896	
1093	0	32986	
1094	0	32916	
1095	0	32708	
1096	0	32740	
1097	0	32752	
1098	0	32604	
1099	0	32864	
1100	0	32941	
1101	0	32744	
1102	0	32844	
1103	0	32804	
1104	0	32788	
1105	0	32733	
1106	0	32748	
1107	0	32597	
1108	0	32700	
1109	0	32848	
1110	0	32854	
1111	0	32896	
1112	0	32790	
1113	0	32692	
1114	0	32692	
1115	0	32924	
1116	0	32760	
1117	0	32780	
1118	0	32720	
1119	0	32698	
1120	0	32864	
1121	0	32896	
1122	0	32812	
1123	0	32961	
1124	0	33109	
1125	0	32792	
1126	0	32740	
1127	0	32812	
1128	0	32852	
1129	0	32792	
1130	0	32958	
1131	0	32950	
1132	0	32916	
1133	0	33034	
1134	0	32712	
1135	0	32482	
1136	0	32586	
1137	0	32664	
1138	0	32500	
1139	0	32766	
1140	0	33084	
1141	0	32896	
1142	0	32702	
1143	0	32732	
1144	0	32853	
1145	0	32876	
1146	0	32625	
1147	0	32584	
1148	0	32705	
1149	0	33184	
1150	0	33032	
1151	0	32864	
1152	0	32804	
1153	0	32834	
1154	0	32848	
1155	0	32848	
1156	0	32656	
1157	0	32424	
1158	0	32612	
1159	0	32704	
1160	0	32820	
1161	0	32988	
1162	0	32808	
1163	0	32748	
1164	0	33112	
1165	0	32776	
1166	0	32468	
1167	0	32618	
1168	0	32652	
1169	0	32736	
1170	0	33092	
1171	0	33004	
1172	0	32789	
1173	0	32744	
1174	0	32748	
1175	0	32804	
1176	0	32724	
1177	0	32653	
1178	0	32660	
1179	0	32976	
1180	0	33028	
1181	0	32929	
1182	0	33004	
1183	0	32909	
1184	0	32712	
1185	0	32666	
1186	0	32612	
1187	0	32628	
1188	0	32832	
1189	0	32844	
1190	0	32774	
1191	0	33012	
1192	0	33021	
1193	0	32736	
1194	0	32876	
1195	0	32796	
1196	0	32436	
1197	0	32616	
1198	0	32956	
1199	0	33018	
1200	0	32968	
1201	0	32900	
1202	0	32830	
1203	0	32716	
1204	0	32964	
1205	0	32756	
1206	0	32472	
1207	0	32452	
1208	0	32565	
1209	0	32893	
1210	0	33285	
1211	0	33024	
1212	0	32684	
1213	0	32688	
1214	0	32768	
1215	0	32580	
1216	0	32636	
1217	0	32636	
1218	0	32549	
1219	0	32789	
1220	0	32740	
1221	0	32772	
1222	0	32976	
1223	0	32748	
1224	0	32628	
1225	0	32889	
1226	0	32844	
1227	0	32728	
1228	0	32676	
1229	0	32852	
1230	0	32933	
1231	0	33000	
1232	0	32952	
1233	0	32849	
1234	0	32904	
1235	0	32876	
1236	0	32473	
1237	0	32592	
1238	0	32868	
1239	0	32752	
1240	0	32632	
1241	0	32636	
1242	0	32785	
1243	0	32976	
1244	0	33148	
1245	0	32788	
1246	0	32516	
1247	0	32660	
1248	0	32878	
1249	0	32952	
1250	0	33080	
1251	0	32840	
1252	0	32860	
1253	0	32984	
1254	0	32818	
1255	0	32680	
1256	0	32768	
1257	0	32748	
1258	0	32598	
1259	0	32910	
1260	0	32988	
1261	0	32900	
1262	0	33076	
1263	0	32912	
1264	0	32896	
1265	0	32778	
1266	0	32574	
1267	0	32324	
1268	0	32572	
1269	0	32826	
1270	0	32608	
1271	0	32664	
1272	0	32924	
1273	0	32892	
1274	0	32924	
1275	0	32660	
1276	0	32413	
1277	0	32672	
1278	0	32980	
1279	0	32968	
1280	0	33032	
1281	0	33012	
1282	0	33000	
1283	0	33365	
1284	0	33312	
1285	0	32832	
1286	0	32708	
1287	0	32760	
1288	0	32528	
1289	0	32704	
1290	0	32876	
1291	0	32860	
1292	0	32800	
1293	0	32646	
1294	0	32388	
1295	0	32249	
1296	0	32328	
1297	0	32224	
1298	0	32420	
1299	0	32712	
1300	0	32640	
1301	0	32696	
1302	0	33112	
1303	0	33144	
1304	0	32962	
1305	0	32942	
1306	0	32944	
1307	0	32852	
1308	0	33168	
1309	0	33008	
1310	0	33176	
1311	0	33336	
1312	0	33252	
1313	0	33120	
1314	0	33072	
1315	0	32828	
1316	0	32640	
1317	0	32640	
1318	0	32680	
1319	0	32516	
1320	0	32543	
1321	0	32576	
1322	0	32354	
1323	0	32348	
1324	0	32612	
1325	0	32432	
1326	0	32521	
1327	0	32512	
1328	0	32260	
1329	0	32452	
1330	0	32712	
1331	0	32896	
1332	0	33102	
1333	0	33302	
1334	0	32988	
1335	0	32912	
1336	0	32990	
1337	0	33246	
1338	0	33280	
1339	0	33132	
1340	0	32968	
1341	0	33184	
1342	0	33281	
1343	0	32790	
1344	0	32648	
1345	0	32952	
1346	0	32706	
1347	0	32478	
1348	0	32592	
1349	0	32456	
1350	0	32441	
1351	0	32418	
1352	0	32476	
1353	0	32596	
1354	0	32628	
1355	0	32316	
1356	0	32604	
1357	0	32940	
1358	0	32872	
1359	0	32780	
1360	0	33217	
1361	0	33120	
1362	0	32852	
1363	0	33048	
1364	0	33166	
1365	0	33176	
1366	0	33016	
1367	0	32996	
1368	0	32985	
1369	0	32904	
1370	0	32876	
1371	0	32776	
1372	0	32600	
1373	0	32906	
1374	0	32876	
1375	0	32308	
1376	0	32140	
1377	0	32252	
1378	0	32516	
1379	0	32840	
1380	0	32288	
1381	0	32428	
1382	0	33360	
1383	0	33024	
1384	0	32680	
1385	0	32692	
1386	0	32912	
1387	0	32830	
1388	0	32540	
1389	0	32536	
1390	0	32764	
1391	0	32964	
1392	0	33136	
1393	0	33012	
1394	0	33280	
1395	0	32897	
1396	0	32268	
1397	0	32517	
1398	0	33044	
1399	0	33200	
1400	0	32744	
1401	0	32789	
1402	0	33068	
1403	0	33152	
1404	0	32748	
1405	0	32380	
1406	0	32463	
1407	0	32740	
1408	0	32308	
1409	0	32441	
1410	0	32584	
1411	0	32836	
1412	0	33104	
1413	0	32904	
1414	0	32948	
1415	0	33092	
1416	0	32718	
1417	0	32504	
1418	0	32680	
1419	0	33248	
1420	0	33280	
1421	0	32984	
1422	0	33200	
1423	0	33040	
1424	0	32804	
1425	0	32841	
1426	0	32616	
1427	0	32640	
1428	0	32788	
1429	0	32778	
1430	0	32768	
1431	0	33012	
1432	0	32880	
1433	0	32824	
1434	0	32846	
1435	0	32684	
1436	0	32348	
1437	0	32268	
1438	0	32466	
1439	0	32744	
1440	0	32876	
1441	0	32936	
1442	0	32884	
1443	0	32836	
1444	0	32834	
1445	0	32496	
1446	0	32548	
1447	0	32532	
1448	0	32764	
1449	0	32908	
1450	0	33176	
1451	0	33028	
1452	0	33126	
1453	0	32996	
1454	0	33044	
1455	0	32700	
1456	0	32764	
1457	0	32456	
1458	0	32552	
1459	0	32744	
1460	0	32818	
1461	0	32890	
1462	0	32992	
1463	0	32740	
1464	0	32760	
1465	0	32856	
1466	0	32496	
1467	0	32456	
1468	0	32880	
1469	0	32885	
1470	0	32864	
1471	0	32824	
1472	0	32966	
1473	0	32704	
1474	0	32856	
1475	0	32704	
1476	0	32276	
1477	0	32684	
1478	0	33068	
1479	0	32652	
1480	0	32948	
1481	0	33348	
1482	0	33140	
1483	0	32908	
1484	0	32592	
1485	0	32668	
1486	0	32628	
1487	0	32588	
1488	0	32650	
1489	0	33241	
1490	0	33132	
1491	0	32972	
1492	0	32826	
1493	0	33010	
1494	0	32812	
1495	0	32440	
1496	0	32665	
1497	0	32836	
1498	0	32496	
1499	0	32480	
1500	0	32720	
1501	0	32904	
1502	0	32892	
1503	0	32828	
1504	0	32888	
1505	0	32800	
1506	0	32444	
1507	0	32608	
1508	0	32968	
1509	0	33136	
1510	0	32798	
1511	0	33028	
1512	0	33124	
1513	0	32796	
1514	0	32656	
1515	0	32660	
1516	0	32952	
1517	0	32644	
1518	0	32660	
1519	0	32961	
1520	0	33168	
1521	0	32856	
1522	0	32600	
1523	0	32932	
1524	0	32885	
1525	0	32280	
1526	0	32520	
1527	0	32688	
1528	0	32663	
1529	0	32672	
1530	0	32845	
1531	0	33112	
1532	0	33094	
1533	0	32620	
1534	0	32576	
1535	0	32784	
1536	0	32820	
1537	0	32532	
1538	0	32516	
1539	0	33132	
1540	0	33201	
1541	0	32935	
1542	0	33156	
1543	0	33148	
1544	0	32748	
1545	0	32652	
1546	0	32624	
1547	0	32828	
1548	0	32936	
1549	0	32888	
1550	0	32876	
1551	0	32980	
1552	0	32812	
1553	0	32640	
1554	0	32576	
1555	0	32668	
1556	0	32696	
1557	0	32566	
1558	0	32324	
1559	0	32497	
1560	0	32928	
1561	0	32982	
1562	0	32760	
1563	0	32756	
1564	0	32800	
1565	0	32560	
1566	0	32702	
1567	0	32680	
1568	0	32864	
1569	0	33206	
1570	0	33172	
1571	0	33116	
1572	0	33268	
1573	0	33134	
1574	0	32561	
1575	0	32548	
1576	0	32676	
1577	0	32736	
1578	0	32788	
1579	0	32748	
1580	0	32701	
1581	0	32720	
1582	0	32954	
1583	0	32804	
1584	0	32636	
1585	0	32660	
1586	0	32420	
1587	0	32392	
1588	0	32624	
1589	0	32672	
1590	0	32760	
1591	0	32840	
1592	0	32988	
1593	0	32896	
1594	0	32884	
1595	0	32844	
1596	0	32508	
1597	0	32569	
1598	0	32901	
1599	0	33004	
1600	0	33060	
1601	0	33076	
1602	0	33104	
1603	0	33128	
1604	0	32884	
1605	0	32656	
1606	0	32698	
1607	0	32818	
1608	0	32528	
1609	0	32724	
1610	0	33044	
1611	0	32864	
1612	0	32889	
1613	0	32862	
1614	0	32624	
1615	0	32312	
1616	0	32220	
1617	0	32420	
1618	0	32668	
1619	0	32900	
1620	0	32712	
1621	0	32866	
1622	0	33136	
1623	0	33124	
1624	0	32680	
1625	0	32768	
1626	0	32696	
1627	0	32720	
1628	0	32857	
1629	0	32928	
1630	0	32912	
1631	0	33104	
1632	0	32784	
1633	0	32794	
1634	0	32996	
1635	0	32732	
1636	0	32524	
1637	0	32540	
1638	0	32625	
1639	0	32604	
1640	0	32804	
1641	0	33040	
1642	0	32944	
1643	0	33008	
1644	0	32824	
1645	0	32672	
1646	0	32632	
1647	0	32557	
1648	0	32427	
1649	0	32652	
1650	0	32861	
1651	0	32780	
1652	0	32908	
1653	0	33000	
1654	0	32976	
1655	0	32612	
1656	0	32624	
1657	0	32752	
1658	0	33024	
1659	0	33356	
1660	0	33240	
1661	0	33086	
1662	0	33116	
1663	0	32676	
1664	0	32614	
1665	0	32932	
1666	0	32668	
1667	0	32450	
1668	0	32528	
1669	0	32709	
1670	0	32740	
1671	0	32692	
1672	0	32552	
1673	0	32674	
1674	0	32517	
1675	0	32500	
1676	0	32544	
1677	0	32720	
1678	0	32736	
1679	0	32642	
1680	0	32877	
1681	0	33040	
1682	0	33005	
1683	0	32925	
1684	0	33016	
1685	0	32936	
1686	0	33030	
1687	0	33021	
1688	0	32968	
1689	0	33072	
1690	0	32988	
1691	0	32869	
1692	0	32792	
1693	0	32824	
1694	0	32668	
1695	0	32540	
1696	0	32548	
1697	0	32524	
1698	0	32576	
1699	0	32700	
1700	0	32556	
1701	0	32620	
1702	0	32701	
1703	0	32692	
1704	0	32704	
1705	0	32988	
1706	0	32828	
1707	0	32652	
1708	0	32696	
1709	0	32824	
1710	0	32820	
1711	0	33088	
1712	0	33128	
1713	0	32964	
1714	0	32936	
1715	0	32976	
1716	0	32800	
1717	0	32844	
1718	0	32792	
1719	0	32668	
1720	0	32996	
1721	0	32984	
1722	0	32916	
1723	0	32877	
1724	0	32828	
1725	0	32792	
1726	0	32552	
1727	0	32435	
1728	0	32404	
1729	0	32472	
1730	0	32444	
1731	0	32436	
1732	0	32776	
1733	0	32940	
1734	0	32612	
1735	0	32728	
1736	0	32964	
1737	0	32788	
1738	0	32617	
1739	0	32896	
1740	0	33396	
1741	0	33244	
1742	0	33060	
1743	0	33276	
1744	0	33224	
1745	0	32956	
1746	0	32752	
1747	0	32892	
1748	0	32928	
1749	0	32308	
1750	0	32316	
1751	0	33045	
1752	0	32902	
1753	0	32556	
1754	0	32300	
1755	0	32605	
1756	0	32253	
1757	0	32196	
1758	0	32484	
1759	0	32740	
1760	0	32832	
1761	0	32708	
1762	0	33044	
1763	0	33453	
1764	0	32876	
1765	0	32532	
1766	0	32952	
1767	0	33316	
1768	0	32844	
1769	0	32862	
1770	0	33184	
1771	0	33156	
1772	0	32760	
1773	0	32712	
1774	0	32980	
1775	0	32868	
1776	0	32156	
1777	0	32426	
1778	0	32852	
1779	0	32909	
1780	0	32180	
1781	0	32636	
1782	0	33192	
1783	0	32592	
1784	0	32220	
1785	0	32736	
1786	0	33196	
1787	0	32734	
1788	0	32500	
1789	0	32885	
1790	0	33472	
1791	0	32956	
1792	0	32798	
1793	0	33228	
1794	0	33332	
1795	0	32556	
1796	0	32324	
1797	0	32932	
1798	0	32964	
1799	0	32320	
1800	0	32506	
1801	0	33012	
1802	0	32884	
1803	0	32356	
1804	0	32480	
1805	0	33072	
1806	0	32804	
1807	0	32320	
1808	0	32672	
1809	0	32976	
1810	0	32682	
1811	0	32256	
1812	0	32892	
1813	0	33444	
1814	0	32964	
1815	0	32792	
1816	0	33246	
1817	0	33148	
1818	0	32640	
1819	0	32552	
1820	0	33470	
1821	0	33288	
1822	0	32964	
1823	0	32548	
1824	0	32850	
1825	0	32886	
1826	0	32184	
1827	0	32124	
1828	0	32916	
1829	0	32924	
1830	0	32097	
1831	0	32400	
1832	0	32896	
1833	0	32949	
1834	0	32532	
1835	0	32312	
1836	0	32844	
1837	0	32856	
1838	0	32280	
1839	0	32806	
1840	0	33656	
1841	0	33524	
1842	0	32988	
1843	0	33184	
1844	0	33449	
1845	0	33100	
1846	0	32570	
1847	0	32884	
1848	0	33116	
1849	0	32924	
1850	0	32636	
1851	0	32760	
1852	0	33060	
1853	0	32720	
1854	0	32144	
1855	0	32484	
1856	0	32764	
1857	0	32125	
1858	0	31902	
1859	0	32504	
1860	0	32920	
1861	0	32356	
1862	0	32502	
1863	0	32912	
1864	0	33040	
1865	0	32696	
1866	0	32480	
1867	0	33130	
1868	0	33404	
1869	0	32929	
1870	0	32895	
1871	0	33608	
1872	0	33392	
1873	0	32914	
1874	0	32957	
1875	0	33332	
1876	0	32868	
1877	0	32424	
1878	0	32440	
1879	0	32904	
1880	0	32830	
1881	0	32480	
1882	0	32576	
1883	0	33072	
1884	0	32284	
1885	0	31938	
1886	0	32296	
1887	0	32536	
1888	0	32216	
1889	0	32272	
1890	0	32668	
1891	0	32988	
1892	0	32884	
1893	0	32660	
1894	0	32865	
1895	0	33372	
1896	0	33178	
1897	0	32854	
1898	0	33212	
1899	0	33628	
1900	0	33078	
1901	0	33040	
1902	0	33352	
1903	0	33485	
1904	0	33156	
1905	0	32884	
1906	0	32405	
1907	0	32416	
1908	0	32805	
1909	0	32539	
1910	0	32192	
1911	0	32576	
1912	0	32708	
1913	0	32648	
1914	0	32572	
1915	0	32509	
1916	0	32608	
1917	0	32656	
1918	0	32316	
1919	0	32296	
1920	0	32804	
1921	0	33122	
1922	0	32784	
1923	0	32832	
1924	0	33209	
1925	0	33276	
1926	0	32900	
1927	0	32569	
1928	0	32832	
1929	0	33346	
1930	0	32980	
1931	0	32644	
1932	0	33200	
1933	0	33496	
1934	0	32688	
1935	0	32284	
1936	0	32560	
1937	0	32804	
1938	0	32640	
1939	0	32446	
1940	0	32572	
1941	0	32953	
1942	0	32928	
1943	0	32556	
1944	0	32694	
1945	0	33016	
1946	0	32624	
1947	0	32188	
1948	0	32468	
1949	0	32826	
1950	0	32864	
1951	0	32806	
1952	0	32860	
1953	0	33164	
1954	0	33076	
1955	0	32664	
1956	0	32448	
1957	0	32864	
1958	0	32988	
1959	0	32720	
1960	0	32872	
1961	0	33204	
1962	0	33292	
1963	0	33166	
1964	0	32672	
1965	0	32470	
1966	0	32802	
1967	0	32764	
1968	0	32481	
1969	0	32540	
1970	0	33031	
1971	0	33108	
1972	0	32988	
1973	0	32832	
1974	0	32648	
1975	0	32622	
1976	0	32578	
1977	0	32328	
1978	0	32472	
1979	0	32868	
1980	0	32680	
1981	0	32488	
1982	0	33092	
1983	0	32972	
1984	0	32696	
1985	0	32589	
1986	0	32572	
1987	0	32764	
1988	0	32912	
1989	0	32728	
1990	0	32984	
1991	0	33296	
1992	0	33240	
1993	0	33000	
1994	0	33016	
1995	0	33024	
1996	0	32764	
1997	0	32676	
1998	0	32865	
1999	0	32818	
2000	0	32704	
2001	0	32596	
2002	0	32688	
2003	0	32833	
2004	0	32468	
2005	0	32470	
2006	0	32660	
2007	0	32537	
2008	0	32389	
2009	0	32768	
2010	0	32964	
2011	0	32624	
2012	0	32724	
2013	0	33076	
2014	0	32861	
2015	0	32780	
2016	0	32888	
2017	0	32936	
2018	0	32864	
2019	0	32992	
2020	0	33244	
2021	0	33184	
2022	0	33136	
2023	0	32764	
2024	0	33048	
2025	0	33057	
2026	0	32556	
2027	0	32284	
2028	0	32604	
2029	0	32588	
2030	0	32388	
2031	0	32596	
2032	0	32806	
2033	0	32900	
2034	0	32548	
2035	0	32660	
2036	0	32848	
2037	0	32788	
2038	0	32412	
2039	0	32669	
2040	0	32948	
2041	0	32704	
2042	0	32508	
2043	0	32892	
2044	0	32993	
2045	0	32864	
2046	0	32524	
2047	0	32712	
2048	0	32921	
2049	0	32880	
2050	0	32904	
2051	0	32893	
2052	0	33228	
2053	0	33176	
2054	0	33076	
2055	0	33233	
2056	0	33288	
2057	0	32872	
2058	0	32620	
2059	0	32748	
2060	0	32800	
2061	0	32840	
2062	0	32676	
2063	0	32511	
2064	0	32676	
2065	0	32709	
2066	0	32408	
2067	0	32388	
2068	0	32268	
2069	0	32300	
2070	0	32440	
2071	0	32748	
2072	0	32772	
2073	0	32856	
2074	0	33104	
2075	0	32812	
2076	0	32608	
2077	0	32712	
2078	0	32988	
2079	0	33068	
2080	0	32968	
2081	0	32872	
2082	0	33220	
2083	0	33328	
2084	0	33092	
2085	0	32960	
2086	0	33136	
2087	0	32865	
2088	0	32520	
2089	0	32592	
2090	0	32880	
2091	0	32720	
2092	0	32821	
2093	0	32960	
2094	0	32820	
2095	0	32833	
2096	0	32509	
2097	0	32216	
2098	0	32382	
2099	0	32568	
2100	0	32229	
2101	0	32520	
2102	0	32772	
2103	0	32774	
2104	0	32636	
2105	0	32778	
2106	0	32878	
2107	0	32901	
2108	0	32889	
2109	0	32832	
2110	0	33068	
2111	0	33288	
2112	0	33257	
2113	0	33124	
2114	0	33377	
2115	0	33056	
2116	0	32770	
2117	0	32784	
2118	0	32906	
2119	0	32724	
2120	0	32864	
2121	0	32536	
2122	0	32672	
2123	0	32776	
2124	0	32364	
2125	0	32260	
2126	0	32492	
2127	0	32496	
2128	0	32280	
2129	0	32236	
2130	0	32494	
2131	0	32872	
2132	0	33096	
2133	0	33082	
2134	0	32852	
2135	0	32945	
2136	0	33261	
2137	0	32972	
2138	0	32868	
2139	0	33172	
2140	0	33056	
2141	0	32981	
2142	0	33016	
2143	0	33165	
2144	0	33052	
2145	0	32964	
2146	0	32756	
2147	0	33028	
2148	0	33032	
2149	0	32644	
2150	0	32360	
2151	0	32800	
2152	0	32884	
2153	0	32340	
2154	0	32304	
2155	0	32720	
2156	0	32600	
2157	0	32324	
2158	0	32148	
2159	0	32584	
2160	0	33092	
2161	0	32676	
2162	0	32318	
2163	0	32764	
2164	0	32948	
2165	0	32724	
2166	0	32654	
2167	0	33216	
2168	0	33344	
2169	0	32984	
2170	0	32940	
2171	0	33044	
2172	0	33480	
2173	0	33204	
2174	0	32720	
2175	0	32900	
2176	0	33042	
2177	0	32628	
2178	0	32544	
2179	0	32480	
2180	0	32702	
2181	0	32860	
2182	0	32552	
2183	0	32460	
2184	0	32588	
2185	0	32814	
2186	0	32440	
2187	0	32518	
2188	0	32784	
2189	0	32853	
2190	0	32816	
2191	0	32706	
2192	0	32752	
2193	0	33172	
2194	0	33064	
2195	0	32796	
2196	0	32672	
2197	0	33056	
2198	0	32976	
2199	0	32612	
2200	0	33054	
2201	0	33076	
2202	0	33036	
2203	0	32824	
2204	0	32738	
2205	0	32608	
2206	0	32700	
2207	0	32652	
2208	0	32640	
2209	0	32860	
2210	0	32788	
2211	0	32700	
2212	0	32630	
2213	0	32976	
2214	0	32968	
2215	0	32588	
2216	0	32428	
2217	0	32500	
2218	0	32644	
2219	0	32584	
2220	0	32400	
2221	0	32836	
2222	0	33116	
2223	0	32872	
2224	0	32696	
2225	0	32836	
2226	0	32672	
2227	0	32848	
2228	0	32958	
2229	0	33114	
2230	0	33220	
2231	0	33180	
2232	0	32856	
2233	0	32652	
2234	0	32736	
2235	0	32828	
2236	0	32580	
2237	0	32612	
2238	0	32476	
2239	0	32612	
2240	0	32821	
2241	0	32802	
2242	0	32696	
2243	0	32880	
2244	0	32748	
2245	0	32248	
2246	0	32400	
2247	0	32697	
2248	0	32884	
2249	0	32972	
2250	0	32993	
2251	0	33108	
2252	0	33128	
2253	0	32996	
2254	0	32798	
2255	0	33021	
2256	0	32986	
2257	0	32740	
2258	0	32824	
2259	0	33128	
2260	0	33022	
2261	0	33021	
2262	0	33160	
2263	0	32900	
2264	0	32752	
2265	0	32608	
2266	0	32358	
2267	0	32340	
2268	0	32536	
2269	0	32544	
2270	0	32698	
2271	0	32860	
2272	0	32620	
2273	0	32312	
2274	0	32400	
2275	0	32396	
2276	0	32344	
2277	0	32396	
2278	0	32524	
2279	0	32652	
2280	0	32952	
2281	0	33204	
2282	0	33348	
2283	0	33608	
2284	0	33380	
2285	0	33096	
2286	0	33216	
2287	0	32976	
2288	0	32932	
2289	0	33096	
2290	0	33092	
2291	0	32932	
2292	0	32776	
2293	0	32720	
2294	0	32705	
2295	0	32356	
2296	0	32336	
2297	0	32244	
2298	0	32284	
2299	0	32388	
2300	0	32382	
2301	0	32852	
2302	0	32720	
2303	0	32504	
2304	0	32784	
2305	0	32972	
2306	0	32708	
2307	0	32668	
2308	0	33020	
2309	0	33120	
2310	0	33024	
2311	0	33180	
2312	0	33261	
2313	0	33280	
2314	0	32972	
2315	0	32996	
2316	0	33000	
2317	0	33144	
2318	0	32700	
2319	0	32721	
2320	0	33220	
2321	0	32972	
2322	0	32546	
2323	0	32820	
2324	0	32808	
2325	0	32240	
2326	0	32216	
2327	0	32445	
2328	0	32205	
2329	0	32256	
2330	0	32336	
2331	0	32724	
2332	0	32672	
2333	0	32279	
2334	0	32464	
2335	0	32865	
2336	0	32788	
2337	0	32442	
2338	0	32974	
2339	0	33420	
2340	0	33238	
2341	0	33136	
2342	0	33935	
2343	0	33900	
2344	0	33281	
2345	0	33048	
2346	0	33226	
2347	0	33116	
2348	0	32752	
2349	0	32426	
2350	0	32824	
2351	0	32908	
2352	0	32136	
2353	0	32369	
2354	0	32604	
2355	0	32008	
2356	0	31364	
2357	0	32120	
2358	0	32604	
2359	0	32160	
2360	0	32182	
2361	0	32864	
2362	0	33233	
2363	0	32996	
2364	0	32864	
2365	0	33216	
2366	0	33380	
2367	0	33036	
2368	0	32808	
2369	0	33689	
2370	0	33572	
2371	0	32969	
2372	0	33080	
2373	0	33670	
2374	0	32968	
2375	0	32368	
2376	0	32672	
2377	0	32964	
2378	0	32488	
2379	0	32192	
2380	0	32573	
2381	0	32909	
2382	0	32604	
2383	0	32238	
2384	0	32600	
2385	0	32848	
2386	0	32240	
2387	0	32333	
2388	0	32860	
2389	0	32741	
2390	0	32356	
2391	0	32632	
2392	0	33124	
2393	0	33044	
2394	0	32656	
2395	0	32592	
2396	0	33096	
2397	0	33348	
2398	0	33068	
2399	0	32936	
2400	0	33424	
2401	0	33366	
2402	0	33172	
2403	0	33313	
2404	0	33464	
2405	0	33060	
2406	0	32837	
2407	0	32292	
2408	0	32341	
2409	0	32628	
2410	0	32364	
2411	0	32178	
2412	0	32384	
2413	0	32608	
2414	0	32391	
2415	0	32302	
2416	0	32376	
2417	0	32416	
2418	0	32644	
2419	0	32472	
2420	0	32548	
2421	0	33188	
2422	0	33192	
2423	0	33072	
2424	0	32992	
2425	0	33168	
2426	0	33032	
2427	0	32894	
2428	0	32944	
2429	0	32884	
2430	0	33045	
2431	0	32981	
2432	0	32984	
2433	0	33136	
2434	0	33118	
2435	0	32748	
2436	0	32424	
2437	0	32584	
2438	0	32688	
2439	0	32756	
2440	0	32840	
2441	0	32684	
2442	0	32836	
2443	0	32772	
2444	0	32468	
2445	0	32484	
2446	0	32804	
2447	0	32440	
2448	0	32142	
2449	0	32472	
2450	0	32676	
2451	0	32740	
2452	0	32968	
2453	0	32927	
2454	0	32956	
2455	0	32962	
2456	0	32942	
2457	0	32800	
2458	0	32996	
2459	0	33048	
2460	0	33052	
2461	0	33116	
2462	0	33016	
2463	0	33268	
2464	0	32940	
2465	0	32692	
2466	0	32656	
2467	0	32768	
2468	0	32672	
2469	0	32492	
2470	0	32880	
2471	0	32872	
2472	0	32616	
2473	0	32688	
2474	0	32684	
2475	0	32412	
2476	0	32420	
2477	0	32532	
2478	0	32484	
2479	0	32586	
2480	0	32932	
2481	0	33080	
2482	0	32892	
2483	0	32964	
2484	0	32992	
2485	0	32880	
2486	0	32892	
2487	0	32800	
2488	0	33020	
2489	0	32817	
2490	0	32660	
2491	0	32988	
2492	0	33408	
2493	0	33072	
2494	0	32616	
2495	0	32864	
2496	0	32892	
2497	0	32517	
2498	0	32648	
2499	0	32846	
2500	0	32769	
2501	0	32452	
2502	0	32660	
2503	0	32600	
2504	0	32532	
2505	0	32324	
2506	0	32420	
2507	0	32692	
2508	0	32416	
2509	0	32514	
2510	0	32828	
2511	0	33052	
2512	0	32924	
2513	0	32988	
2514	0	33305	
2515	0	32848	
2516	0	32796	
2517	0	32972	
2518	0	32956	
2519	0	32788	
2520	0	33108	
2521	0	33197	
2522	0	33038	
2523	0	32868	
2524	0	32768	
2525	0	32800	
2526	0	32748	
2527	0	32672	
2528	0	32644	
2529	0	32588	
2530	0	32432	
2531	0	32604	
2532	0	32888	
2533	0	32452	
2534	0	32440	
2535	0	32704	
2536	0	32596	
2537	0	32320	
2538	0	32684	
2539	0	33276	
2540	0	32832	
2541	0	32836	
2542	0	32996	
2543	0	33144	
2544	0	32874	
2545	0	32928	
2546	0	33234	
2547	0	33004	
2548	0	33076	
2549	0	32904	
2550	0	33148	
2551	0	32900	
2552	0	32832	
2553	0	32856	
2554	0	33092	
2555	0	32588	
2556	0	32452	
2557	0	32868	
2558	0	32508	
2559	0	32517	
2560	0	32644	
2561	0	32880	
2562	0	32626	
2563	0	32576	
2564	0	32516	
2565	0	32614	
2566	0	32568	
2567	0	32410	
2568	0	32673	
2569	0	32820	
2570	0	32681	
2571	0	32469	
2572	0	32924	
2573	0	33016	
2574	0	32800	
2575	0	33020	
2576	0	32880	
2577	0	33016	
2578	0	32860	
2579	0	33096	
2580	0	33120	
2581	0	33236	
2582	0	32992	
2583	0	32804	
2584	0	32868	
2585	0	32876	
2586	0	32868	
2587	0	32812	
2588	0	32756	
2589	0	32636	
2590	0	32788	
2591	0	32780	
2592	0	32652	
2593	0	32640	
2594	0	32656	
2595	0	32704	
2596	0	32348	
2597	0	32536	
2598	0	32461	
2599	0	32368	
2600	0	32512	
2601	0	32533	
2602	0	32740	
2603	0	32904	
2604	0	33024	
2605	0	32878	
2606	0	33157	
2607	0	33020	
2608	0	33280	
2609	0	33388	
2610	0	33136	
2611	0	33260	
2612	0	33440	
2613	0	33116	
2614	0	33056	
2615	0	33163	
2616	0	32700	
2617	0	32260	
2618	0	32340	
2619	0	32656	
2620	0	32524	
2621	0	32704	
2622	0	32576	
2623	0	32408	
2624	0	32380	
2625	0	32148	
2626	0	32284	
2627	0	32432	
2628	0	32512	
2629	0	32548	
2630	0	32895	
2631	0	32956	
2632	0	32768	
2633	0	33004	
2634	0	32932	
2635	0	32916	
2636	0	32874	
2637	0	33072	
2638	0	33132	
2639	0	33136	
2640	0	33225	
2641	0	33173	
2642	0	33264	
2643	0	33284	
2644	0	33016	
2645	0	32648	
2646	0	32596	
2647	0	32548	
2648	0	32680	
2649	0	32734	
2650	0	32868	
2651	0	32614	
2652	0	32645	
2653	0	32492	
2654	0	32318	
2655	0	32304	
2656	0	32164	
2657	0	32340	
2658	0	32617	
2659	0	32688	
2660	0	32720	
2661	0	33068	
2662	0	33228	
2663	0	32857	
2664	0	32912	
2665	0	32908	
2666	0	32824	
2667	0	32940	
2668	0	33132	
2669	0	33376	
2670	0	33385	
2671	0	33104	
2672	0	33124	
2673	0	33364	
2674	0	32968	
2675	0	32216	
2676	0	32450	
2677	0	32756	
2678	0	32654	
2679	0	32300	
2680	0	32617	
2681	0	32664	
2682	0	32334	
2683	0	32288	
2684	0	32584	
2685	0	32764	
2686	0	32400	
2687	0	32256	
2688	0	32864	
2689	0	33176	
2690	0	32992	
2691	0	33080	
2692	0	33440	
2693	0	33160	
2694	0	32778	
2695	0	33010	
2696	0	33088	
2697	0	32988	
2698	0	32852	
2699	0	33016	
2700	0	32964	
2701	0	32764	
2702	0	32572	
2703	0	32860	
2704	0	33000	
2705	0	32588	
2706	0	32153	
2707	0	32576	
2708	0	32624	
2709	0	32428	
2710	0	32508	
2711	0	32820	
2712	0	32984	
2713	0	32756	
2714	0	32536	
2715	0	32616	
2716	0	32924	
2717	0	32760	
2718	0	32508	
2719	0	32944	
2720	0	33312	
2721	0	32844	
2722	0	32502	
2723	0	32865	
2724	0	32984	
2725	0	32784	
2726	0	32352	
2727	0	32784	
2728	0	33316	
2729	0	32928	
2730	0	32408	
2731	0	33080	
2732	0	33576	
2733	0	32804	
2734	0	32144	
2735	0	32720	
2736	0	33076	
2737	0	32364	
2738	0	32332	
2739	0	32772	
2740	0	32948	
2741	0	32852	
2742	0	32346	
2743	0	32924	
2744	0	33356	
2745	0	32790	
2746	0	32320	
2747	0	32942	
2748	0	33208	
2749	0	32639	
2750	0	32752	
2751	0	33416	
2752	0	33197	
2753	0	32813	
2754	0	32728	
2755	0	33244	
2756	0	33076	
2757	0	32581	
2758	0	32232	
2759	0	32804	
2760	0	32820	
2761	0	32401	
2762	0	32584	
2763	0	32948	
2764	0	32512	
2765	0	32200	
2766	0	32518	
2767	0	32688	
2768	0	32581	
2769	0	32557	
2770	0	33116	
2771	0	33414	
2772	0	33036	
2773	0	32724	
2774	0	33180	
2775	0	33248	
2776	0	32356	
2777	0	32476	
2778	0	33421	
2779	0	33120	
2780	0	32340	
2781	0	32788	
2782	0	33208	
2783	0	32828	
2784	0	32502	
2785	0	32789	
2786	0	33220	
2787	0	32749	
2788	0	32164	
2789	0	32556	
2790	0	33216	
2791	0	32480	
2792	0	32180	
2793	0	32740	
2794	0	32888	
2795	0	32244	
2796	0	32508	
2797	0	32996	
2798	0	32710	
2799	0	32500	
2800	0	32856	
2801	0	33148	
2802	0	32977	
2803	0	32836	
2804	0	33288	
2805	0	33288	
2806	0	32964	
2807	0	32832	
2808	0	33300	
2809	0	32916	
2810	0	32448	
2811	0	33140	
2812	0	33596	
2813	0	32885	
2814	0	32493	
2815	0	33078	
2816	0	32756	
2817	0	31904	
2818	0	32144	
2819	0	32776	
2820	0	32480	
2821	0	32024	
2822	0	32460	
2823	0	33040	
2824	0	32669	
2825	0	32132	
2826	0	32732	
2827	0	32916	
2828	0	32208	
2829	0	32512	
2830	0	33352	
2831	0	33452	
2832	0	32729	
2833	0	33156	
2834	0	33786	
2835	0	33188	
2836	0	32560	
2837	0	33304	
2838	0	33428	
2839	0	32780	
2840	0	32700	
2841	0	33428	
2842	0	33393	
2843	0	32465	
2844	0	32308	
2845	0	33020	
2846	0	32652	
2847	0	31596	
2848	0	32288	
2849	0	32968	
2850	0	32692	
2851	0	32008	
2852	0	32788	
2853	0	33260	
2854	0	32760	
2855	0	32122	
2856	0	32629	
2857	0	33289	
2858	0	32881	
2859	0	32506	
2860	0	33132	
2861	0	33584	
2862	0	32825	
2863	0	32552	
2864	0	33432	
2865	0	33552	
2866	0	32824	
2867	0	32438	
2868	0	32777	
2869	0	32913	
2870	0	32564	
2871	0	32364	
2872	0	32920	
2873	0	33168	
2874	0	32508	
2875	0	32240	
2876	0	32772	
2877	0	32968	
2878	0	32380	
2879	0	32384	
2880	0	32996	
2881	0	32820	
2882	0	32380	
2883	0	32529	
2884	0	33040	
2885	0	32964	
2886	0	32376	
2887	0	32428	
2888	0	33464	
2889	0	33274	
2890	0	32628	
2891	0	32820	
2892	0	33620	
2893	0	33360	
2894	0	32808	
2895	0	32764	
2896	0	32920	
2897	0	32728	
2898	0	32368	
2899	0	32362	
2900	0	32641	
2901	0	32916	
2902	0	32312	
2903	0	32256	
2904	0	32624	
2905	0	32761	
2906	0	32520	
2907	0	32700	
2908	0	32724	
2909	0	32818	
2910	0	33072	
2911	0	32712	
2912	0	32934	
2913	0	33544	
2914	0	33429	
2915	0	32932	
2916	0	32848	
2917	0	33449	
2918	0	33192	
2919	0	32950	
2920	0	32836	
2921	0	32960	
2922	0	33153	
2923	0	32716	
2924	0	32108	
2925	0	32525	
2926	0	32516	
2927	0	31976	
2928	0	32084	
2929	0	32506	
2930	0	32564	
2931	0	32364	
2932	0	32528	
2933	0	32836	
2934	0	33036	
2935	0	32896	
2936	0	32676	
2937	0	32644	
2938	0	33018	
2939	0	32964	
2940	0	32856	
2941	0	33436	
2942	0	33632	
2943	0	33272	
2944	0	33046	
2945	0	32904	
2946	0	32932	
2947	0	33036	
2948	0	32828	
2949	0	32770	
2950	0	32900	
2951	0	32932	
2952	0	32760	
2953	0	32724	
2954	0	32588	
2955	0	32460	
2956	0	32208	
2957	0	31956	
2958	0	31996	
2959	0	32286	
2960	0	32564	
2961	0	32336	
2962	0	32700	
2963	0	33152	
2964	0	33016	
2965	0	32876	
2966	0	32792	
2967	0	33036	
2968	0	33401	
2969	0	33204	
2970	0	33068	
2971	0	33624	
2972	0	33508	
2973	0	33084	
2974	0	33060	
2975	0	33276	
2976	0	32902	
2977	0	32429	
2978	0	32504	
2979	0	32620	
2980	0	32548	
2981	0	32500	
2982	0	32484	
2983	0	32608	
2984	0	32630	
2985	0	32304	
2986	0	32168	
2987	0	32546	
2988	0	32680	
2989	0	32460	
2990	0	32720	
2991	0	33082	
2992	0	32872	
2993	0	32952	
2994	0	32976	
2995	0	32936	
2996	0	32948	
2997	0	32956	
2998	0	33029	
2999	0	33160	
3000	0	33128	
3001	0	33076	
3002	0	32992	
3003	0	32892	
3004	0	32730	
3005	0	32662	
3006	0	32698	
3007	0	32628	
3008	0	32552	
3009	0	32654	
3010	0	32612	
3011	0	32646	
3012	0	32768	
3013	0	32612	
3014	0	32416	
3015	0	32596	
3016	0	32581	
3017	0	32596	
3018	0	32970	
3019	0	32904	
3020	0	32685	
3021	0	33100	
3022	0	32988	
3023	0	33048	
3024	0	32976	
3025	0	32812	
3026	0	32820	
3027	0	33080	
3028	0	32852	
3029	0	32896	
3030	0	33116	
3031	0	32740	
3032	0	32604	
3033	0	32718	
3034	0	32688	
3035	0	32588	
3036	0	32552	
3037	0	32529	
3038	0	32620	
3039	0	32808	
3040	0	32680	
3041	0	32884	
3042	0	33024	
3043	0	32856	
3044	0	32497	
3045	0	32733	
3046	0	32996	
3047	0	32808	
3048	0	32748	
3049	0	32933	
3050	0	32944	
3051	0	33140	
3052	0	33026	
3053	0	32826	
3054	0	32568	
3055	0	32468	
3056	0	32552	
3057	0	32708	
3058	0	33060	
3059	0	32768	
3060	0	32761	
3061	0	32960	
3062	0	32896	
3063	0	32680	
3064	0	32628	
3065	0	32601	
3066	0	32428	
3067	0	32606	
3068	0	32737	
3069	0	32812	
3070	0	32944	
3071	0	32918	
3072	0	32716	
3073	0	32804	
3074	0	32932	
3075	0	32956	
3076	0	33068	
3077	0	32788	
3078	0	32729	
3079	0	33016	
3080	0	32920	
3081	0	32932	
3082	0	33116	
3083	0	32984	
3084	0	32604	
3085	0	32576	
3086	0	32806	
3087	0	32363	
3088	0	32430	
3089	0	32712	
3090	0	32752	
3091	0	32684	
3092	0	32844	
3093	0	32840	
3094	0	32616	
3095	0	32484	
3096	0	32548	
3097	0	32720	
3098	0	32722	
3099	0	32588	
3100	0	32704	
3101	0	32932	
3102	0	32944	
3103	0	32962	
3104	0	33254	
3105	0	32944	
3106	0	32620	
3107	0	32765	
3108	0	32976	
3109	0	32784	
3110	0	32980	
3111	0	33120	
3112	0	32900	
3113	0	32734	
3114	0	32912	
3115	0	32854	
3116	0	32556	
3117	0	32722	
3118	0	32848	
3119	0	32928	
3120	0	32764	
3121	0	32847	
3122	0	32973	
3123	0	32912	
3124	0	32756	
3125	0	32898	
3126	0	32725	
3127	0	32372	
3128	0	32396	
3129	0	32958	
3130	0	32336	
3131	0	32540	
3132	0	33168	
3133	0	32932	
3134	0	32644	
3135	0	32620	
3136	0	32820	
3137	0	32688	
3138	0	32554	
3139	0	32732	
3140	0	33340	
3141	0	33100	
3142	0	32828	
3143	0	33028	
3144	0	33249	
3145	0	32800	
3146	0	32464	
3147	0	32876	
3148	0	32845	
3149	0	32560	
3150	0	32664	
3151	0	33128	
3152	0	33088	
3153	0	32660	
3154	0	32668	
3155	0	32714	
3156	0	32554	
3157	0	32248	
3158	0	32412	
3159	0	32772	
3160	0	32824	
3161	0	32536	
3162	0	32904	
3163	0	33108	
3164	0	32756	
3165	0	32576	
3166	0	32620	
3167	0	32584	
3168	0	32726	
3169	0	32864	
3170	0	32640	
3171	0	32993	
3172	0	33224	
3173	0	32916	
3174	0	32844	
3175	0	32992	
3176	0	32772	
3177	0	32622	
3178	0	32700	
3179	0	32972	
3180	0	33065	
3181	0	33080	
3182	0	32802	
3183	0	32656	
3184	0	32892	
3185	0	32752	
3186	0	32476	
3187	0	32704	
3188	0	32748	
3189	0	32472	
3190	0	32660	
3191	0	32862	
3192	0	32876	
3193	0	32880	
3194	0	32773	
3195	0	32608	
3196	0	32832	
3197	0	32908	
3198	0	32718	
3199	0	32940	
3200	0	33016	
3201	0	33168	
3202	0	33044	
3203	0	32850	
3204	0	32776	
3205	0	32986	
3206	0	32956	
3207	0	32330	
3208	0	32446	
3209	0	32936	
3210	0	32865	
3211	0	32648	
3212	0	32781	
3213	0	32873	
3214	0	32636	
3215	0	32560	
3216	0	32537	
3217	0	32686	
3218	0	32726	
3219	0	32773	
3220	0	32813	
3221	0	33172	
3222	0	32956	
3223	0	32666	
3224	0	32800	
3225	0	33004	
3226	0	32848	
3227	0	32728	
3228	0	32676	
3229	0	32820	
3230	0	33092	
3231	0	32917	
3232	0	32540	
3233	0	32956	
3234	0	32976	
3235	0	32592	
3236	0	32489	
3237	0	32708	
3238	0	32854	
3239	0	32584	
3240	0	32556	
3241	0	32616	
3242	0	32781	
3243	0	32768	
3244	0	32865	
3245	0	33053	
3246	0	33120	
3247	0	32664	
3248	0	32668	
3249	0	32992	
3250	0	32964	
3251	0	32852	
3252	0	32990	
3253	0	32996	
3254	0	32867	
3255	0	32760	
3256	0	32704	
3257	0	32600	
3258	0	32668	
3259	0	32632	
3260	0	32816	
3261	0	32860	
3262	0	32712	
3263	0	32692	
3264	0	32924	
3265	0	32629	
3266	0	32588	
3267	0	32908	
3268	0	32916	
3269	0	32449	
3270	0	32612	
3271	0	32900	
3272	0	32726	
3273	0	32784	
3274	0	32984	
3275	0	33108	
3276	0	32980	
3277	0	32768	
3278	0	32908	
3279	0	33197	
3280	0	32905	
3281	0	32848	
3282	0	33100	
3283	0	33210	
3284	0	32660	
3285	0	32638	
3286	0	33060	
3287	0	32857	
3288	0	32423	
3289	0	32372	
3290	0	32492	
3291	0	32344	
3292	0	32272	
3293	0	32588	
3294	0	32736	
3295	0	32440	
3296	0	32420	
3297	0	32780	
3298	0	32960	
3299	0	32640	
3300	0	33124	
3301	0	33692	
3302	0	33340	
3303	0	33048	
3304	0	33356	
3305	0	33296	
3306	0	32844	
3307	0	32665	
3308	0	32974	
3309	0	32916	
3310	0	32426	
3311	0	32444	
3312	0	32760	
3313	0	32926	
3314	0	32436	
3315	0	32356	
3316	0	32596	
3317	0	32516	
3318	0	32188	
3319	0	32452	
3320	0	32808	
3321	0	32800	
3322	0	32624	
3323	0	32884	
3324	0	33000	
3325	0	32888	
3326	0	32814	
3327	0	32940	
3328	0	33148	
3329	0	33157	
3330	0	32818	
3331	0	33046	
3332	0	33252	
3333	0	32932	
3334	0	32892	
3335	0	33118	
3336	0	32736	
3337	0	32569	
3338	0	32636	
3339	0	32752	
3340	0	32716	
3341	0	32552	
3342	0	32652	
3343	0	32820	
3344	0	32668	
3345	0	32268	
3346	0	32344	
3347	0	32592	
3348	0	32500	
3349	0	32564	
3350	0	32896	
3351	0	33040	
3352	0	32804	
3353	0	32852	
3354	0	33224	
3355	0	33192	
3356	0	32992	
3357	0	32852	
3358	0	32968	
3359	0	33268	
3360	0	33105	
3361	0	33201	
3362	0	33216	
3363	0	33008	
3364	0	32608	
3365	0	32676	
3366	0	32424	
3367	0	32148	
3368	0	32412	
3369	0	32652	
3370	0	32484	
3371	0	32476	
3372	0	32516	
3373	0	32620	
3374	0	32480	
3375	0	32596	
3376	0	32660	
3377	0	32864	
3378	0	32992	
3379	0	32784	
3380	0	33148	
3381	0	33356	
3382	0	33144	
3383	0	33144	
3384	0	33532	
3385	0	33060	
3386	0	32680	
3387	0	32848	
3388	0	32808	
3389	0	32780	
3390	0	32828	
3391	0	32972	
3392	0	32656	
3393	0	32628	
3394	0	32504	
3395	0	32480	
3396	0	32524	
3397	0	32428	
3398	0	32344	
3399	0	32540	
3400	0	32508	
3401	0	32620	
3402	0	32768	
3403	0	32844	
3404	0	32720	
3405	0	32680	
3406	0	32832	
3407	0	33028	
3408	0	33004	
3409	0	32836	
3410	0	32976	
3411	0	33344	
3412	0	33100	
3413	0	33053	
3414	0	33384	
3415	0	33048	
3416	0	32688	
3417	0	32850	
3418	0	32824	
3419	0	32421	
3420	0	32736	
3421	0	32820	
3422	0	32412	
3423	0	32560	
3424	0	32681	
3425	0	32164	
3426	0	32444	
3427	0	32836	
3428	0	32548	
3429	0	32455	
3430	0	32972	
3431	0	32860	
3432	0	32624	
3433	0	32904	
3434	0	33104	
3435	0	32760	
3436	0	33065	
3437	0	33276	
3438	0	32857	
3439	0	32836	
3440	0	33182	
3441	0	32794	
3442	0	33284	
3443	0	33380	
3444	0	32752	
3445	0	32600	
3446	0	32896	
3447	0	32720	
3448	0	32376	
3449	0	32680	
3450	0	32684	
3451	0	32489	
3452	0	32749	
3453	0	33044	
3454	0	32660	
3455	0	32620	
3456	0	32620	
3457	0	32558	
3458	0	32548	
3459	0	32676	
3460	0	32628	
3461	0	32714	
3462	0	32932	
3463	0	33005	
3464	0	32901	
3465	0	32896	
3466	0	33048	
3467	0	32756	
3468	0	32468	
3469	0	32696	
3470	0	32936	
3471	0	32936	
3472	0	32889	
3473	0	32960	
3474	0	32744	
3475	0	32548	
3476	0	32512	
3477	0	32552	
3478	0	32639	
3479	0	32763	
3480	0	32533	
3481	0	32810	
3482	0	33196	
3483	0	33050	
3484	0	32940	
3485	0	32994	
3486	0	32796	
3487	0	32673	
3488	0	33120	
3489	0	32884	
3490	0	32636	
3491	0	33044	
3492	0	33324	
3493	0	32948	
3494	0	32584	
3495	0	32513	
3496	0	32528	
3497	0	32508	
3498	0	32400	
3499	0	32448	
3500	0	32762	
3501	0	33048	
3502	0	32496	
3503	0	32697	
3504	0	33116	
3505	0	32896	
3506	0	32576	
3507	0	32612	
3508	0	32800	
3509	0	32924	
3510	0	32832	
3511	0	32614	
3512	0	33256	
3513	0	33417	
3514	0	32860	
3515	0	32240	
3516	0	32654	
3517	0	33192	
3518	0	33064	
3519	0	32884	
3520	0	32740	
3521	0	33092	
3522	0	33438	
3523	0	32792	
3524	0	32568	
3525	0	33072	
3526	0	32685	
3527	0	32312	
3528	0	32400	
3529	0	32508	
3530	0	32772	
3531	0	32706	
3532	0	32372	
3533	0	32448	
3534	0	32952	
3535	0	32804	
3536	0	31957	
3537	0	32256	
3538	0	32952	
3539	0	33012	
3540	0	32610	
3541	0	32928	
3542	0	33385	
3543	0	33466	
3544	0	33045	
3545	0	32704	
3546	0	32920	
3547	0	33412	
3548	0	32860	
3549	0	32516	
3550	0	33096	
3551	0	33430	
3552	0	32896	
3553	0	32641	
3554	0	32884	
3555	0	32926	
3556	0	32264	
3557	0	31808	
3558	0	32416	
3559	0	32916	
3560	0	32388	
3561	0	32028	
3562	0	32616	
3563	0	33228	
3564	0	32774	
3565	0	32600	
3566	0	32800	
3567	0	32880	
3568	0	32740	
3569	0	32578	
3570	0	32962	
3571	0	33684	
3572	0	33460	
3573	0	33288	
3574	0	33300	
3575	0	33094	
3576	0	32848	
3577	0	32733	
3578	0	32564	
3579	0	32736	
3580	0	32780	
3581	0	32600	
3582	0	32660	
3583	0	32868	
3584	0	32840	
3585	0	32488	
3586	0	32208	
3587	0	32370	
3588	0	32340	
3589	0	32580	
3590	0	32400	
3591	0	32680	
3592	0	33196	
3593	0	32996	
3594	0	32726	
3595	0	32744	
3596	0	32972	
3597	0	32798	
3598	0	32592	
3599	0	32940	
3600	0	33108	
3601	0	33048	
3602	0	32925	
3603	0	33000	
3604	0	33140	
3605	0	33100	
3606	0	32672	
3607	0	32592	
3608	0	33000	
3609	0	32730	
3610	0	32513	
3611	0	32909	
3612	0	32968	
3613	0	32752	
3614	0	32704	
3615	0	32762	
3616	0	32736	
3617	0	32732	
3618	0	32652	
3619	0	32548	
3620	0	32653	
3621	0	32844	
3622	0	32712	
3623	0	32756	
3624	0	32816	
3625	0	32684	
3626	0	32748	
3627	0	32822	
3628	0	32532	
3629	0	32636	
3630	0	32869	
3631	0	32912	
3632	0	32912	
3633	0	32928	
3634	0	32980	
3635	0	32904	
3636	0	32760	
3637	0	32604	
3638	0	32706	
3639	0	33036	
3640	0	32886	
3641	0	32896	
3642	0	32988	
3643	0	32776	
3644	0	32832	
3645	0	33200	
3646	0	33012	
3647	0	32780	
3648	0	32740	
3649	0	32636	
3650	0	32592	
3651	0	32816	
3652	0	32852	
3653	0	32914	
3654	0	32752	
3655	0	32552	
3656	0	32412	
3657	0	32556	
3658	0	32568	
3659	0	32492	
3660	0	32564	
3661	0	32900	
3662	0	33026	
3663	0	32868	
3664	0	32940	
3665	0	32908	
3666	0	32816	
3667	0	32770	
3668	0	32600	
3669	0	32716	
3670	0	32822	
3671	0	32808	
3672	0	32838	
3673	0	33092	
3674	0	33056	
3675	0	33104	
3676	0	32933	
3677	0	32592	
3678	0	32584	
3679	0	32972	
3680	0	32980	
3681	0	32965	
3682	0	33228	
3683	0	33004	
3684	0	32602	
3685	0	32625	
3686	0	32648	
3687	0	32428	
3688	0	32416	
3689	0	32426	
3690	0	32448	
3691	0	32744	
3692	0	32686	
3693	0	32556	
3694	0	32788	
3695	0	32504	
3696	0	32320	
3697	0	32560	
3698	0	32824	
3699	0	32936	
3700	0	33116	
3701	0	33336	
3702	0	33484	
3703	0	33292	
3704	0	33352	
3705	0	33428	
3706	0	33102	
3707	0	32781	
3708	0	33002	
3709	0	33237	
3710	0	32773	
3711	0	32472	
3712	0	32948	
3713	0	32984	
3714	0	32172	
3715	0	32258	
3716	0	32478	
3717	0	32020	
3718	0	31544	
3719	0	32036	
3720	0	32629	
3721	0	32740	
3722	0	32382	
3723	0	32868	
3724	0	33532	
3725	0	32732	
3726	0	32472	
3727	0	33252	
3728	0	33712	
3729	0	32872	
3730	0	32800	
3731	0	33832	
3732	0	33424	
3733	0	32664	
3734	0	33136	
3735	0	33480	
3736	0	32646	
3737	0	32190	
3738	0	32572	
3739	0	32976	
3740	0	32416	
3741	0	32029	
3742	0	32816	
3743	0	33196	
3744	0	32384	
3745	0	32120	
3746	0	32976	
3747	0	32982	
3748	0	32220	
3749	0	32386	
3750	0	33276	
3751	0	33068	
3752	0	32456	
3753	0	32576	
3754	0	33128	
3755	0	33240	
3756	0	32681	
3757	0	32464	
3758	0	33012	
3759	0	33220	
3760	0	32684	
3761	0	32481	
3762	0	33172	
3763	0	33540	
3764	0	32996	
3765	0	32409	
3766	0	32732	
3767	0	33196	
3768	0	32677	
3769	0	32118	
3770	0	32860	
3771	0	33512	
3772	0	32774	
3773	0	32165	
3774	0	32788	
3775	0	33240	
3776	0	32448	
3777	0	31884	
3778	0	32238	
3779	0	32704	
3780	0	32788	
3781	0	32133	
3782	0	32656	
3783	0	33532	
3784	0	33196	
3785	0	32396	
3786	0	32580	
3787	0	33396	
3788	0	33133	
3789	0	32541	
3790	0	32640	
3791	0	33422	
3792	0	33648	
3793	0	32888	
3794	0	32512	
3795	0	33400	
3796	0	33477	
3797	0	32520	
3798	0	32116	
3799	0	32772	
3800	0	33304	
3801	0	32980	
3802	0	32184	
3803	0	32670	
3804	0	33152	
3805	0	32560	
3806	0	31728	
3807	0	32272	
3808	0	32852	
3809	0	32592	
3810	0	32032	
3811	0	32450	
3812	0	33004	
3813	0	32964	
3814	0	32666	
3815	0	32684	
3816	0	33149	
3817	0	33280	
3818	0	32820	
3819	0	32468	
3820	0	33200	
3821	0	33580	
3822	0	33240	
3823	0	33064	
3824	0	33124	
3825	0	33098	
3826	0	32768	
3827	0	32360	
3828	0	32636	
3829	0	33200	
3830	0	32820	
3831	0	32140	
3832	0	32580	
3833	0	33132	
3834	0	32552	
3835	0	32006	
3836	0	32404	
3837	0	32848	
3838	0	32752	
3839	0	32340	
3840	0	32509	
3841	0	33196	
3842	0	33360	
3843	0	32858	
3844	0	32764	
3845	0	33334	
3846	0	33116	
3847	0	32776	
3848	0	32600	
3849	0	32980	
3850	0	33272	
3851	0	32932	
3852	0	32600	
3853	0	32796	
3854	0	33092	
3855	0	32740	
3856	0	32352	
3857	0	32792	
3858	0	32952	
3859	0	32712	
3860	0	32382	
3861	0	32704	
3862	0	32964	
3863	0	33012	
3864	0	32636	
3865	0	32428	
3866	0	32692	
3867	0	32844	
3868	0	32608	
3869	0	32576	
3870	0	32840	
3871	0	32876	
3872	0	32934	
3873	0	32896	
3874	0	32784	
3875	0	32740	
3876	0	32916	
3877	0	32476	
3878	0	32805	
3879	0	33186	
3880	0	33128	
3881	0	32940	
3882	0	32972	
3883	0	33280	
3884	0	33072	
3885	0	32933	
3886	0	32404	
3887	0	32652	
3888	0	32792	
3889	0	32406	
3890	0	32504	
3891	0	32876	
3892	0	32822	
3893	0	32596	
3894	0	32828	
3895	0	32692	
3896	0	32560	
3897	0	32637	
3898	0	32910	
3899	0	32772	
3900	0	32680	
3901	0	32766	
3902	0	32736	
3903	0	32844	
3904	0	32900	
3905	0	32552	
3906	0	32820	
3907	0	32632	
3908	0	32620	
3909	0	32988	
3910	0	32932	
3911	0	32968	
3912	0	33044	
3913	0	33342	
3914	0	32954	
3915	0	32820	
3916	0	32756	
3917	0	33001	
3918	0	32860	
3919	0	32716	
3920	0	32822	
3921	0	33206	
3922	0	32756	
3923	0	32284	
3924	0	32598	
3925	0	32740	
3926	0	32078	
3927	0	32161	
3928	0	32664	
3929	0	32520	
3930	0	32388	
3931	0	32606	
3932	0	33253	
3933	0	33008	
3934	0	33024	
3935	0	32756	
3936	0	33272	
3937	0	33101	
3938	0	32956	
3939	0	32992	
3940	0	33204	
3941	0	33024	
3942	0	32826	
3943	0	33004	
3944	0	32932	
3945	0	32848	
3946	0	32888	
3947	0	32744	
3948	0	32452	
3949	0	32700	
3950	0	32696	
3951	0	32680	
3952	0	32520	
3953	0	32796	
3954	0	32568	
3955	0	32528	
3956	0	32452	
3957	0	32592	
3958	0	32636	
3959	0	32612	
3960	0	32629	
3961	0	32928	
3962	0	32956	
3963	0	32452	
3964	0	32836	
3965	0	33132	
3966	0	32808	
3967	0	32620	
3968	0	33032	
3969	0	32862	
3970	0	32960	
3971	0	33226	
3972	0	33192	
3973	0	33220	
3974	0	33316	
3975	0	33104	
3976	0	32824	
3977	0	32664	
3978	0	32556	
3979	0	32744	
3980	0	32612	
3981	0	32484	
3982	0	32644	
3983	0	32645	
3984	0	32174	
3985	0	32372	
3986	0	32665	
3987	0	32812	
3988	0	32042	
3989	0	32380	
3990	0	32956	
3991	0	32904	
3992	0	33132	
3993	0	33192	
3994	0	33280	
3995	0	33012	
3996	0	33120	
3997	0	33024	
3998	0	32912	
3999	0	32640	
4000	0	32568	
4001	0	32865	
4002	0	32772	
4003	0	32668	
4004	0	33149	
4005	0	33065	
4006	0	32708	
4007	0	32718	
4008	0	32962	
4009	0	32536	
4010	0	32360	
4011	0	32594	
4012	0	32849	
4013	0	32736	
4014	0	32656	
4015	0	32580	
4016	0	32628	
4017	0	32452	
4018	0	32228	
4019	0	32736	
4020	0	32944	
4021	0	32764	
4022	0	32532	
4023	0	33090	
4024	0	33100	
4025	0	32868	
4026	0	32968	
4027	0	33133	
4028	0	33120	
4029	0	33096	
4030	0	32976	
4031	0	32908	
4032	0	33180	
4033	0	33184	
4034	0	32800	
4035	0	32760	
4036	0	32736	
4037	0	32704	
4038	0	32777	
4039	0	32456	
4040	0	32474	
4041	0	32476	
4042	0	32616	
4043	0	32244	
4044	0	32560	
4045	0	32641	
4046	0	32697	
4047	0	32498	
4048	0	32780	
4049	0	32800	
4050	0	32672	
4051	0	32792	
4052	0	32945	
4053	0	33072	
4054	0	33518	
4055	0	33144	
4056	0	32927	
4057	0	32980	
4058	0	32984	
4059	0	32912	
4060	0	32878	
4061	0	32824	
4062	0	32952	
4063	0	32944	
4064	0	32444	
4065	0	32440	
4066	0	32664	
4067	0	32601	
4068	0	32484	
4069	0	32704	
4070	0	32925	
4071	0	32768	
4072	0	32784	
4073	0	32902	
4074	0	32760	
4075	0	32804	
4076	0	32508	
4077	0	32720	
4078	0	32700	
4079	0	32772	
4080	0	32570	
4081	0	33029	
4082	0	33005	
4083	0	32797	
4084	0	32812	
4085	0	32836	
4086	0	32756	
4087	0	32516	
4088	0	32784	
4089	0	32761	
4090	0	32720	
4091	0	32916	
4092	0	32876	
4093	0	32900	
4094	0	33092	
4095	0	32976	
4096	0	32792	
4097	0	32740	
4098	0	32462	
4099	0	32568	
4100	0	32977	
4101	0	32964	
4102	0	33072	
4103	0	32745	
4104	0	32808	
4105	0	32848	
4106	0	32996	
4107	0	32693	
4108	0	32692	
4109	0	32744	
4110	0	32604	
4111	0	32604	
4112	0	33108	
4113	0	33056	
4114	0	32762	
4115	0	32584	
4116	0	32704	
4117	0	32609	
4118	0	32622	
4119	0	32745	
4120	0	32764	
4121	0	33040	
4122	0	33248	
4123	0	32984	
4124	0	33136	
4125	0	32857	
4126	0	32448	
4127	0	32540	
4128	0	32545	
4129	0	32644	
4130	0	32681	
4131	0	32784	
4132	0	32872	
4133	0	32628	
4134	0	32708	
4135	0	32704	
4136	0	32676	
4137	0	32720	
4138	0	32556	
4139	0	32688	
4140	0	33388	
4141	0	33264	
4142	0	33168	
4143	0	32900	
4144	0	32748	
4145	0	32665	
4146	0	32912	
4147	0	32692	
4148	0	32522	
4149	0	32800	
4150	0	32944	
4151	0	32652	
4152	0	32696	
4153	0	32693	
4154	0	32736	
4155	0	33028	
4156	0	32812	
4157	0	32553	
4158	0	32672	
4159	0	32860	
4160	0	32796	
4161	0	32720	
4162	0	32732	
4163	0	32796	
4164	0	32785	
4165	0	32520	
4166	0	32476	
4167	0	32916	
4168	0	33014	
4169	0	32916	
4170	0	33044	
4171	0	33064	
4172	0	32760	
4173	0	32620	
4174	0	32764	
4175	0	32740	
4176	0	32996	
4177	0	33232	
4178	0	32842	
4179	0	32690	
4180	0	32613	
4181	0	32692	
4182	0	32856	
4183	0	32960	
4184	0	32904	
4185	0	32686	
4186	0	32832	
4187	0	32752	
4188	0	32612	
4189	0	32788	
4190	0	32508	
4191	0	32376	
4192	0	32732	
4193	0	33014	
4194	0	32976	
4195	0	32837	
4196	0	32648	
4197	0	32432	
4198	0	32584	
4199	0	32780	
4200	0	32732	
4201	0	33080	
4202	0	32820	
4203	0	32880	
4204	0	33076	
4205	0	33216	
4206	0	32944	
4207	0	32860	
4208	0	32773	
4209	0	32764	
4210	0	32944	
4211	0	32992	
4212	0	32782	
4213	0	32664	
4214	0	32696	
4215	0	32700	
4216	0	32568	
4217	0	32680	
4218	0	32516	
4219	0	32390	
4220	0	32688	
4221	0	32820	
4222	0	32808	
4223	0	33092	
4224	0	32896	
4225	0	32536	
4226	0	32416	
4227	0	32568	
4228	0	32660	
4229	0	32705	
4230	0	32748	
4231	0	32924	
4232	0	33168	
4233	0	32936	
4234	0	32800	
4235	0	33024	
4236	0	32896	
4237	0	32748	
4238	0	32756	
4239	0	32900	
4240	0	32900	
4241	0	33148	
4242	0	33004	
4243	0	33016	
4244	0	33176	
4245	0	32832	
4246	0	32575	
4247	0	32633	
4248	0	32692	
4249	0	32576	
4250	0	32500	
4251	0	32670	
4252	0	32868	
4253	0	32704	
4254	0	32248	
4255	0	32369	
4256	0	32600	
4257	0	32558	
4258	0	32372	
4259	0	32544	
4260	0	33142	
4261	0	32840	
4262	0	32909	
4263	0	33620	
4264	0	33328	
4265	0	32916	
4266	0	32720	
4267	0	32932	
4268	0	32964	
4269	0	32724	
4270	0	32684	
4271	0	33344	
4272	0	33356	
4273	0	32720	
4274	0	32480	
4275	0	32896	
4276	0	32729	
4277	0	32260	
4278	0	32400	
4279	0	32916	
4280	0	32877	
4281	0	32544	
4282	0	32496	
4283	0	32785	
4284	0	32894	
4285	0	32488	
4286	0	32440	
4287	0	33048	
4288	0	32892	
4289	0	32420	
4290	0	32488	
4291	0	33316	
4292	0	33112	
4293	0	32940	
4294	0	32932	
4295	0	32890	
4296	0	32848	
4297	0	32468	
4298	0	32512	
4299	0	33132	
4300	0	33061	
4301	0	32806	
4302	0	33036	
4303	0	33436	
4304	0	33056	
4305	0	32780	
4306	0	32800	
4307	0	32901	
4308	0	32214	
4309	0	32320	
4310	0	32572	
4311	0	32826	
4312	0	32780	
4313	0	32357	
4314	0	32568	
4315	0	32788	
4316	0	32428	
4317	0	31984	
4318	0	32556	
4319	0	32816	
4320	0	32820	
4321	0	32996	
4322	0	33184	
4323	0	33496	
4324	0	33196	
4325	0	32776	
4326	0	33144	
4327	0	33340	
4328	0	33146	
4329	0	32632	
4330	0	33080	
4331	0	33492	
4332	0	32960	
4333	0	32396	
4334	0	32405	
4335	0	32748	
4336	0	32412	
4337	0	32060	
4338	0	32040	
4339	0	32860	
4340	0	33001	
4341	0	32277	
4342	0	32456	
4343	0	33228	
4344	0	33144	
4345	0	32753	
4346	0	32640	
4347	0	33072	
4348	0	33201	
4349	0	32772	
4350	0	32519	
4351	0	33122	
4352	0	33504	
4353	0	32884	
4354	0	32337	
4355	0	32740	
4356	0	33056	
4357	0	32812	
4358	0	32416	
4359	0	32620	
4360	0	32966	
4361	0	33208	
4362	0	32716	
4363	0	32600	
4364	0	33224	
4365	0	33048	
4366	0	32688	
4367	0	32352	
4368	0	32944	
4369	0	32976	
4370	0	32528	
4371	0	32376	
4372	0	32582	
4373	0	32820	
4374	0	32396	
4375	0	32088	
4376	0	32453	
4377	0	32840	
4378	0	32696	
4379	0	32560	
4380	0	32940	
4381	0	33441	
4382	0	33296	
4383	0	33085	
4384	0	33032	
4385	0	33436	
4386	0	33340	
4387	0	32792	
4388	0	32632	
4389	0	33354	
4390	0	32980	
4391	0	32586	
4392	0	32604	
4393	0	32864	
4394	0	32764	
4395	0	32236	
4396	0	32248	
4397	0	32576	
4398	0	32647	
4399	0	32096	
4400	0	32120	
4401	0	32576	
4402	0	32936	
4403	0	32910	
4404	0	32800	
4405	0	33029	
4406	0	32956	
4407	0	32856	
4408	0	32709	
4409	0	32728	
4410	0	32956	
4411	0	32816	
4412	0	32800	
4413	0	33160	
4414	0	33302	
4415	0	32924	
4416	0	32692	
4417	0	32724	
4418	0	32896	
4419	0	33018	
4420	0	33165	
4421	0	33200	
4422	0	33228	
4423	0	33116	
4424	0	32844	
4425	0	32474	
4426	0	32480	
4427	0	32464	
4428	0	32455	
4429	0	32284	
4430	0	32196	
4431	0	32652	
4432	0	33040	
4433	0	32520	
4434	0	32468	
4435	0	32836	
4436	0	32720	
4437	0	32412	
4438	0	32592	
4439	0	33148	
4440	0	33072	
4441	0	33159	
4442	0	33148	
4443	0	33472	
4444	0	33476	
4445	0	33140	
4446	0	32876	
4447	0	33040	
4448	0	32920	
4449	0	32712	
4450	0	32688	
4451	0	33008	
4452	0	32718	
4453	0	32444	
4454	0	32460	
4455	0	32420	
4456	0	32452	
4457	0	32060	
4458	0	32256	
4459	0	32672	
4460	0	32708	
4461	0	32616	
4462	0	32566	
4463	0	32876	
4464	0	32869	
4465	0	32926	
4466	0	32688	
4467	0	32692	
4468	0	32882	
4469	0	33206	
4470	0	32888	
4471	0	32984	
4472	0	33244	
4473	0	33310	
4474	0	33232	
4475	0	33268	
4476	0	32912	
4477	0	32872	
4478	0	32880	
4479	0	32774	
4480	0	32696	
4481	0	32945	
4482	0	32630	
4483	0	32468	
4484	0	32722	
4485	0	32496	
4486	0	32520	
4487	0	32360	
4488	0	32532	
4489	0	32608	
4490	0	32696	
4491	0	32616	
4492	0	32532	
4493	0	32768	
4494	0	32909	
4495	0	32576	
4496	0	32752	
4497	0	32856	
4498	0	32626	
4499	0	32608	
4500	0	33004	
4501	0	33376	
4502	0	33508	
4503	0	33500	
4504	0	33349	
4505	0	33157	
4506	0	32912	
4507	0	32677	
4508	0	32697	
4509	0	33133	
4510	0	32960	
4511	0	32749	
4512	0	32745	
4513	0	32736	
4514	0	32572	
4515	0	32548	
4516	0	32124	
4517	0	32144	
4518	0	32368	
4519	0	32289	
4520	0	32544	
4521	0	32908	
4522	0	33004	
4523	0	32896	
4524	0	33032	
4525	0	32773	
4526	0	32824	
4527	0	32916	
4528	0	32842	
4529	0	32990	
4530	0	33216	
4531	0	33132	
4532	0	32934	
4533	0	33032	
4534	0	33020	
4535	0	32756	
4536	0	32601	
4537	0	32521	
4538	0	32544	
4539	0	32628	
4540	0	32740	
4541	0	32640	
4542	0	32932	
4543	0	32932	
4544	0	32785	
4545	0	32664	
4546	0	32542	
4547	0	32456	
4548	0	32604	
4549	0	32876	
4550	0	32694	
4551	0	32957	
4552	0	32996	
4553	0	32860	
4554	0	32792	
4555	0	32748	
4556	0	32608	
4557	0	32368	
4558	0	32588	
4559	0	32600	
4560	0	32760	
4561	0	33052	
4562	0	33252	
4563	0	33013	
4564	0	33120	
4565	0	32848	
4566	0	32840	
4567	0	33104	
4568	0	32936	
4569	0	32753	
4570	0	32928	
4571	0	32880	
4572	0	33012	
4573	0	32904	
4574	0	32740	
4575	0	32500	
4576	0	32665	
4577	0	32788	
4578	0	32536	
4579	0	32704	
4580	0	32956	
4581	0	32768	
4582	0	32820	
4583	0	32972	
4584	0	32852	
4585	0	32620	
4586	0	32460	
4587	0	32616	
4588	0	32952	
4589	0	32881	
4590	0	32796	
4591	0	33048	
4592	0	33016	
4593	0	32752	
4594	0	32764	
4595	0	33021	
4596	0	32784	
4597	0	32532	
4598	0	32680	
4599	0	32756	
4600	0	32744	
4601	0	32848	
4602	0	33020	
4603	0	33088	
4604	0	33116	
4605	0	32884	
4606	0	32648	
4607	0	32862	
4608	0	32748	
4609	0	32493	
4610	0	32644	
4611	0	32864	
4612	0	32760	
4613	0	32640	
4614	0	32572	
4615	0	32549	
4616	0	32500	
4617	0	32496	
4618	0	32460	
4619	0	32817	
4620	0	32780	
4621	0	32692	
4622	0	33132	
4623	0	33072	
4624	0	33104	
4625	0	33024	
4626	0	32816	
4627	0	32572	
4628	0	32604	
4629	0	32716	
4630	0	32721	
4631	0	32880	
4632	0	33165	
4633	0	32878	
4634	0	33016	
4635	0	33168	
4636	0	32856	
4637	0	32692	
4638	0	32728	
4639	0	32722	
4640	0	32728	
4641	0	32980	
4642	0	32865	
4643	0	32965	
4644	0	32884	
4645	0	32524	
4646	0	32462	
4647	0	32696	
4648	0	32324	
4649	0	32173	
4650	0	32704	
4651	0	32860	
4652	0	32800	
4653	0	32994	
4654	0	33246	
4655	0	32916	
4656	0	32676	
4657	0	32848	
4658	0	33156	
4659	0	32984	
4660	0	33028	
4661	0	32952	
4662	0	33168	
4663	0	33060	
4664	0	32684	
4665	0	33008	
4666	0	32952	
4667	0	32616	
4668	0	32164	
4669	0	32656	
4670	0	32708	
4671	0	32544	
4672	0	32664	
4673	0	32764	
4674	0	32724	
4675	0	32680	
4676	0	32652	
4677	0	32800	
4678	0	32856	
4679	0	32052	
4680	0	32484	
4681	0	32964	
4682	0	33198	
4683	0	33030	
4684	0	33268	
4685	0	33080	
4686	0	32996	
4687	0	32676	
4688	0	32736	
4689	0	32836	
4690	0	32816	
4691	0	32518	
4692	0	32672	
4693	0	32912	
4694	0	32700	
4695	0	32516	
4696	0	32848	
4697	0	32896	
4698	0	32540	
4699	0	32576	
4700	0	32584	
4701	0	32712	
4702	0	32676	
4703	0	32984	
4704	0	32968	
4705	0	33121	
4706	0	32605	
4707	0	32548	
4708	0	32652	
4709	0	32632	
4710	0	32516	
4711	0	32662	
4712	0	33309	
4713	0	32900	
4714	0	32912	
4715	0	32972	
4716	0	33164	
4717	0	33028	
4718	0	32911	
4719	0	32774	
4720	0	33172	
4721	0	33145	
4722	0	32996	
4723	0	33116	
4724	0	33352	
4725	0	32921	
4726	0	32617	
4727	0	32348	
4728	0	32416	
4729	0	32276	
4730	0	32260	
4731	0	32437	
4732	0	32609	
4733	0	32652	
4734	0	32656	
4735	0	32469	
4736	0	32726	
4737	0	32776	
4738	0	32420	
4739	0	32844	
4740	0	33140	
4741	0	33344	
4742	0	33200	
4743	0	33312	
4744	0	33324	
4745	0	33197	
4746	0	32932	
4747	0	32826	
4748	0	32964	
4749	0	32740	
4750	0	32548	
4751	0	32704	
4752	0	33068	
4753	0	32772	
4754	0	32665	
4755	0	32588	
4756	0	32690	
4757	0	32353	
4758	0	32164	
4759	0	32448	
4760	0	32744	
4761	0	32788	
4762	0	32292	
4763	0	32728	
4764	0	32996	
4765	0	32802	
4766	0	32637	
4767	0	32762	
4768	0	32844	
4769	0	32560	
4770	0	32694	
4771	0	32848	
4772	0	33256	
4773	0	33248	
4774	0	33052	
4775	0	33002	
4776	0	33296	
4777	0	32872	
4778	0	32696	
4779	0	32748	
4780	0	32848	
4781	0	32406	
4782	0	32912	
4783	0	32844	
4784	0	32784	
4785	0	32388	
4786	0	32580	
4787	0	32508	
4788	0	32628	
4789	0	32120	
4790	0	32164	
4791	0	32664	
4792	0	32704	
4793	0	32552	
4794	0	32912	
4795	0	33348	
4796	0	32840	
4797	0	32628	
4798	0	32916	
4799	0	33272	
4800	0	33200	
4801	0	32876	
4802	0	33376	
4803	0	33616	
4804	0	33256	
4805	0	32919	
4806	0	32973	
4807	0	33362	
4808	0	32672	
4809	0	32326	
4810	0	32400	
4811	0	32832	
4812	0	32512	
4813	0	32444	
4814	0	32488	
4815	0	32748	
4816	0	32576	
4817	0	32148	
4818	0	32544	
4819	0	32608	
4820	0	32444	
4821	0	32524	
4822	0	33220	
4823	0	33160	
4824	0	32768	
4825	0	32888	
4826	0	32849	
4827	0	33108	
4828	0	32668	
4829	0	32948	
4830	0	33076	
4831	0	32932	
4832	0	32654	
4833	0	33052	
4834	0	33432	
4835	0	33106	
4836	0	32297	
4837	0	32576	
4838	0	32788	
4839	0	32576	
4840	0	32144	
4841	0	32724	
4842	0	32948	
4843	0	33085	
4844	0	32452	
4845	0	32468	
4846	0	32753	
4847	0	33010	
4848	0	32292	
4849	0	32428	
4850	0	33204	
4851	0	33144	
4852	0	32772	
4853	0	32748	
4854	0	32958	
4855	0	32940	
4856	0	32800	
4857	0	32524	
4858	0	32892	
4859	0	33164	
4860	0	32724	
4861	0	32722	
4862	0	33204	
4863	0	32974	
4864	0	32620	
4865	0	32668	
4866	0	32824	
4867	0	32752	
4868	0	32722	
4869	0	32918	
4870	0	32840	
4871	0	32482	
4872	0	32568	
4873	0	32782	
4874	0	33020	
4875	0	32784	
4876	0	32736	
4877	0	33148	
4878	0	32927	
4879	0	32500	
4880	0	32884	
4881	0	33296	
4882	0	32944	
4883	0	32369	
4884	0	32656	
4885	0	32972	
4886	0	32676	
4887	0	32376	
4888	0	32564	
4889	0	32878	
4890	0	32832	
4891	0	32324	
4892	0	32356	
4893	0	32664	
4894	0	32836	
4895	0	32592	
4896	0	32832	
4897	0	33040	
4898	0	33109	
4899	0	33040	
4900	0	32904	
4901	0	32956	
4902	0	33216	
4903	0	32884	
4904	0	32884	
4905	0	33204	
4906	0	33020	
4907	0	32664	
4908	0	32672	
4909	0	32804	
4910	0	32780	
4911	0	32936	
4912	0	32777	
4913	0	32529	
4914	0	32684	
4915	0	32776	
4916	0	32641	
4917	0	32308	
4918	0	32408	
4919	0	32400	
4920	0	32593	
4921	0	32802	
4922	0	32736	
4923	0	32872	
4924	0	33140	
4925	0	32776	
4926	0	32844	
4927	0	33008	
4928	0	32829	
4929	0	32808	
4930	0	32920	
4931	0	33188	
4932	0	33264	
4933	0	33256	
4934	0	33052	
4935	0	33136	
4936	0	32894	
4937	0	32596	
4938	0	32164	
4939	0	32588	
4940	0	32856	
4941	0	32636	
4942	0	32508	
4943	0	32704	
4944	0	32660	
4945	0	32436	
4946	0	32202	
4947	0	32436	
4948	0	32805	
4949	0	32868	
4950	0	32776	
4951	0	33352	
4952	0	33268	
4953	0	32958	
4954	0	32826	
4955	0	33044	
4956	0	33116	
4957	0	32912	
4958	0	32768	
4959	0	32553	
4960	0	32884	
4961	0	32856	
4962	0	32760	
4963	0	32852	
4964	0	32804	
4965	0	32512	
4966	0	32628	
4967	0	32669	
4968	0	32688	
4969	0	32520	
4970	0	32728	
4971	0	32860	
4972	0	32900	
4973	0	32878	
4974	0	32841	
4975	0	32789	
4976	0	32772	
4977	0	32732	
4978	0	32628	
4979	0	33052	
4980	0	32844	
4981	0	32736	
4982	0	33092	
4983	0	32896	
4984	0	32828	
4985	0	32696	
4986	0	32808	
4987	0	32828	
4988	0	32837	
4989	0	32728	
4990	0	32880	
4991	0	33056	
4992	0	33028	
4993	0	32852	
4994	0	32828	
4995	0	32848	
4996	0	32452	
4997	0	32524	
4998	0	32640	
4999	0	32438	
5000	0	32484	
5001	0	32637	
5002	0	32684	
5003	0	32868	
5004	0	33032	
5005	0	32748	
5006	0	32720	
5007	0	32896	
5008	0	32809	
5009	0	32956	
5010	0	33064	
5011	0	32837	
5012	0	32796	
5013	0	33004	
5014	0	32929	
5015	0	32780	
5016	0	32740	
5017	0	32660	
5018	0	32612	
5019	0	32596	
5020	0	32512	
5021	0	32672	
5022	0	32804	
5023	0	32812	
5024	0	32672	
5025	0	32962	
5026	0	32983	
5027	0	32840	
5028	0	32844	
5029	0	32918	
5030	0	32940	
5031	0	33104	
5032	0	33141	
5033	0	32975	
5034	0	33040	
5035	0	32773	
5036	0	32528	
5037	0	32576	
5038	0	32580	
5039	0	32592	
5040	0	32460	
5041	0	32356	
5042	0	32508	
5043	0	33020	
5044	0	33159	
5045	0	32612	
5046	0	32576	
5047	0	33240	
5048	0	32872	
5049	0	32420	
5050	0	32812	
5051	0	33436	
5052	0	33120	
5053	0	32592	
5054	0	32924	
5055	0	33144	
5056	0	32890	
5057	0	32060	
5058	0	32724	
5059	0	32977	
5060	0	32360	
5061	0	32180	
5062	0	33376	
5063	0	33097	
5064	0	32188	
5065	0	32492	
5066	0	33204	
5067	0	32808	
5068	0	31844	
5069	0	32556	
5070	0	33432	
5071	0	33234	
5072	0	32544	
5073	0	32780	
5074	0	33740	
5075	0	33016	
5076	0	31936	
5077	0	32526	
5078	0	33584	
5079	0	32656	
5080	0	32192	
5081	0	33144	
5082	0	33557	
5083	0	32892	
5084	0	32280	
5085	0	32888	
5086	0	33196	
5087	0	32200	
5088	0	31992	
5089	0	32797	
5090	0	33072	
5091	0	32400	
5092	0	32544	
5093	0	33628	
5094	0	33100	
5095	0	32480	
5096	0	32588	
5097	0	33472	
5098	0	32964	
5099	0	32524	
5100	0	32672	
5101	0	33488	
5102	0	33244	
5103	0	32160	
5104	0	32538	
5105	0	33152	
5106	0	32864	
5107	0	32100	
5108	0	32176	
5109	0	33068	
5110	0	32708	
5111	0	32456	
5112	0	32376	
5113	0	33184	
5114	0	32980	
5115	0	32632	
5116	0	32448	
5117	0	33260	
5118	0	33105	
5119	0	32816	
5120	0	32868	
5121	0	33428	
5122	0	33140	
5123	0	32876	
5124	0	32796	
5125	0	32683	
5126	0	33001	
5127	0	32536	
5128	0	32042	
5129	0	32372	
5130	0	33154	
5131	0	32908	
5132	0	32292	
5133	0	32712	
5134	0	32976	
5135	0	33068	
5136	0	32625	
5137	0	32244	
5138	0	32892	
5139	0	33016	
5140	0	32408	
5141	0	32101	
5142	0	32993	
5143	0	33510	
5144	0	32896	
5145	0	32692	
5146	0	32925	
5147	0	33364	
5148	0	32928	
5149	0	32334	
5150	0	32736	
5151	0	33396	
5152	0	33188	
5153	0	32488	
5154	0	33197	
5155	0	33284	
5156	0	32860	
5157	0	32216	
5158	0	32348	
5159	0	32620	
5160	0	32600	
5161	0	32318	
5162	0	32397	
5163	0	32948	
5164	0	32920	
5165	0	32204	
5166	0	32384	
5167	0	32980	
5168	0	32856	
5169	0	32364	
5170	0	32669	
5171	0	33382	
5172	0	33572	
5173	0	33200	
5174	0	32836	
5175	0	33220	
5176	0	33300	
5177	0	32684	
5178	0	32428	
5179	0	32702	
5180	0	32900	
5181	0	32765	
5182	0	32392	
5183	0	32536	
5184	0	32992	
5185	0	33045	
5186	0	32332	
5187	0	32452	
5188	0	32772	
5189	0	32783	
5190	0	32496	
5191	0	32710	
5192	0	33032	
5193	0	33252	
5194	0	32970	
5195	0	32624	
5196	0	32709	
5197	0	32720	
5198	0	32560	
5199	0	32260	
5200	0	32680	
5201	0	32985	
5202	0	32972	
5203	0	32888	
5204	0	32940	
5205	0	32948	
5206	0	32868	
5207	0	32860	
5208	0	32724	
5209	0	33012	
5210	0	33032	
5211	0	32994	
5212	0	33180	
5213	0	33145	
5214	0	33053	
5215	0	32420	
5216	0	32464	
5217	0	32336	
5218	0	32728	
5219	0	32756	
5220	0	32412	
5221	0	32741	
5222	0	32904	
5223	0	33168	
5224	0	32709	
5225	0	32704	
5226	0	32808	
5227	0	32600	
5228	0	32644	
5229	0	32775	
5230	0	33008	
5231	0	32804	
5232	0	32964	
5233	0	32720	
5234	0	32808	
5235	0	32780	
5236	0	32636	
5237	0	32736	
5238	0	32864	
5239	0	33068	
5240	0	32824	
5241	0	33176	
5242	0	33212	
5243	0	33040	
5244	0	32576	
5245	0	32620	
5246	0	32924	
5247	0	32520	
5248	0	32640	
5249	0	32568	
5250	0	32900	
5251	0	32568	
5252	0	32552	
5253	0	32920	
5254	0	33004	
5255	0	32856	
5256	0	32590	
5257	0	32988	
5258	0	32788	
5259	0	32742	
5260	0	32960	
5261	0	33012	
5262	0	33284	
5263	0	32728	
5264	0	32968	
5265	0	33001	
5266	0	32660	
5267	0	32116	
5268	0	32608	
5269	0	32948	
5270	0	32172	
5271	0	32456	
5272	0	32881	
5273	0	33053	
5274	0	32736	
5275	0	32664	
5276	0	33173	
5277	0	32916	
5278	0	32844	
5279	0	32740	
5280	0	33360	
5281	0	33084	
5282	0	33128	
5283	0	33181	
5284	0	33373	
5285	0	32690	
5286	0	32292	
5287	0	32720	
5288	0	32712	
5289	0	32268	
5290	0	32248	
5291	0	32832	
5292	0	32838	
5293	0	32234	
5294	0	32424	
5295	0	32849	
5296	0	32792	
5297	0	32300	
5298	0	32456	
5299	0	33152	
5300	0	33024	
5301	0	32906	
5302	0	33124	
5303	0	33532	
5304	0	32898	
5305	0	32968	
5306	0	33242	
5307	0	32676	
5308	0	32576	
5309	0	32744	
5310	0	33208	
5311	0	32924	
5312	0	32828	
5313	0	32704	
5314	0	32992	
5315	0	32564	
5316	0	32296	
5317	0	32528	
5318	0	32826	
5319	0	32572	
5320	0	32657	
5321	0	33312	
5322	0	32976	
5323	0	32616	
5324	0	32708	
5325	0	32724	
5326	0	32178	
5327	0	32460	
5328	0	32749	
5329	0	33060	
5330	0	32932	
5331	0	32784	
5332	0	33196	
5333	0	33376	
5334	0	32732	
5335	0	32560	
5336	0	32996	
5337	0	32881	
5338	0	32728	
5339	0	32762	
5340	0	33231	
5341	0	32700	
5342	0	32872	
5343	0	33064	
5344	0	32900	
5345	0	32436	
5346	0	32560	
5347	0	32608	
5348	0	32684	
5349	0	32512	
5350	0	32488	
5351	0	33244	
5352	0	32748	
5353	0	32268	
5354	0	32500	
5355	0	32828	
5356	0	32568	
5357	0	32458	
5358	0	32900	
5359	0	33164	
5360	0	32640	
5361	0	33125	
5362	0	33117	
5363	0	33042	
5364	0	32852	
5365	0	32684	
5366	0	32852	
5367	0	33033	
5368	0	32712	
5369	0	32544	
5370	0	33472	
5371	0	33036	
5372	0	32768	
5373	0	32988	
5374	0	33053	
5375	0	32820	
5376	0	32456	
5377	0	32320	
5378	0	32584	
5379	0	32782	
5380	0	32408	
5381	0	32366	
5382	0	32584	
5383	0	32868	
5384	0	32617	
5385	0	32620	
5386	0	32596	
5387	0	32708	
5388	0	32988	
5389	0	32888	
5390	0	32836	
5391	0	33128	
5392	0	33546	
5393	0	33232	
5394	0	33080	
5395	0	32960	
5396	0	32816	
5397	0	32848	
5398	0	32744	
5399	0	32480	
5400	0	32716	
5401	0	32768	
5402	0	32829	
5403	0	32672	
5404	0	32840	
5405	0	32520	
5406	0	32604	
5407	0	32424	
5408	0	32320	
5409	0	32664	
5410	0	32868	
5411	0	32864	
5412	0	32952	
5413	0	33196	
5414	0	32748	
5415	0	32716	
5416	0	32984	
5417	0	32738	
5418	0	32440	
5419	0	32692	
5420	0	32740	
5421	0	32892	
5422	0	33076	
5423	0	32932	
5424	0	32752	
5425	0	33136	
5426	0	32774	
5427	0	32272	
5428	0	32540	
5429	0	32836	
5430	0	32853	
5431	0	32884	
5432	0	33224	
5433	0	33258	
5434	0	33334	
5435	0	32892	
5436	0	32556	
5437	0	32744	
5438	0	32732	
5439	0	32422	
5440	0	32530	
5441	0	32870	
5442	0	32848	
5443	0	32860	
5444	0	32944	
5445	0	32820	
5446	0	32648	
5447	0	32464	
5448	0	32316	
5449	0	32590	
5450	0	32540	
5451	0	32828	
5452	0	33028	
5453	0	33318	
5454	0	32916	
5455	0	32812	
5456	0	32744	
5457	0	32652	
5458	0	32508	
5459	0	32688	
5460	0	32888	
5461	0	32792	
5462	0	32965	
5463	0	33002	
5464	0	32928	
5465	0	33036	
5466	0	32800	
5467	0	32752	
5468	0	32746	
5469	0	32688	
5470	0	32700	
5471	0	32978	
5472	0	33224	
5473	0	32832	
5474	0	32940	
5475	0	32880	
5476	0	32754	
5477	0	32414	
5478	0	32321	
5479	0	32382	
5480	0	32566	
5481	0	32833	
5482	0	32321	
5483	0	32748	
5484	0	32964	
5485	0	32868	
5486	0	32564	
5487	0	32773	
5488	0	33252	
5489	0	32836	
5490	0	32801	
5491	0	33040	
5492	0	33472	
5493	0	33420	
5494	0	32772	
5495	0	32688	
5496	0	32960	
5497	0	32832	
5498	0	32320	
5499	0	32302	
5500	0	32924	
5501	0	32741	
5502	0	32242	
5503	0	32545	
5504	0	33100	
5505	0	33004	
5506	0	32236	
5507	0	32577	
5508	0	33112	
5509	0	33010	
5510	0	32668	
5511	0	32860	
5512	0	33612	
5513	0	33280	
5514	0	32796	
5515	0	32572	
5516	0	32808	
5517	0	32992	
5518	0	32348	
5519	0	32324	
5520	0	32818	
5521	0	32901	
5522	0	32504	
5523	0	32568	
5524	0	33220	
5525	0	32806	
5526	0	32640	
5527	0	32860	
5528	0	33252	
5529	0	32892	
5530	0	32476	
5531	0	32932	
5532	0	33136	
5533	0	33192	
5534	0	32488	
5535	0	32464	
5536	0	32972	
5537	0	32612	
5538	0	32333	
5539	0	32590	
5540	0	33068	
5541	0	32520	
5542	0	32492	
5543	0	32796	
5544	0	32921	
5545	0	33028	
5546	0	32808	
5547	0	32724	
5548	0	33232	
5549	0	32524	
5550	0	32616	
5551	0	33088	
5552	0	33384	
5553	0	32752	
5554	0	32864	
5555	0	33220	
5556	0	33020	
5557	0	32440	
5558	0	32176	
5559	0	32596	
5560	0	32996	
5561	0	32732	
5562	0	32584	
5563	0	32912	
5564	0	33278	
5565	0	32448	
5566	0	32353	
5567	0	32780	
5568	0	32868	
5569	0	32472	
5570	0	32208	
5571	0	32508	
5572	0	33036	
5573	0	32868	
5574	0	32812	
5575	0	33104	
5576	0	33192	
5577	0	32768	
5578	0	32612	
5579	0	33140	
5580	0	33104	
5581	0	32820	
5582	0	32764	
5583	0	33104	
5584	0	33160	
5585	0	33180	
5586	0	32740	
5587	0	32629	
5588	0	32968	
5589	0	32604	
5590	0	32077	
5591	0	32436	
5592	0	32888	
5593	0	32900	
5594	0	32330	
5595	0	32464	
5596	0	32777	
5597	0	32790	
5598	0	32238	
5599	0	32304	
5600	0	33096	
5601	0	33264	
5602	0	32886	
5603	0	32696	
5604	0	33484	
5605	0	33370	
5606	0	32780	
5607	0	32462	
5608	0	32924	
5609	0	33336	
5610	0	32549	
5611	0	31972	
5612	0	32569	
5613	0	33400	
5614	0	32832	
5615	0	32202	
5616	0	32680	
5617	0	33200	
5618	0	32714	
5619	0	32176	
5620	0	32668	
5621	0	33744	
5622	0	33196	
5623	0	32240	
5624	0	32712	
5625	0	33764	
5626	0	32992	
5627	0	31968	
5628	0	32360	
5629	0	33320	
5630	0	33020	
5631	0	31832	
5632	0	32152	
5633	0	33444	
5634	0	33372	
5635	0	32082	
5636	0	32200	
5637	0	33696	
5638	0	33448	
5639	0	32350	
5640	0	32180	
5641	0	33520	
5642	0	33513	
5643	0	32804	
5644	0	32380	
5645	0	33278	
5646	0	33769	
5647	0	32729	
5648	0	31968	
5649	0	32840	
5650	0	33540	
5651	0	32250	
5652	0	31676	
5653	0	32662	
5654	0	33456	
5655	0	32709	
5656	0	31673	
5657	0	32332	
5658	0	33481	
5659	0	32910	
5660	0	31844	
5661	0	32580	
5662	0	33935	
5663	0	33416	
5664	0	32162	
5665	0	32520	
5666	0	33569	
5667	0	33336	
5668	0	32124	
5669	0	32064	
5670	0	33140	
5671	0	33468	
5672	0	32296	
5673	0	32208	
5674	0	33312	
5675	0	33476	
5676	0	32689	
5677	0	32025	
5678	0	32718	
5679	0	33296	
5680	0	32728	
5681	0	32161	
5682	0	32780	
5683	0	33956	
5684	0	33244	
5685	0	32184	
5686	0	32648	
5687	0	33328	
5688	0	32856	
5689	0	32048	
5690	0	32476	
5691	0	33230	
5692	0	33252	
5693	0	32352	
5694	0	32080	
5695	0	32961	
5696	0	33264	
5697	0	32288	
5698	0	32160	
5699	0	32704	
5700	0	33222	
5701	0	32888	
5702	0	32482	
5703	0	32836	
5704	0	33502	
5705	0	32986	
5706	0	32240	
5707	0	32644	
5708	0	33660	
5709	0	33036	
5710	0	32232	
5711	0	32724	
5712	0	33424	
5713	0	33196	
5714	0	32660	
5715	0	32394	
5716	0	32992	
5717	0	32928	
5718	0	32120	
5719	0	32260	
5720	0	33020	
5721	0	33148	
5722	0	32564	
5723	0	32504	
5724	0	33040	
5725	0	33274	
5726	0	32764	
5727	0	32156	
5728	0	32687	
5729	0	33172	
5730	0	32872	
5731	0	32448	
5732	0	33088	
5733	0	33428	
5734	0	32784	
5735	0	32556	
5736	0	32892	
5737	0	32952	
5738	0	32726	
5739	0	32252	
5740	0	32480	
5741	0	33284	
5742	0	33272	
5743	0	32776	
5744	0	32688	
5745	0	32837	
5746	0	32832	
5747	0	32448	
5748	0	32372	
5749	0	32632	
5750	0	32780	
5751	0	32805	
5752	0	32536	
5753	0	32712	
5754	0	33248	
5755	0	32925	
5756	0	32586	
5757	0	32750	
5758	0	32812	
5759	0	32893	
5760	0	32888	
5761	0	32636	
5762	0	33000	
5763	0	33369	
5764	0	32880	
5765	0	32868	
5766	0	32860	
5767	0	32840	
5768	0	32616	
5769	0	32504	
5770	0	32736	
5771	0	32960	
5772	0	32972	
5773	0	32714	
5774	0	32632	
5775	0	32728	
5776	0	32356	
5777	0	32366	
5778	0	32580	
5779	0	32748	
5780	0	32584	
5781	0	32744	
5782	0	32813	
5783	0	32996	
5784	0	33328	
5785	0	32932	
5786	0	32688	
5787	0	32736	
5788	0	32837	
5789	0	32456	
5790	0	32721	
5791	0	32921	
5792	0	32852	
5793	0	33000	
5794	0	33188	
5795	0	32832	
5796	0	32796	
5797	0	32672	
5798	0	32488	
5799	0	32904	
5800	0	33126	
5801	0	32952	
5802	0	32844	
5803	0	33040	
5804	0	32848	
5805	0	32564	
5806	0	32540	
5807	0	32584	
5808	0	32456	
5809	0	32516	
5810	0	32544	
5811	0	32536	
5812	0	32924	
5813	0	33120	
5814	0	32824	
5815	0	32953	
5816	0	32804	
5817	0	32620	
5818	0	32852	
5819	0	33188	
5820	0	33092	
5821	0	32908	
5822	0	33213	
5823	0	33388	
5824	0	33188	
5825	0	32796	
5826	0	32588	
5827	0	32696	
5828	0	32336	
5829	0	32424	
5830	0	32608	
5831	0	32628	
5832	0	32676	
5833	0	32740	
5834	0	32592	
5835	0	32552	
5836	0	32774	
5837	0	32524	
5838	0	32452	
5839	0	32778	
5840	0	32828	
5841	0	32640	
5842	0	32933	
5843	0	33209	
5844	0	32912	
5845	0	32805	
5846	0	33052	
5847	0	32820	
5848	0	32696	
5849	0	33000	
5850	0	33068	
5851	0	33032	
5852	0	33216	
5853	0	33136	
5854	0	32896	
5855	0	32749	
5856	0	32557	
5857	0	32404	
5858	0	32412	
5859	0	32406	
5860	0	32404	
5861	0	32641	
5862	0	32804	
5863	0	32858	
5864	0	32784	
5865	0	32912	
5866	0	32736	
5867	0	32200	
5868	0	32476	
5869	0	32516	
5870	0	32880	
5871	0	33144	
5872	0	32996	
5873	0	32928	
5874	0	33152	
5875	0	32856	
5876	0	32856	
5877	0	32962	
5878	0	32932	
5879	0	32886	
5880	0	33044	
5881	0	33084	
5882	0	33002	
5883	0	32894	
5884	0	32724	
5885	0	32560	
5886	0	32625	
5887	0	32592	
5888	0	32372	
5889	0	32664	
5890	0	32721	
5891	0	32784	
5892	0	32880	
5893	0	32870	
5894	0	32784	
5895	0	32688	
5896	0	32428	
5897	0	32601	
5898	0	32932	
5899	0	32860	
5900	0	32929	
5901	0	33260	
5902	0	32920	
5903	0	32720	
5904	0	32880	
5905	0	32880	
5906	0	32700	
5907	0	32456	
5908	0	32748	
5909	0	32704	
5910	0	32634	
5911	0	32708	
5912	0	32832	
5913	0	33152	
5914	0	32976	
5915	0	32628	
5916	0	32844	
5917	0	32836	
5918	0	32444	
5919	0	32424	
5920	0	32636	
5921	0	32616	
5922	0	32586	
5923	0	32741	
5924	0	32684	
5925	0	32784	
5926	0	32888	
5927	0	32872	
5928	0	32832	
5929	0	32968	
5930	0	32828	
5931	0	32712	
5932	0	33084	
5933	0	33134	
5934	0	33064	
5935	0	33132	
5936	0	32896	
5937	0	32592	
5938	0	32720	
5939	0	32668	
5940	0	32668	
5941	0	32612	
5942	0	32640	
5943	0	32656	
5944	0	32848	
5945	0	32908	
5946	0	32836	
5947	0	32836	
5948	0	32868	
5949	0	32516	
5950	0	32630	
5951	0	32684	
5952	0	32804	
5953	0	33128	
5954	0	33209	
5955	0	32940	
5956	0	33024	
5957	0	32908	
5958	0	32778	
5959	0	32681	
5960	0	32760	
5961	0	32630	
5962	0	32816	
5963	0	32846	
5964	0	32948	
5965	0	32764	
5966	0	32664	
5967	0	32596	
5968	0	32604	
5969	0	32730	
5970	0	32516	
5971	0	32533	
5972	0	32864	
5973	0	33036	
5974	0	33200	
5975	0	33148	
5976	0	32909	
5977	0	32840	
5978	0	32697	
5979	0	32584	
5980	0	32608	
5981	0	32920	
5982	0	32750	
5983	0	32736	
5984	0	32688	
5985	0	32656	
5986	0	32680	
5987	0	32616	
5988	0	32668	
5989	0	32661	
5990	0	32784	
5991	0	32870	
5992	0	32784	
5993	0	33180	
5994	0	33110	
5995	0	32752	
5996	0	32740	
5997	0	32657	
5998	0	32450	
5999	0	32742	
6000	0	32880	
6001	0	32704	
6002	0	32872	
6003	0	33142	
6004	0	32948	
6005	0	32774	
6006	0	32756	
6007	0	32700	
6008	0	32796	
6009	0	32792	
6010	0	32644	
6011	0	32680	
6012	0	33076	
6013	0	33076	
6014	0	32936	
6015	0	33144	
6016	0	32740	
6017	0	32624	
6018	0	32412	
6019	0	32444	
6020	0	32596	
6021	0	32824	
6022	0	32860	
6023	0	32862	
6024	0	33048	
6025	0	32744	
6026	0	32670	
6027	0	32888	
6028	0	32788	
6029	0	32808	
6030	0	32636	
6031	0	32676	
6032	0	32976	
6033	0	33084	
6034	0	32916	
6035	0	32768	
6036	0	32664	
6037	0	32433	
6038	0	32529	
6039	0	32828	
6040	0	32948	
6041	0	32736	
6042	0	33169	
6043	0	33232	
6044	0	32808	
6045	0	32668	
6046	0	32600	
6047	0	32668	
6048	0	32522	
6049	0	32868	
6050	0	32824	
6051	0	33112	
6052	0	33022	
6053	0	32834	
6054	0	32896	
6055	0	32740	
6056	0	32524	
6057	0	32521	
6058	0	32726	
6059	0	32493	
6060	0	32584	
6061	0	32908	
6062	0	33188	
6063	0	33084	
6064	0	33076	
6065	0	32756	
6066	0	32632	
6067	0	32672	
6068	0	32744	
6069	0	32900	
6070	0	32890	
6071	0	32816	
6072	0	32760	
6073	0	32900	
6074	0	32844	
6075	0	32672	
6076	0	32448	
6077	0	32644	
6078	0	32744	
6079	0	32632	
6080	0	32758	
6081	0	32768	
6082	0	33040	
6083	0	33056	
6084	0	32894	
6085	0	32866	
6086	0	32769	
6087	0	32644	
6088	0	32844	
6089	0	32800	
6090	0	32785	
6091	0	32857	
6092	0	32840	
6093	0	32688	
6094	0	32660	
6095	0	32664	
6096	0	32733	
6097	0	33000	
6098	0	33076	
6099	0	32868	
6100	0	32768	
6101	0	33032	
6102	0	32888	
6103	0	32812	
6104	0	32864	
6105	0	32432	
6106	0	32369	
6107	0	32516	
6108	0	32553	
6109	0	32732	
6110	0	32852	
6111	0	32664	
6112	0	32656	
6113	0	33062	
6114	0	32914	
6115	0	32864	
6116	0	33098	
6117	0	32920	
6118	0	32768	
6119	0	32992	
6120	0	33024	
6121	0	32936	
6122	0	32928	
6123	0	33110	
6124	0	32976	
6125	0	33037	
6126	0	32864	
6127	0	32408	
6128	0	32510	
6129	0	32528	
6130	0	32388	
6131	0	32584	
6132	0	32784	
6133	0	32821	
6134	0	32796	
6135	0	32784	
6136	0	32712	
6137	0	32796	
6138	0	32852	
6139	0	32452	
6140	0	32420	
6141	0	32828	
6142	0	33033	
6143	0	33016	
6144	0	32836	
6145	0	32896	
6146	0	33029	
6147	0	32816	
6148	0	32696	
6149	0	32656	
6150	0	33192	
6151	0	33012	
6152	0	32716	
6153	0	33150	
6154	0	33424	
6155	0	32912	
6156	0	32482	
6157	0	32316	
6158	0	32800	
6159	0	32850	
6160	0	32340	
6161	0	32448	
6162	0	33448	
6163	0	33148	
6164	0	32664	
6165	0	32452	
6166	0	32632	
6167	0	32568	
6168	0	32292	
6169	0	32200	
6170	0	32632	
6171	0	33164	
6172	0	32948	
6173	0	32728	
6174	0	32884	
6175	0	33224	
6176	0	32852	
6177	0	32514	
6178	0	32673	
6179	0	33124	
6180	0	33124	
6181	0	32760	
6182	0	32588	
6183	0	33125	
6184	0	33276	
6185	0	32684	
6186	0	32236	
6187	0	32768	
6188	0	32976	
6189	0	32852	
6190	0	32940	
6191	0	33284	
6192	0	33318	
6193	0	33060	
6194	0	32692	
6195	0	32777	
6196	0	32918	
6197	0	32361	
6198	0	32014	
6199	0	32508	
6200	0	32704	
6201	0	32367	
6202	0	32584	
6203	0	32773	
6204	0	32942	
6205	0	32582	
6206	0	32512	
6207	0	32816	
6208	0	32992	
6209	0	33156	
6210	0	32952	
6211	0	33464	
6212	0	33504	
6213	0	33069	
6214	0	33040	
6215	0	33016	
6216	0	32952	
6217	0	32596	
6218	0	32349	
6219	0	32413	
6220	0	32630	
6221	0	32464	
6222	0	32129	
6223	0	32576	
6224	0	32754	
6225	0	32248	
6226	0	32468	
6227	0	32812	
6228	0	32782	
6229	0	32548	
6230	0	32824	
6231	0	33320	
6232	0	33377	
6233	0	33040	
6234	0	33200	
6235	0	33164	
6236	0	33113	
6237	0	32536	
6238	0	32940	
6239	0	33276	
6240	0	32662	
6241	0	32436	
6242	0	33140	
6243	0	32978	
6244	0	32344	
6245	0	32616	
6246	0	32820	
6247	0	32516	
6248	0	32140	
6249	0	32792	
6250	0	32920	
6251	0	32670	
6252	0	32700	
6253	0	33060	
6254	0	33156	
6255	0	32437	
6256	0	32677	
6257	0	32968	
6258	0	32796	
6259	0	32216	
6260	0	32924	
6261	0	33412	
6262	0	32885	
6263	0	32544	
6264	0	33066	
6265	0	33112	
6266	0	32640	
6267	0	32780	
6268	0	33004	
6269	0	32792	
6270	0	32356	
6271	0	32797	
6272	0	33034	
6273	0	32948	
6274	0	32473	
6275	0	32816	
6276	0	32930	
6277	0	32244	
6278	0	32470	
6279	0	32900	
6280	0	32516	
6281	0	32544	
6282	0	33122	
6283	0	33168	
6284	0	32528	
6285	0	32784	
6286	0	32964	
6287	0	32768	
6288	0	32208	
6289	0	32908	
6290	0	32988	
6291	0	32740	
6292	0	32680	
6293	0	33297	
6294	0	33340	
6295	0	32636	
6296	0	32796	
6297	0	33024	
6298	0	32620	
6299	0	32118	
6300	0	32889	
6301	0	33248	
6302	0	32884	
6303	0	32612	
6304	0	33208	
6305	0	32856	
6306	0	32364	
6307	0	32600	
6308	0	33125	
6309	0	32416	
6310	0	32164	
6311	0	32928	
6312	0	33346	
6313	0	32840	
6314	0	32616	
6315	0	33144	
6316	0	33038	
6317	0	32232	
6318	0	32516	
6319	0	33332	
6320	0	32961	
6321	0	32280	
6322	0	32988	
6323	0	33388	
6324	0	32744	
6325	0	32320	
6326	0	33032	
6327	0	33164	
6328	0	32332	
6329	0	32364	
6330	0	33056	
6331	0	33018	
6332	0	32444	
6333	0	32668	
6334	0	33388	
6335	0	32804	
6336	0	32088	
6337	0	32840	
6338	0	33208	
6339	0	32364	
6340	0	32350	
6341	0	33134	
6342	0	33101	
6343	0	32566	
6344	0	32564	
6345	0	32964	
6346	0	32720	
6347	0	32148	
6348	0	32760	
6349	0	33185	
6350	0	32548	
6351	0	32536	
6352	0	33440	
6353	0	33344	
6354	0	32884	
6355	0	32938	
6356	0	33372	
6357	0	32636	
6358	0	32308	
6359	0	32838	
6360	0	33176	
6361	0	32512	
6362	0	32580	
6363	0	32912	
6364	0	32778	
6365	0	32268	
6366	0	32298	
6367	0	32904	
6368	0	32656	
6369	0	32334	
6370	0	32736	
6371	0	33284	
6372	0	32860	
6373	0	32808	
6374	0	33584	
6375	0	33184	
6376	0	32548	
6377	0	32812	
6378	0	33144	
6379	0	32644	
6380	0	32572	
6381	0	33164	
6382	0	33218	
6383	0	32712	
6384	0	32472	
6385	0	32808	
6386	0	32828	
6387	0	32204	
6388	0	32376	
6389	0	33070	
6390	0	32732	
6391	0	32296	
6392	0	32936	
6393	0	33332	
6394	0	32832	
6395	0	32364	
6396	0	32962	
6397	0	32732	
6398	0	32188	
6399	0	32548	
6400	0	33201	
6401	0	33304	
6402	0	32692	
6403	0	32676	
6404	0	33304	
6405	0	33012	
6406	0	32256	
6407	0	32641	
6408	0	33200	
6409	0	32673	
6410	0	32312	
6411	0	32814	
6412	0	33176	
6413	0	32816	
6414	0	32616	
6415	0	32788	
6416	0	32928	
6417	0	32886	
6418	0	32736	
6419	0	32780	
6420	0	32985	
6421	0	33018	
6422	0	32604	
6423	0	32857	
6424	0	33156	
6425	0	32868	
6426	0	32540	
6427	0	32512	
6428	0	32676	
6429	0	33060	
6430	0	32916	
6431	0	32580	
6432	0	32980	
6433	0	33232	
6434	0	32944	
6435	0	32648	
6436	0	32828	
6437	0	32676	
6438	0	32680	
6439	0	32424	
6440	0	32380	
6441	0	32869	
6442	0	32972	
6443	0	32712	
6444	0	32524	
6445	0	32884	
6446	0	33020	
6447	0	32676	
6448	0	32532	
6449	0	33056	
6450	0	33320	
6451	0	33076	
6452	0	32513	
6453	0	32945	
6454	0	33600	
6455	0	32736	
6456	0	32124	
6457	0	32564	
6458	0	32949	
6459	0	32360	
6460	0	32084	
6461	0	32537	
6462	0	33032	
6463	0	33036	
6464	0	32224	
6465	0	32408	
6466	0	33084	
6467	0	32940	
6468	0	32656	
6469	0	32830	
6470	0	33356	
6471	0	33512	
6472	0	32930	
6473	0	32760	
6474	0	33264	
6475	0	33466	
6476	0	32908	
6477	0	32280	
6478	0	32552	
6479	0	33052	
6480	0	32604	
6481	0	32192	
6482	0	32672	
6483	0	33204	
6484	0	32672	
6485	0	32056	
6486	0	32126	
6487	0	33108	
6488	0	32720	
6489	0	32015	
6490	0	32521	
6491	0	33524	
6492	0	33160	
6493	0	32620	
6494	0	32916	
6495	0	33666	
6496	0	33185	
6497	0	32644	
6498	0	32632	
6499	0	33332	
6500	0	33280	
6501	0	32612	
6502	0	32660	
6503	0	33294	
6504	0	33160	
6505	0	32417	
6506	0	32428	
6507	0	32536	
6508	0	32490	
6509	0	32320	
6510	0	32536	
6511	0	32782	
6512	0	33030	
6513	0	32857	
6514	0	32340	
6515	0	32612	
6516	0	32944	
6517	0	32848	
6518	0	32736	
6519	0	32768	
6520	0	32772	
6521	0	33120	
6522	0	33044	
6523	0	32892	
6524	0	32916	
6525	0	32936	
6526	0	32664	
6527	0	32572	
6528	0	32876	
6529	0	32912	
6530	0	32996	
6531	0	32892	
6532	0	32804	
6533	0	32888	
6534	0	32876	
6535	0	32520	
6536	0	32364	
6537	0	32558	
6538	0	32664	
6539	0	32524	
6540	0	32596	
6541	0	32693	
6542	0	32864	
6543	0	33134	
6544	0	32902	
6545	0	32736	
6546	0	32832	
6547	0	32836	
6548	0	32578	
6549	0	32640	
6550	0	32924	
6551	0	33264	
6552	0	33149	
6553	0	32854	
6554	0	32716	
6555	0	33056	
6556	0	32792	
6557	0	32464	
6558	0	32676	
6559	0	33240	
6560	0	32836	
6561	0	32656	
6562	0	32668	
6563	0	33312	
6564	0	33136	
6565	0	32320	
6566	0	32100	
6567	0	32816	
6568	0	32860	
6569	0	32284	
6570	0	32420	
6571	0	33262	
6572	0	33297	
6573	0	32856	
6574	0	32572	
6575	0	32868	
6576	0	33273	
6577	0	32868	
6578	0	32264	
6579	0	32590	
6580	0	33380	
6581	0	32780	
6582	0	32248	
6583	0	32800	
6584	0	33273	
6585	0	32812	
6586	0	32369	
6587	0	32314	
6588	0	32876	
6589	0	32925	
6590	0	32512	
6591	0	32533	
6592	0	33448	
6593	0	33448	
6594	0	32894	
6595	0	32508	
6596	0	32869	
6597	0	33156	
6598	0	32976	
6599	0	32664	
6600	0	32592	
6601	0	33121	
6602	0	33025	
6603	0	32464	
6604	0	32649	
6605	0	33068	
6606	0	32564	
6607	0	31984	
6608	0	31998	
6609	0	32600	
6610	0	32884	
6611	0	32880	
6612	0	32664	
6613	0	32836	
6614	0	33012	
6615	0	32780	
6616	0	32676	
6617	0	32944	
6618	0	33094	
6619	0	32948	
6620	0	32796	
6621	0	32968	
6622	0	33244	
6623	0	33084	
6624	0	32664	
6625	0	32640	
6626	0	33250	
6627	0	32864	
6628	0	32540	
6629	0	32636	
6630	0	32916	
6631	0	32948	
6632	0	32684	
6633	0	32864	
6634	0	33096	
6635	0	33064	
6636	0	32636	
6637	0	32272	
6638	0	32576	
6639	0	32840	
6640	0	32578	
6641	0	32588	
6642	0	32824	
6643	0	32976	
6644	0	32800	
6645	0	32624	
6646	0	32576	
6647	0	32624	
6648	0	32693	
6649	0	32544	
6650	0	32840	
6651	0	33292	
6652	0	33196	
6653	0	33040	
6654	0	33036	
6655	0	33108	
6656	0	33056	
6657	0	32802	
6658	0	32628	
6659	0	32644	
6660	0	32752	
6661	0	32754	
6662	0	32756	
6663	0	32804	
6664	0	32720	
6665	0	32584	
6666	0	32500	
6667	0	32372	
6668	0	32604	
6669	0	32940	
6670	0	32601	
6671	0	32500	
6672	0	32864	
6673	0	33060	
6674	0	32864	
6675	0	32941	
6676	0	32716	
6677	0	32609	
6678	0	32942	
6679	0	32728	
6680	0	32693	
6681	0	32984	
6682	0	32916	
6683	0	32784	
6684	0	33024	
6685	0	32900	
6686	0	32844	
6687	0	32812	
6688	0	32732	
6689	0	32685	
6690	0	32920	
6691	0	32964	
6692	0	33032	
6693	0	33133	
6694	0	32944	
6695	0	32644	
6696	0	32670	
6697	0	32668	
6698	0	32452	
6699	0	32388	
6700	0	32728	
6701	0	32828	
6702	0	32764	
6703	0	32984	
6704	0	32880	
6705	0	32746	
6706	0	32564	
6707	0	32537	
6708	0	32860	
6709	0	33082	
6710	0	32796	
6711	0	32808	
6712	0	33122	
6713	0	32808	
6714	0	32888	
6715	0	32934	
6716	0	32884	
6717	0	32680	
6718	0	32641	
6719	0	32684	
6720	0	32756	
6721	0	32808	
6722	0	32708	
6723	0	32772	
6724	0	32984	
6725	0	32744	
6726	0	32560	
6727	0	32916	
6728	0	32914	
6729	0	32860	
6730	0	32961	
6731	0	32912	
6732	0	32968	
6733	0	32964	
6734	0	32572	
6735	0	32384	
6736	0	32464	
6737	0	32405	
6738	0	32485	
6739	0	32760	
6740	0	32864	
6741	0	32676	
6742	0	32920	
6743	0	33044	
6744	0	32844	
6745	0	32788	
6746	0	32848	
6747	0	32780	
6748	0	32765	
6749	0	33028	
6750	0	33152	
6751	0	33037	
6752	0	33176	
6753	0	32980	
6754	0	32988	
6755	0	32996	
6756	0	32664	
6757	0	32484	
6758	0	32530	
6759	0	32556	
6760	0	32436	
6761	0	32788	
6762	0	32748	
6763	0	32672	
6764	0	32668	
6765	0	32701	
6766	0	32600	
6767	0	32692	
6768	0	32684	
6769	0	32720	
6770	0	32912	
6771	0	32876	
6772	0	32688	
6773	0	33108	
6774	0	32896	
6775	0	32648	
6776	0	32640	
6777	0	32690	
6778	0	32476	
6779	0	32820	
6780	0	33048	
6781	0	32908	
6782	0	33257	
6783	0	33168	
6784	0	33088	
6785	0	32857	
6786	0	32865	
6787	0	32628	
6788	0	32652	
6789	0	32832	
6790	0	32868	
6791	0	33024	
6792	0	33088	
6793	0	33034	
6794	0	32902	
6795	0	32784	
6796	0	32704	
6797	0	32661	
6798	0	32580	
6799	0	32574	
6800	0	32644	
6801	0	32520	
6802	0	32586	
6803	0	32748	
6804	0	32792	
6805	0	32480	
6806	0	32492	
6807	0	32666	
6808	0	32636	
6809	0	32764	
6810	0	32792	
6811	0	32728	
6812	0	32741	
6813	0	33152	
6814	0	33156	
6815	0	33028	
6816	0	32900	
6817	0	32832	
6818	0	32808	
6819	0	33014	
6820	0	32848	
6821	0	32904	
6822	0	32944	
6823	0	32653	
6824	0	32645	
6825	0	32696	
6826	0	32689	
6827	0	32352	
6828	0	32504	
6829	0	32352	
6830	0	32584	
6831	0	32940	
6832	0	32912	
6833	0	32856	
6834	0	32910	
6835	0	33116	
6836	0	32904	
6837	0	32966	
6838	0	32700	
6839	0	32488	
6840	0	32676	
6841	0	33084	
6842	0	32920	
6843	0	33164	
6844	0	32895	
6845	0	32626	
6846	0	32766	
6847	0	32908	
6848	0	32668	
6849	0	33024	
6850	0	32964	
6851	0	32932	
6852	0	33144	
6853	0	33104	
6854	0	32872	
6855	0	32684	
6856	0	32668	
6857	0	32500	
6858	0	32552	
6859	0	32704	
6860	0	32312	
6861	0	32600	
6862	0	33048	
6863	0	32628	
6864	0	32312	
6865	0	32653	
6866	0	32536	
6867	0	32420	
6868	0	32804	
6869	0	32929	
6870	0	32785	
6871	0	33100	
6872	0	32996	
6873	0	33116	
6874	0	33400	
6875	0	33268	
6876	0	32924	
6877	0	33324	
6878	0	33068	
6879	0	32472	
6880	0	32576	
6881	0	32818	
6882	0	32588	
6883	0	32516	
6884	0	32720	
6885	0	32605	
6886	0	32528	
6887	0	32608	
6888	0	32618	
6889	0	32730	
6890	0	32932	
6891	0	32760	
6892	0	32780	
6893	0	32956	
6894	0	32790	
6895	0	32712	
6896	0	32880	
6897	0	32864	
6898	0	32600	
6899	0	32472	
6900	0	32436	
6901	0	32604	
6902	0	32900	
6903	0	32945	
6904	0	32960	
6905	0	32881	
6906	0	32809	
6907	0	32796	
6908	0	33004	
6909	0	32930	
6910	0	32960	
6911	0	33116	
6912	0	33024	
6913	0	32848	
6914	0	32869	
6915	0	32804	
6916	0	32612	
6917	0	32540	
6918	0	32518	
6919	0	32576	
6920	0	32608	
6921	0	32796	
6922	0	32858	
6923	0	32876	
6924	0	32952	
6925	0	32728	
6926	0	32720	
6927	0	32896	
6928	0	32500	
6929	0	32726	
6930	0	32846	
6931	0	32924	
6932	0	32960	
6933	0	33028	
6934	0	32941	
6935	0	32836	
6936	0	32746	
6937	0	32672	
6938	0	32720	
6939	0	32588	
6940	0	32636	
6941	0	32784	
6942	0	33064	
6943	0	33156	
6944	0	33024	
6945	0	32920	
6946	0	32584	
6947	0	32652	
6948	0	32760	
6949	0	32708	
6950	0	32706	
6951	0	32840	
6952	0	32760	
6953	0	32688	
6954	0	33046	
6955	0	32684	
6956	0	32608	
6957	0	32645	
6958	0	32490	
6959	0	32652	
6960	0	32804	
6961	0	32866	
6962	0	32936	
6963	0	33052	
6964	0	32960	
6965	0	32880	
6966	0	32964	
6967	0	32896	
6968	0	32489	
6969	0	32736	
6970	0	33004	
6971	0	32788	
6972	0	32848	
6973	0	32876	
6974	0	32685	
6975	0	32768	
6976	0	32764	
6977	0	32564	
6978	0	32788	
6979	0	32872	
6980	0	32633	
6981	0	32632	
6982	0	32760	
6983	0	32794	
6984	0	32804	
6985	0	32998	
6986	0	32746	
6987	0	32753	
6988	0	32828	
6989	0	32760	
6990	0	32886	
6991	0	33088	
6992	0	33024	
6993	0	32792	
6994	0	32796	
6995	0	32636	
6996	0	32356	
6997	0	32440	
6998	0	32669	
6999	0	32800	
7000	0	33032	
7001	0	33000	
7002	0	32776	
7003	0	33000	
7004	0	32944	
7005	0	32760	
7006	0	32692	
7007	0	32672	
7008	0	32668	
7009	0	32801	
7010	0	33012	
7011	0	32992	
7012	0	32932	
7013	0	33016	
7014	0	32888	
7015	0	32965	
7016	0	32576	
7017	0	32536	
7018	0	32700	
7019	0	32732	
7020	0	32340	
7021	0	32530	
7022	0	32836	
7023	0	32925	
7024	0	32812	
7025	0	32792	
7026	0	32967	
7027	0	32804	
7028	0	32694	
7029	0	32712	
7030	0	33136	
7031	0	33156	
7032	0	33136	
7033	0	32970	
7034	0	32988	
7035	0	32692	
7036	0	32560	
7037	0	32652	
7038	0	32509	
7039	0	32744	
7040	0	32918	
7041	0	32684	
7042	0	32664	
7043	0	32732	
7044	0	32556	
7045	0	32518	
7046	0	32800	
7047	0	32596	
7048	0	32512	
7049	0	32660	
7050	0	32810	
7051	0	32712	
7052	0	32740	
7053	0	33056	
7054	0	32996	
7055	0	32908	
7056	0	32776	
7057	0	32732	
7058	0	32906	
7059	0	32908	
7060	0	32996	
7061	0	33116	
7062	0	33056	
7063	0	32788	
7064	0	33060	
7065	0	32986	
7066	0	32805	
7067	0	32540	
7068	0	32781	
7069	0	32748	
7070	0	32708	
7071	0	32617	
7072	0	32682	
7073	0	32765	
7074	0	32780	
7075	0	32512	
7076	0	32557	
7077	0	32216	
7078	0	32424	
7079	0	32394	
7080	0	32844	
7081	0	32768	
7082	0	32712	
7083	0	32940	
7084	0	33048	
7085	0	33088	
7086	0	33114	
7087	0	32908	
7088	0	33120	
7089	0	33076	
7090	0	33008	
7091	0	32852	
7092	0	33196	
7093	0	32964	
7094	0	33104	
7095	0	32980	
7096	0	32752	
7097	0	32356	
7098	0	32660	
7099	0	32676	
7100	0	32832	
7101	0	32608	
7102	0	32372	
7103	0	32476	
7104	0	32712	
7105	0	32740	
7106	0	32316	
7107	0	32460	
7108	0	32660	
7109	0	32488	
7110	0	32768	
7111	0	33004	
7112	0	33112	
7113	0	33529	
7114	0	33280	
7115	0	33176	
7116	0	33080	
7117	0	32900	
7118	0	32648	
7119	0	32692	
7120	0	32906	
7121	0	32820	
7122	0	32916	
7123	0	33108	
7124	0	32688	
7125	0	32748	
7126	0	32416	
7127	0	32404	
7128	0	32492	
7129	0	32640	
7130	0	32540	
7131	0	32458	
7132	0	32784	
7133	0	33008	
7134	0	33085	
7135	0	33084	
7136	0	32684	
7137	0	32556	
7138	0	32629	
7139	0	32818	
7140	0	32789	
7141	0	33052	
7142	0	32856	
7143	0	32692	
7144	0	32872	
7145	0	32812	
7146	0	32896	
7147	0	32856	
7148	0	32883	
7149	0	32748	
7150	0	33066	
7151	0	32964	
7152	0	32996	
7153	0	33096	
7154	0	32820	
7155	0	32708	
7156	0	32460	
7157	0	32608	
7158	0	32280	
7159	0	32688	
7160	0	32768	
7161	0	32560	
7162	0	33018	
7163	0	32964	
7164	0	32916	
7165	0	32568	
7166	0	32944	
7167	0	32692	
7168	0	32724	
7169	0	33104	
7170	0	32846	
7171	0	32780	
7172	0	32764	
7173	0	32492	
7174	0	32756	
7175	0	32680	
7176	0	32772	
7177	0	32524	
7178	0	32808	
7179	0	33000	
7180	0	33144	
7181	0	33716	
7182	0	33308	
7183	0	32860	
7184	0	33194	
7185	0	32804	
7186	0	32736	
7187	0	32642	
7188	0	32492	
7189	0	32444	
7190	0	32457	
7191	0	32408	
7192	0	32308	
7193	0	32564	
7194	0	32613	
7195	0	32580	
7196	0	32496	
7197	0	32504	
7198	0	32844	
7199	0	33068	
7200	0	33088	
7201	0	33064	
7202	0	33344	
7203	0	33246	
7204	0	33004	
7205	0	32872	
7206	0	32393	
7207	0	32564	
7208	0	32448	
7209	0	32713	
7210	0	32852	
7211	0	32813	
7212	0	33044	
7213	0	32800	
7214	0	33216	
7215	0	33206	
7216	0	32762	
7217	0	32740	
7218	0	32656	
7219	0	32540	
7220	0	32484	
7221	0	32770	
7222	0	32804	
7223	0	32584	
7224	0	32776	
7225	0	32404	
7226	0	32420	
7227	0	32332	
7228	0	32400	
7229	0	32536	
7230	0	32874	
7231	0	33080	
7232	0	33009	
7233	0	33415	
7234	0	33396	
7235	0	33113	
7236	0	33226	
7237	0	33232	
7238	0	32956	
7239	0	32852	
7240	0	32956	
7241	0	32990	
7242	0	32977	
7243	0	32714	
7244	0	32436	
7245	0	32736	
7246	0	32448	
7247	0	32036	
7248	0	32224	
7249	0	32422	
7250	0	32713	
7251	0	32784	
7252	0	32808	
7253	0	32840	
7254	0	33012	
7255	0	33220	
7256	0	32724	
7257	0	32856	
7258	0	32858	
7259	0	32716	
7260	0	32879	
7261	0	33065	
7262	0	33180	
7263	0	32888	
7264	0	32876	
7265	0	32736	
7266	0	32704	
7267	0	32596	
7268	0	32432	
7269	0	32736	
7270	0	32938	
7271	0	32718	
7272	0	32704	
7273	0	32936	
7274	0	32904	
7275	0	32864	
7276	0	32679	
7277	0	32548	
7278	0	32553	
7279	0	32817	
7280	0	32860	
7281	0	32964	
7282	0	33204	
7283	0	33168	
7284	0	32892	
7285	0	33082	
7286	0	32700	
7287	0	32460	
7288	0	32593	
7289	0	32680	
7290	0	32673	
7291	0	32944	
7292	0	32884	
7293	0	32650	
7294	0	32652	
7295	0	32652	
7296	0	32572	
7297	0	32724	
7298	0	32672	
7299	0	32532	
7300	0	32508	
7301	0	32970	
7302	0	32864	
7303	0	33056	
7304	0	33008	
7305	0	32852	
7306	0	32938	
7307	0	32732	
7308	0	32806	
7309	0	32778	
7310	0	33136	
7311	0	32904	
7312	0	33038	
7313	0	33108	
7314	0	32768	
7315	0	32704	
7316	0	32807	
7317	0	32689	
7318	0	32448	
7319	0	32704	
7320	0	32777	
7321	0	32984	
7322	0	33156	
7323	0	32660	
7324	0	32772	
7325	0	32992	
7326	0	32646	
7327	0	32266	
7328	0	32380	
7329	0	32508	
7330	0	32640	
7331	0	32612	
7332	0	32752	
7333	0	32924	
7334	0	33048	
7335	0	32818	
7336	0	32532	
7337	0	32580	
7338	0	32932	
7339	0	33060	
7340	0	33146	
7341	0	32996	
7342	0	32676	
7343	0	33160	
7344	0	33124	
7345	0	32878	
7346	0	32778	
7347	0	32641	
7348	0	32829	
7349	0	32857	
7350	0	32732	
7351	0	32685	
7352	0	32746	
7353	0	32844	
7354	0	32654	
7355	0	32584	
7356	0	32756	
7357	0	32440	
7358	0	32480	
7359	0	32512	
7360	0	32592	
7361	0	32740	
7362	0	33072	
7363	0	32964	
7364	0	32752	
7365	0	32844	
7366	0	32796	
7367	0	33060	
7368	0	33016	
7369	0	32992	
7370	0	32828	
7371	0	33292	
7372	0	33380	
7373	0	33028	
7374	0	32872	
7375	0	32810	
7376	0	32480	
7377	0	32536	
7378	0	32456	
7379	0	32524	
7380	0	32604	
7381	0	32670	
7382	0	32606	
7383	0	32632	
7384	0	32778	
7385	0	32764	
7386	0	32832	
7387	0	32712	
7388	0	32524	
7389	0	32750	
7390	0	33216	
7391	0	33005	
7392	0	32808	
7393	0	32808	
7394	0	32896	
7395	0	32802	
7396	0	32864	
7397	0	32652	
7398	0	32692	
7399	0	32746	
7400	0	32880	
7401	0	33136	
7402	0	32988	
7403	0	32825	
7404	0	32824	
7405	0	32908	
7406	0	32708	
7407	0	32661	
7408	0	32672	
7409	0	32509	
7410	0	32484	
7411	0	32728	
7412	0	32836	
7413	0	32593	
7414	0	32748	
7415	0	32832	
7416	0	32420	
7417	0	32572	
7418	0	32572	
7419	0	32872	
7420	0	33062	
7421	0	32952	
7422	0	33015	
7423	0	33476	
7424	0	33116	
7425	0	33012	
7426	0	32920	
7427	0	32774	
7428	0	32716	
7429	0	32628	
7430	0	32560	
7431	0	32568	
7432	0	32736	
7433	0	32812	
7434	0	32468	
7435	0	32661	
7436	0	32904	
7437	0	32472	
7438	0	32560	
7439	0	32816	
7440	0	32652	
7441	0	32808	
7442	0	32888	
7443	0	32877	
7444	0	33004	
7445	0	32766	
7446	0	32648	
7447	0	32820	
7448	0	32940	
7449	0	32702	
7450	0	32516	
7451	0	33136	
7452	0	32836	
7453	0	32844	
7454	0	33060	
7455	0	33116	
7456	0	32668	
7457	0	32632	
7458	0	32512	
7459	0	32692	
7460	0	32992	
7461	0	33060	
7462	0	32940	
7463	0	32976	
7464	0	32852	
7465	0	32712	
7466	0	32672	
7467	0	32621	
7468	0	32364	
7469	0	32712	
7470	0	32988	
7471	0	32776	
7472	0	32816	
7473	0	33176	
7474	0	33072	
7475	0	32832	
7476	0	32673	
7477	0	32616	
7478	0	32761	
7479	0	32808	
7480	0	32664	
7481	0	32828	
7482	0	33092	
7483	0	33048	
7484	0	33054	
7485	0	32776	
7486	0	32860	
7487	0	32716	
7488	0	32684	
7489	0	32734	
7490	0	32772	
7491	0	32776	
7492	0	32700	
7493	0	32960	
7494	0	32956	
7495	0	32600	
7496	0	32409	
7497	0	32496	
7498	0	32388	
7499	0	32468	
7500	0	32740	
7501	0	32628	
7502	0	32910	
7503	0	32952	
7504	0	33052	
7505	0	32861	
7506	0	32836	
7507	0	32640	
7508	0	32614	
7509	0	32706	
7510	0	32840	
7511	0	32894	
7512	0	33580	
7513	0	33116	
7514	0	33132	
7515	0	33006	
7516	0	32872	
7517	0	32560	
7518	0	32888	
7519	0	32633	
7520	0	32510	
7521	0	32641	
7522	0	32834	
7523	0	32604	
7524	0	32772	
7525	0	32761	
7526	0	32432	
7527	0	32433	
7528	0	32644	
7529	0	32552	
7530	0	32940	
7531	0	32948	
7532	0	32780	
7533	0	32822	
7534	0	33140	
7535	0	32952	
7536	0	32872	
7537	0	32806	
7538	0	32704	
7539	0	32706	
7540	0	32832	
7541	0	32860	
7542	0	32792	
7543	0	33008	
7544	0	32494	
7545	0	32716	
7546	0	32956	
7547	0	32880	
7548	0	32748	
7549	0	32900	
7550	0	33020	
7551	0	32860	
7552	0	32796	
7553	0	32929	
7554	0	32686	
7555	0	32860	
7556	0	32468	
7557	0	32208	
7558	0	32440	
7559	0	32796	
7560	0	32700	
7561	0	32948	
7562	0	32800	
7563	0	32632	
7564	0	33008	
7565	0	32932	
7566	0	32744	
7567	0	32716	
7568	0	33121	
7569	0	33072	
7570	0	33024	
7571	0	32996	
7572	0	32868	
7573	0	32900	
7574	0	32772	
7575	0	32740	
7576	0	32956	
7577	0	32796	
7578	0	32440	
7579	0	32381	
7580	0	32632	
7581	0	32878	
7582	0	32708	
7583	0	32852	
7584	0	32860	
7585	0	33060	
7586	0	32932	
7587	0	32572	
7588	0	32716	
7589	0	33132	
7590	0	33176	
7591	0	32696	
7592	0	32632	
7593	0	32680	
7594	0	32744	
7595	0	32918	
7596	0	32561	
7597	0	32508	
7598	0	32254	
7599	0	32476	
7600	0	32728	
7601	0	32820	
7602	0	32721	
7603	0	33173	
7604	0	33004	
7605	0	33052	
7606	0	32558	
7607	0	32906	
7608	0	32780	
7609	0	32614	
7610	0	33116	
7611	0	33196	
7612	0	32968	
7613	0	32872	
7614	0	32929	
7615	0	33216	
7616	0	33032	
7617	0	32644	
7618	0	32192	
7619	0	32841	
7620	0	32604	
7621	0	32360	
7622	0	32516	
7623	0	32748	
7624	0	32780	
7625	0	32980	
7626	0	32752	
7627	0	32638	
7628	0	32696	
7629	0	33068	
7630	0	33000	
7631	0	33036	
7632	0	32752	
7633	0	32576	
7634	0	32768	
7635	0	33169	
7636	0	32820	
7637	0	32812	
7638	0	32869	
7639	0	32754	
7640	0	32920	
7641	0	32928	
7642	0	32768	
7643	0	32904	
7644	0	33188	
7645	0	32858	
7646	0	32852	
7647	0	32952	
7648	0	32856	
7649	0	32592	
7650	0	33112	
7651	0	32776	
7652	0	32516	
7653	0	32706	
7654	0	32620	
7655	0	32480	
7656	0	32640	
7657	0	32724	
7658	0	32492	
7659	0	32698	
7660	0	32820	
7661	0	32480	
7662	0	32768	
7663	0	32836	
7664	0	32864	
7665	0	32776	
7666	0	32908	
7667	0	32718	
7668	0	32668	
7669	0	32868	
7670	0	32838	
7671	0	32984	
7672	0	33060	
7673	0	32836	
7674	0	32820	
7675	0	32742	
7676	0	32928	
7677	0	32700	
7678	0	32750	
7679	0	32816	
7680	0	32776	
7681	0	32900	
7682	0	32998	
7683	0	32834	
7684	0	33054	
7685	0	32900	
7686	0	32780	
7687	0	32784	
7688	0	32484	
7689	0	32448	
7690	0	32692	
7691	0	32622	
7692	0	32548	
7693	0	32573	
7694	0	32634	
7695	0	32800	
7696	0	32888	
7697	0	32768	
7698	0	32840	
7699	0	32754	
7700	0	32764	
7701	0	33030	
7702	0	33016	
7703	0	32976	
7704	0	32968	
7705	0	33208	
7706	0	33244	
7707	0	32952	
7708	0	32720	
7709	0	32740	
7710	0	32788	
7711	0	33032	
7712	0	32788	
7713	0	32464	
7714	0	32646	
7715	0	32804	
7716	0	32512	
7717	0	32568	
7718	0	32572	
7719	0	32328	
7720	0	32521	
7721	0	32608	
7722	0	32864	
7723	0	33008	
7724	0	32786	
7725	0	32708	
7726	0	33005	
7727	0	32928	
7728	0	32580	
7729	0	32564	
7730	0	32968	
7731	0	32904	
7732	0	33048	
7733	0	33136	
7734	0	32944	
7735	0	32908	
7736	0	32928	
7737	0	32736	
7738	0	32788	
7739	0	32860	
7740	0	32828	
7741	0	32785	
7742	0	32988	
7743	0	32797	
7744	0	32400	
7745	0	32800	
7746	0	32924	
7747	0	32292	
7748	0	32412	
7749	0	32769	
7750	0	32750	
7751	0	32964	
7752	0	32945	
7753	0	32732	
7754	0	32808	
7755	0	32608	
7756	0	32593	
7757	0	32752	
7758	0	32792	
7759	0	32636	
7760	0	32824	
7761	0	33088	
7762	0	33152	
7763	0	33152	
7764	0	33132	
7765	0	32900	
7766	0	32892	
7767	0	32752	
7768	0	32469	
7769	0	32432	
7770	0	32812	
7771	0	32680	
7772	0	32780	
7773	0	32700	
7774	0	32476	
7775	0	32420	
7776	0	32609	
7777	0	32408	
7778	0	32412	
7779	0	32656	
7780	0	33006	
7781	0	33096	
7782	0	33084	
7783	0	32904	
7784	0	32896	
7785	0	33064	
7786	0	32956	
7787	0	32900	
7788	0	32928	
7789	0	32908	
7790	0	32740	
7791	0	32856	
7792	0	33104	
7793	0	33084	
7794	0	32868	
7795	0	32744	
7796	0	32700	
7797	0	32614	
7798	0	32668	
7799	0	32416	
7800	0	32861	
7801	0	32900	
7802	0	32596	
7803	0	32760	
7804	0	32852	
7805	0	32908	
7806	0	32712	
7807	0	32696	
7808	0	32512	
7809	0	32604	
7810	0	32753	
7811	0	32624	
7812	0	32736	
7813	0	33124	
7814	0	32952	
7815	0	32772	
7816	0	32792	
7817	0	32684	
7818	0	32564	
7819	0	32780	
7820	0	32844	
7821	0	32940	
7822	0	33070	
7823	0	32932	
7824	0	32780	
7825	0	32890	
7826	0	32744	
7827	0	32612	
7828	0	32768	
7829	0	32704	
7830	0	32544	
7831	0	33024	
7832	0	32974	
7833	0	32824	
7834	0	33028	
7835	0	32784	
7836	0	32484	
7837	0	32750	
7838	0	32784	
7839	0	32700	
7840	0	32968	
7841	0	32924	
7842	0	32716	
7843	0	32806	
7844	0	32936	
7845	0	32718	
7846	0	32636	
7847	0	32792	
7848	0	32516	
7849	0	32596	
7850	0	32716	
7851	0	32908	
7852	0	32948	
7853	0	33076	
7854	0	32936	
7855	0	32796	
7856	0	32792	
7857	0	32784	
7858	0	32644	
7859	0	32892	
7860	0	32668	
7861	0	32756	
7862	0	33084	
7863	0	32836	
7864	0	32704	
7865	0	32776	
7866	0	32648	
7867	0	32580	
7868	0	32684	
7869	0	32687	
7870	0	32712	
7871	0	32976	
7872	0	33037	
7873	0	32884	
7874	0	33016	
7875	0	32924	
7876	0	32646	
7877	0	32618	
7878	0	32676	
7879	0	32788	
7880	0	32856	
7881	0	32792	
7882	0	32788	
7883	0	33092	
7884	0	32816	
7885	0	32452	
7886	0	32632	
7887	0	32728	
7888	0	32538	
7889	0	32708	
7890	0	32789	
7891	0	32900	
7892	0	33104	
7893	0	32912	
7894	0	32864	
7895	0	33109	
7896	0	32893	
7897	0	32588	
7898	0	32532	
7899	0	32680	
7900	0	32696	
7901	0	32849	
7902	0	33012	
7903	0	33008	
7904	0	32839	
7905	0	32884	
7906	0	32672	
7907	0	32488	
7908	0	32672	
7909	0	32740	
7910	0	32794	
7911	0	32860	
7912	0	32876	
7913	0	33070	
7914	0	33212	
7915	0	33041	
7916	0	32728	
7917	0	32768	
7918	0	32748	
7919	0	32736	
7920	0	32812	
7921	0	32960	
7922	0	32764	
7923	0	32476	
7924	0	32678	
7925	0	32656	
7926	0	32764	
7927	0	32644	
7928	0	32592	
7929	0	32988	
7930	0	32936	
7931	0	32704	
7932	0	32860	
7933	0	32978	
7934	0	32762	
7935	0	32758	
7936	0	32704	
7937	0	32692	
7938	0	32768	
7939	0	32524	
7940	0	32544	
7941	0	32785	
7942	0	32760	
7943	0	32740	
7944	0	32734	
7945	0	32853	
7946	0	32724	
7947	0	32668	
7948	0	33008	
7949	0	33016	
7950	0	33088	
7951	0	33152	
7952	0	33120	
7953	0	33208	
7954	0	33152	
7955	0	32989	
7956	0	32752	
7957	0	32628	
7958	0	32188	
7959	0	32288	
7960	0	32584	
7961	0	32488	
7962	0	32432	
7963	0	32562	
7964	0	32428	
7965	0	32528	
7966	0	32492	
7967	0	32608	
7968	0	32582	
7969	0	32636	
7970	0	33028	
7971	0	33036	
7972	0	33368	
7973	0	33360	
7974	0	33321	
7975	0	33380	
7976	0	33393	
7977	0	32901	
7978	0	32840	
7979	0	32940	
7980	0	32887	
7981	0	32856	
7982	0	32920	
7983	0	32768	
7984	0	32676	
7985	0	32704	
7986	0	32564	
7987	0	32466	
7988	0	32510	
7989	0	32056	
7990	0	32408	
7991	0	32564	
7992	0	32640	
7993	0	32648	
7994	0	32933	
7995	0	32812	
7996	0	32776	
7997	0	32608	
7998	0	32509	
7999	0	32644	
8000	0	33001	
8001	0	33052	
8002	0	33344	
8003	0	33186	
8004	0	32984	
8005	0	32900	
8006	0	33000	
8007	0	33004	
8008	0	33072	
8009	0	33020	
8010	0	32901	
8011	0	32876	
8012	0	32792	
8013	0	32760	
8014	0	32600	
8015	0	32344	
8016	0	32436	
8017	0	32200	
8018	0	32452	
8019	0	32496	
8020	0	32642	
8021	0	32680	
8022	0	32760	
8023	0	32896	
8024	0	33108	
8025	0	33032	
8026	0	32884	
8027	0	32808	
8028	0	32996	
8029	0	33068	
8030	0	33136	
8031	0	33150	
8032	0	32768	
8033	0	32710	
8034	0	32740	
8035	0	32708	
8036	0	32724	
8037	0	32760	
8038	0	32592	
8039	0	32518	
8040	0	32481	
8041	0	32572	
8042	0	33008	
8043	0	33293	
8044	0	32988	
8045	0	32664	
8046	0	32748	
8047	0	32812	
8048	0	32740	
8049	0	32680	
8050	0	32570	
8051	0	32804	
8052	0	32820	
8053	0	32800	
8054	0	33100	
8055	0	33192	
8056	0	32864	
8057	0	32756	
8058	0	32860	
8059	0	32792	
8060	0	32685	
8061	0	32766	
8062	0	33020	
8063	0	32936	
8064	0	33076	
8065	0	32800	
8066	0	32660	
8067	0	32636	
8068	0	32364	
8069	0	32192	
8070	0	32544	
8071	0	32645	
8072	0	32680	
8073	0	32840	
8074	0	32802	
8075	0	32728	
8076	0	32828	
8077	0	32900	
8078	0	32836	
8079	0	32872	
8080	0	32924	
8081	0	32948	
8082	0	33032	
8083	0	33236	
8084	0	33072	
8085	0	33216	
8086	0	33040	
8087	0	32424	
8088	0	32396	
8089	0	32536	
8090	0	32524	
8091	0	32656	
8092	0	32796	
8093	0	32748	
8094	0	32784	
8095	0	32756	
8096	0	32544	
8097	0	32544	
8098	0	32708	
8099	0	32532	
8100	0	32612	
8101	0	32826	
8102	0	32944	
8103	0	32900	
8104	0	33208	
8105	0	33020	
8106	0	32864	
8107	0	32841	
8108	0	32816	
8109	0	32652	
8110	0	32856	
8111	0	33084	
8112	0	33272	
8113	0	33316	
8114	0	33008	
8115	0	32886	
8116	0	32920	
8117	0	32896	
8118	0	32728	
8119	0	32749	
8120	0	32794	
8121	0	32568	
8122	0	32484	
8123	0	32550	
8124	0	32534	
8125	0	32492	
8126	0	32296	
8127	0	32308	
8128	0	32426	
8129	0	32392	
8130	0	32474	
8131	0	32772	
8132	0	33260	
8133	0	33184	
8134	0	32997	
8135	0	33112	
8136	0	33041	
8137	0	32921	
8138	0	32922	
8139	0	32910	
8140	0	33112	
8141	0	32952	
8142	0	32816	
8143	0	32832	
8144	0	33108	
8145	0	32816	
8146	0	32526	
8147	0	32592	
8148	0	32496	
8149	0	32461	
8150	0	32472	
8151	0	32584	
8152	0	33052	
8153	0	33032	
8154	0	32948	
8155	0	32742	
8156	0	32648	
8157	0	32580	
8158	0	32460	
8159	0	32708	
8160	0	32861	
8161	0	32660	
8162	0	32616	
8163	0	32832	
8164	0	32948	
8165	0	33208	
8166	0	32912	
8167	0	32616	
8168	0	33024	
8169	0	33116	
8170	0	32984	
8171	0	33256	
8172	0	33324	
8173	0	33100	
8174	0	33020	
8175	0	32864	
8176	0	32730	
8177	0	32636	
8178	0	32528	
8179	0	32428	
8180	0	32494	
8181	0	32672	
8182	0	32460	
8183	0	32412	
8184	0	32428	
8185	0	32672	
8186	0	32676	
8187	0	32604	
8188	0	32181	
8189	0	32620	
8190	0	32969	
8191	0	32748	
8192	0	32820	
8193	0	33268	
8194	0	33348	
8195	0	33024	
8196	0	32732	
8197	0	32784	
8198	0	33072	
8199	0	32904	
8200	0	32476	
8201	0	32984	
8202	0	33120	
8203	0	32776	
8204	0	32660	
8205	0	32920	
8206	0	32952	
8207	0	32485	
8208	0	32470	
8209	0	32824	
8210	0	33072	
8211	0	32836	
8212	0	32696	
8213	0	32881	
8214	0	33092	
8215	0	32776	
8216	0	32312	
8217	0	32744	
8218	0	33016	
8219	0	32688	
8220	0	32629	
8221	0	32752	
8222	0	32845	
8223	0	32789	
8224	0	32508	
8225	0	32596	
8226	0	32810	
8227	0	32832	
8228	0	32512	
8229	0	32548	
8230	0	32832	
8231	0	33056	
8232	0	32800	
8233	0	32792	
8234	0	33132	
8235	0	33148	
8236	0	32828	
8237	0	32628	
8238	0	32828	
8239	0	33192	
8240	0	32808	
8241	0	32797	
8242	0	33144	
8243	0	32988	
8244	0	32864	
8245	0	32664	
8246	0	32776	
8247	0	32756	
8248	0	32680	
8249	0	32361	
8250	0	32508	
8251	0	32868	
8252	0	32713	
8253	0	32484	
8254	0	32718	
8255	0	32748	
8256	0	32654	
8257	0	32752	
8258	0	32792	
8259	0	32796	
8260	0	32956	
8261	0	33048	
8262	0	32881	
8263	0	33104	
8264	0	33200	
8265	0	33016	
8266	0	32832	
8267	0	33005	
8268	0	33046	
8269	0	32902	
8270	0	32746	
8271	0	32397	
8272	0	32696	
8273	0	32792	
8274	0	32502	
8275	0	32440	
8276	0	32548	
8277	0	32116	
8278	0	32160	
8279	0	32400	
8280	0	32568	
8281	0	32676	
8282	0	32865	
8283	0	32866	
8284	0	32924	
8285	0	33288	
8286	0	33120	
8287	0	32965	
8288	0	33280	
8289	0	33300	
8290	0	32982	
8291	0	32992	
8292	0	33100	
8293	0	33174	
8294	0	33064	
8295	0	32928	
8296	0	32800	
8297	0	32636	
8298	0	32464	
8299	0	32460	
8300	0	32572	
8301	0	32666	
8302	0	32524	
8303	0	32500	
8304	0	32572	
8305	0	32478	
8306	0	32536	
8307	0	32410	
8308	0	32429	
8309	0	32700	
8310	0	33084	
8311	0	33024	
8312	0	33060	
8313	0	32908	
8314	0	32864	
8315	0	32944	
8316	0	33008	
8317	0	32809	
8318	0	32865	
8319	0	32902	
8320	0	32704	
8321	0	32948	
8322	0	33124	
8323	0	32864	
8324	0	32804	
8325	0	32820	
8326	0	32860	
8327	0	32558	
8328	0	32737	
8329	0	32780	
8330	0	32832	
8331	0	32877	
8332	0	32780	
8333	0	32649	
8334	0	33064	
8335	0	32984	
8336	0	32556	
8337	0	32548	
8338	0	32556	
8339	0	32580	
8340	0	32792	
8341	0	32796	
8342	0	32740	
8343	0	32812	
8344	0	32896	
8345	0	32796	
8346	0	32780	
8347	0	32576	
8348	0	32449	
8349	0	32744	
8350	0	32932	
8351	0	32721	
8352	0	32782	
8353	0	32824	
8354	0	32908	
8355	0	33240	
8356	0	33152	
8357	0	33180	
8358	0	33092	
8359	0	32830	
8360	0	32956	
8361	0	32988	
8362	0	32908	
8363	0	32868	
8364	0	33110	
8365	0	32844	
8366	0	32372	
8367	0	32440	
8368	0	32464	
8369	0	32108	
8370	0	32180	
8371	0	32552	
8372	0	32304	
8373	0	32136	
8374	0	32568	
8375	0	32809	
8376	0	32704	
8377	0	32648	
8378	0	32988	
8379	0	33052	
8380	0	33364	
8381	0	33304	
8382	0	33534	
8383	0	33696	
8384	0	33248	
8385	0	33292	
8386	0	33536	
8387	0	32992	
8388	0	32652	
8389	0	32658	
8390	0	32764	
8391	0	32312	
8392	0	32644	
8393	0	32636	
8394	0	32220	
8395	0	32462	
8396	0	32448	
8397	0	32204	
8398	0	32274	
8399	0	32528	
8400	0	32250	
8401	0	32248	
8402	0	32848	
8403	0	33008	
8404	0	33028	
8405	0	32896	
8406	0	32868	
8407	0	33028	
8408	0	32904	
8409	0	32860	
8410	0	33125	
8411	0	33478	
8412	0	33172	
8413	0	33192	
8414	0	33624	
8415	0	32964	
8416	0	32708	
8417	0	32952	
8418	0	33016	
8419	0	32420	
8420	0	32620	
8421	0	32832	
8422	0	32832	
8423	0	32645	
8424	0	32568	
8425	0	32788	
8426	0	32529	
8427	0	32134	
8428	0	32317	
8429	0	32444	
8430	0	32164	
8431	0	32300	
8432	0	32764	
8433	0	32968	
8434	0	32752	
8435	0	32928	
8436	0	33192	
8437	0	32916	
8438	0	32808	
8439	0	32996	
8440	0	33140	
8441	0	33172	
8442	0	33010	
8443	0	33040	
8444	0	33132	
8445	0	32900	
8446	0	32492	
8447	0	32524	
8448	0	32840	
8449	0	32621	
8450	0	32594	
8451	0	32846	
8452	0	32876	
8453	0	32900	
8454	0	33160	
8455	0	32856	
8456	0	32808	
8457	0	32920	
8458	0	32445	
8459	0	32424	
8460	0	32725	
8461	0	32769	
8462	0	32628	
8463	0	32704	
8464	0	32744	
8465	0	32760	
8466	0	32704	
8467	0	32272	
8468	0	32604	
8469	0	32832	
8470	0	32764	
8471	0	32688	
8472	0	33008	
8473	0	33472	
8474	0	33200	
8475	0	33024	
8476	0	33036	
8477	0	33076	
8478	0	32900	
8479	0	32980	
8480	0	32833	
8481	0	32933	
8482	0	33088	
8483	0	32732	
8484	0	32868	
8485	0	32954	
8486	0	32728	
8487	0	32372	
8488	0	32148	
8489	0	32324	
8490	0	32566	
8491	0	32500	
8492	0	32441	
8493	0	32775	
8494	0	33196	
8495	0	32768	
8496	0	32628	
8497	0	32756	
8498	0	32898	
8499	0	32593	
8500	0	32708	
8501	0	32906	
8502	0	33212	
8503	0	33256	
8504	0	33014	
8505	0	33028	
8506	0	33148	
8507	0	32848	
8508	0	32536	
8509	0	32756	
8510	0	32688	
8511	0	32533	
8512	0	32804	
8513	0	32808	
8514	0	32764	
8515	0	32888	
8516	0	32628	
8517	0	32288	
8518	0	32452	
8519	0	32728	
8520	0	32592	
8521	0	32792	
8522	0	33028	
8523	0	33024	
8524	0	33076	
8525	0	32905	
8526	0	32812	
8527	0	32845	
8528	0	32780	
8529	0	32568	
8530	0	32612	
8531	0	33108	
8532	0	33316	
8533	0	33108	
8534	0	32972	
8535	0	32777	
8536	0	32724	
8537	0	32681	
8538	0	32396	
8539	0	32352	
8540	0	32572	
8541	0	32713	
8542	0	32548	
8543	0	32788	
8544	0	33052	
8545	0	32860	
8546	0	32780	
8547	0	32753	
8548	0	32876	
8549	0	32780	
8550	0	32620	
8551	0	32704	
8552	0	33088	
8553	0	33080	
8554	0	33080	
8555	0	33208	
8556	0	33044	
8557	0	32740	
8558	0	32512	
8559	0	32610	
8560	0	32572	
8561	0	32564	
8562	0	32684	
8563	0	32577	
8564	0	32752	
8565	0	32832	
8566	0	32632	
8567	0	32778	
8568	0	32740	
8569	0	32372	
8570	0	32748	
8571	0	33140	
8572	0	32992	
8573	0	32872	
8574	0	33104	
8575	0	33152	
8576	0	33036	
8577	0	32864	
8578	0	32648	
8579	0	32826	
8580	0	32890	
8581	0	32728	
8582	0	32664	
8583	0	32840	
8584	0	32828	
8585	0	32874	
8586	0	32932	
8587	0	32730	
8588	0	32456	
8589	0	32600	
8590	0	32612	
8591	0	32797	
8592	0	32836	
8593	0	32752	
8594	0	32832	
8595	0	33046	
8596	0	32876	
8597	0	32644	
8598	0	32616	
8599	0	32800	
8600	0	32828	
8601	0	33082	
8602	0	33100	
8603	0	33084	
8604	0	32946	
8605	0	32900	
8606	0	32820	
8607	0	32804	
8608	0	32584	
8609	0	32480	
8610	0	32598	
8611	0	32762	
8612	0	32220	
8613	0	32556	
8614	0	32896	
