# OpenSignals Text File Format
# {"00:07:80:D8:A7:F9": {"sensor": ["ECG"], "device name": "00:07:80:D8:A7:F9", "column": ["nSeq", "DI", "CH1"], "sync interval": 2, "time": "14:39:43.518", "comments": "write a small description", "device connection": "BTH00:07:80:D8:A7:F9", "channels": [1], "keywords": "'keyword 1,', 'keyword 2'", "mode": 0, "digital IO": [0, 1], "firmware version": "773", "device": "biosignalsplux", "position": 0, "sampling rate": 1000, "label": ["CH1"], "resolution": [16], "date": "2018-9-28", "special": [{}]}}
# EndOfHeader
0	0	32973	
1	0	33006	
2	0	33042	
3	0	33057	
4	0	33074	
5	0	33110	
6	0	33144	
7	0	33182	
8	0	33256	
9	0	33348	
10	0	33486	
11	0	33671	
12	0	33812	
13	0	33886	
14	0	33904	
15	0	33927	
16	0	33948	
17	0	33936	
18	0	33912	
19	0	33878	
20	0	33880	
21	0	33898	
22	0	33972	
23	0	34092	
24	0	34152	
25	0	34220	
26	0	34285	
27	0	34362	
28	0	34439	
29	0	34502	
30	0	34550	
31	0	34557	
32	0	34553	
33	0	34549	
34	0	34516	
35	0	34476	
36	0	34501	
37	0	34588	
38	0	34644	
39	0	34649	
40	0	34642	
41	0	34695	
42	0	34738	
43	0	34797	
44	0	34864	
45	0	34854	
46	0	34814	
47	0	34787	
48	0	34711	
49	0	34670	
50	0	34620	
51	0	34580	
52	0	34528	
53	0	34536	
54	0	34638	
55	0	34747	
56	0	34786	
57	0	34792	
58	0	34823	
59	0	34874	
60	0	34872	
61	0	34866	
62	0	34850	
63	0	34856	
64	0	34823	
65	0	34732	
66	0	34608	
67	0	34536	
68	0	34473	
69	0	34432	
70	0	34371	
71	0	34283	
72	0	34196	
73	0	34162	
74	0	34128	
75	0	34141	
76	0	34136	
77	0	34092	
78	0	33972	
79	0	33867	
80	0	33828	
81	0	33863	
82	0	33930	
83	0	34012	
84	0	34106	
85	0	34164	
86	0	34118	
87	0	34055	
88	0	33988	
89	0	33992	
90	0	33982	
91	0	33973	
92	0	33960	
93	0	33913	
94	0	33836	
95	0	33712	
96	0	33578	
97	0	33445	
98	0	33312	
99	0	33173	
100	0	33056	
101	0	32967	
102	0	32874	
103	0	32818	
104	0	32772	
105	0	32710	
106	0	32616	
107	0	32516	
108	0	32376	
109	0	32224	
110	0	32147	
111	0	32102	
112	0	32070	
113	0	32030	
114	0	31944	
115	0	31820	
116	0	31780	
117	0	31762	
118	0	31724	
119	0	31692	
120	0	31729	
121	0	31824	
122	0	31900	
123	0	31936	
124	0	31957	
125	0	31922	
126	0	31812	
127	0	31657	
128	0	31503	
129	0	31398	
130	0	31327	
131	0	31322	
132	0	31301	
133	0	31290	
134	0	31278	
135	0	31278	
136	0	31331	
137	0	31390	
138	0	31385	
139	0	31293	
140	0	31209	
141	0	31238	
142	0	31308	
143	0	31362	
144	0	31404	
145	0	31414	
146	0	31378	
147	0	31318	
148	0	31276	
149	0	31281	
150	0	31280	
151	0	31253	
152	0	31205	
153	0	31149	
154	0	31144	
155	0	31156	
156	0	31154	
157	0	31124	
158	0	31076	
159	0	31056	
160	0	31076	
161	0	31142	
162	0	31250	
163	0	31340	
164	0	31421	
165	0	31465	
166	0	31493	
167	0	31468	
168	0	31462	
169	0	31468	
170	0	31503	
171	0	31586	
172	0	31644	
173	0	31643	
174	0	31576	
175	0	31440	
176	0	31356	
177	0	31366	
178	0	31439	
179	0	31478	
180	0	31494	
181	0	31544	
182	0	31616	
183	0	31657	
184	0	31711	
185	0	31746	
186	0	31750	
187	0	31716	
188	0	31674	
189	0	31656	
190	0	31668	
191	0	31716	
192	0	31730	
193	0	31764	
194	0	31784	
195	0	31763	
196	0	31714	
197	0	31634	
198	0	31568	
199	0	31540	
200	0	31522	
201	0	31514	
202	0	31525	
203	0	31540	
204	0	31532	
205	0	31516	
206	0	31530	
207	0	31559	
208	0	31588	
209	0	31623	
210	0	31644	
211	0	31710	
212	0	31790	
213	0	31890	
214	0	31996	
215	0	32070	
216	0	32114	
217	0	32108	
218	0	32036	
219	0	31928	
220	0	31781	
221	0	31634	
222	0	31545	
223	0	31476	
224	0	31442	
225	0	31449	
226	0	31438	
227	0	31462	
228	0	31520	
229	0	31552	
230	0	31598	
231	0	31648	
232	0	31663	
233	0	31680	
234	0	31692	
235	0	31688	
236	0	31674	
237	0	31659	
238	0	31670	
239	0	31678	
240	0	31672	
241	0	31678	
242	0	31666	
243	0	31706	
244	0	31789	
245	0	31832	
246	0	31816	
247	0	31762	
248	0	31702	
249	0	31670	
250	0	31632	
251	0	31573	
252	0	31524	
253	0	31481	
254	0	31440	
255	0	31480	
256	0	31546	
257	0	31548	
258	0	31514	
259	0	31532	
260	0	31524	
261	0	31476	
262	0	31464	
263	0	31508	
264	0	31550	
265	0	31564	
266	0	31570	
267	0	31581	
268	0	31613	
269	0	31656	
270	0	31670	
271	0	31702	
272	0	31736	
273	0	31776	
274	0	31790	
275	0	31783	
276	0	31776	
277	0	31740	
278	0	31684	
279	0	31584	
280	0	31511	
281	0	31492	
282	0	31517	
283	0	31531	
284	0	31504	
285	0	31436	
286	0	31404	
287	0	31420	
288	0	31457	
289	0	31484	
290	0	31542	
291	0	31600	
292	0	31613	
293	0	31638	
294	0	31746	
295	0	31908	
296	0	32040	
297	0	32143	
298	0	32224	
299	0	32314	
300	0	32400	
301	0	32536	
302	0	32672	
303	0	32780	
304	0	32834	
305	0	32816	
306	0	32792	
307	0	32822	
308	0	32906	
309	0	33015	
310	0	33104	
311	0	33148	
312	0	33170	
313	0	33159	
314	0	33167	
315	0	33173	
316	0	33152	
317	0	33104	
318	0	33036	
319	0	32984	
320	0	32932	
321	0	32928	
322	0	32963	
323	0	33055	
324	0	33165	
325	0	33300	
326	0	33440	
327	0	33579	
328	0	33760	
329	0	33932	
330	0	34054	
331	0	34128	
332	0	34183	
333	0	34180	
334	0	34152	
335	0	34108	
336	0	34130	
337	0	34204	
338	0	34272	
339	0	34309	
340	0	34340	
341	0	34358	
342	0	34392	
343	0	34410	
344	0	34424	
345	0	34445	
346	0	34506	
347	0	34586	
348	0	34596	
349	0	34476	
350	0	34364	
351	0	34305	
352	0	34311	
353	0	34364	
354	0	34364	
355	0	34254	
356	0	34055	
357	0	33828	
358	0	33604	
359	0	33332	
360	0	33050	
361	0	32850	
362	0	32735	
363	0	32642	
364	0	32540	
365	0	32440	
366	0	32364	
367	0	32323	
368	0	32295	
369	0	32221	
370	0	32116	
371	0	32007	
372	0	31824	
373	0	31616	
374	0	31457	
375	0	31340	
376	0	31276	
377	0	31179	
378	0	31034	
379	0	30866	
380	0	30695	
381	0	30595	
382	0	30586	
383	0	30640	
384	0	30697	
385	0	30679	
386	0	30580	
387	0	30504	
388	0	30452	
389	0	30433	
390	0	30402	
391	0	30336	
392	0	30224	
393	0	30100	
394	0	30008	
395	0	29957	
396	0	29910	
397	0	29880	
398	0	29830	
399	0	29793	
400	0	29804	
401	0	29876	
402	0	29981	
403	0	30100	
404	0	30172	
405	0	30196	
406	0	30200	
407	0	30234	
408	0	30281	
409	0	30324	
410	0	30332	
411	0	30322	
412	0	30338	
413	0	30382	
414	0	30392	
415	0	30414	
416	0	30420	
417	0	30436	
418	0	30464	
419	0	30516	
420	0	30532	
421	0	30496	
422	0	30506	
423	0	30557	
424	0	30572	
425	0	30584	
426	0	30619	
427	0	30726	
428	0	30841	
429	0	30971	
430	0	31058	
431	0	31084	
432	0	31052	
433	0	30994	
434	0	30889	
435	0	30740	
436	0	30569	
437	0	30374	
438	0	30156	
439	0	30016	
440	0	29896	
441	0	29838	
442	0	29797	
443	0	29724	
444	0	29646	
445	0	29575	
446	0	29525	
447	0	29450	
448	0	29421	
449	0	29544	
450	0	29802	
451	0	30146	
452	0	30520	
453	0	30932	
454	0	31391	
455	0	31962	
456	0	32656	
457	0	33488	
458	0	34470	
459	0	35508	
460	0	36536	
461	0	37647	
462	0	38844	
463	0	40188	
464	0	41634	
465	0	43252	
466	0	45040	
467	0	46877	
468	0	48681	
469	0	50284	
470	0	51444	
471	0	52231	
472	0	52868	
473	0	53440	
474	0	53868	
475	0	54168	
476	0	54253	
477	0	53984	
478	0	53212	
479	0	52064	
480	0	50656	
481	0	49006	
482	0	47130	
483	0	45108	
484	0	42964	
485	0	40778	
486	0	38626	
487	0	36621	
488	0	34823	
489	0	33286	
490	0	31956	
491	0	30820	
492	0	29860	
493	0	29191	
494	0	28802	
495	0	28567	
496	0	28440	
497	0	28542	
498	0	28784	
499	0	29036	
500	0	29191	
501	0	29343	
502	0	29464	
503	0	29543	
504	0	29585	
505	0	29621	
506	0	29660	
507	0	29716	
508	0	29800	
509	0	29895	
510	0	29944	
511	0	29962	
512	0	29984	
513	0	30040	
514	0	30094	
515	0	30162	
516	0	30198	
517	0	30180	
518	0	30148	
519	0	30130	
520	0	30074	
521	0	30032	
522	0	29989	
523	0	29967	
524	0	29954	
525	0	29936	
526	0	29944	
527	0	29987	
528	0	30004	
529	0	30009	
530	0	30000	
531	0	29936	
532	0	29884	
533	0	29867	
534	0	29902	
535	0	29925	
536	0	29928	
537	0	29925	
538	0	29888	
539	0	29842	
540	0	29848	
541	0	29912	
542	0	30006	
543	0	30079	
544	0	30130	
545	0	30190	
546	0	30260	
547	0	30316	
548	0	30381	
549	0	30464	
550	0	30530	
551	0	30599	
552	0	30639	
553	0	30614	
554	0	30580	
555	0	30546	
556	0	30476	
557	0	30430	
558	0	30382	
559	0	30360	
560	0	30352	
561	0	30360	
562	0	30380	
563	0	30384	
564	0	30400	
565	0	30396	
566	0	30414	
567	0	30452	
568	0	30532	
569	0	30670	
570	0	30792	
571	0	30870	
572	0	30881	
573	0	30904	
574	0	30947	
575	0	31000	
576	0	31072	
577	0	31124	
578	0	31166	
579	0	31216	
580	0	31288	
581	0	31365	
582	0	31405	
583	0	31428	
584	0	31408	
585	0	31370	
586	0	31367	
587	0	31364	
588	0	31432	
589	0	31521	
590	0	31600	
591	0	31666	
592	0	31666	
593	0	31608	
594	0	31584	
595	0	31559	
596	0	31562	
597	0	31578	
598	0	31588	
599	0	31572	
600	0	31556	
601	0	31524	
602	0	31580	
603	0	31682	
604	0	31780	
605	0	31843	
606	0	31890	
607	0	31954	
608	0	32026	
609	0	32032	
610	0	32033	
611	0	32020	
612	0	32000	
613	0	31964	
614	0	31960	
615	0	32068	
616	0	32206	
617	0	32264	
618	0	32297	
619	0	32268	
620	0	32248	
621	0	32246	
622	0	32346	
623	0	32495	
624	0	32626	
625	0	32724	
626	0	32804	
627	0	32792	
628	0	32803	
629	0	32807	
630	0	32844	
631	0	32885	
632	0	32918	
633	0	32940	
634	0	32948	
635	0	32975	
636	0	33012	
637	0	33024	
638	0	32992	
639	0	32986	
640	0	33043	
641	0	33132	
642	0	33252	
643	0	33360	
644	0	33426	
645	0	33500	
646	0	33624	
647	0	33705	
648	0	33748	
649	0	33799	
650	0	33885	
651	0	33950	
652	0	33981	
653	0	33998	
654	0	34050	
655	0	34062	
656	0	34090	
657	0	34111	
658	0	34109	
659	0	34108	
660	0	34119	
661	0	34181	
662	0	34246	
663	0	34358	
664	0	34512	
665	0	34666	
666	0	34736	
667	0	34768	
668	0	34781	
669	0	34792	
670	0	34786	
671	0	34734	
672	0	34674	
673	0	34601	
674	0	34524	
675	0	34527	
676	0	34537	
677	0	34564	
678	0	34593	
679	0	34601	
680	0	34580	
681	0	34607	
682	0	34702	
683	0	34845	
684	0	34964	
685	0	35015	
686	0	34990	
687	0	34942	
688	0	34969	
689	0	35026	
690	0	35048	
691	0	35025	
692	0	34994	
693	0	35024	
694	0	35068	
695	0	35079	
696	0	35027	
697	0	34962	
698	0	34896	
699	0	34823	
700	0	34759	
701	0	34706	
702	0	34646	
703	0	34600	
704	0	34578	
705	0	34560	
706	0	34549	
707	0	34538	
708	0	34542	
709	0	34532	
710	0	34517	
711	0	34541	
712	0	34576	
713	0	34610	
714	0	34626	
715	0	34584	
716	0	34512	
717	0	34405	
718	0	34276	
719	0	34179	
720	0	34156	
721	0	34210	
722	0	34280	
723	0	34360	
724	0	34400	
725	0	34358	
726	0	34282	
727	0	34205	
728	0	34088	
729	0	33968	
730	0	33884	
731	0	33826	
732	0	33750	
733	0	33671	
734	0	33574	
735	0	33484	
736	0	33389	
737	0	33308	
738	0	33219	
739	0	33074	
740	0	32944	
741	0	32873	
742	0	32821	
743	0	32796	
744	0	32796	
745	0	32772	
746	0	32736	
747	0	32676	
748	0	32600	
749	0	32532	
750	0	32464	
751	0	32364	
752	0	32244	
753	0	32132	
754	0	32086	
755	0	32032	
756	0	31964	
757	0	31928	
758	0	31858	
759	0	31777	
760	0	31689	
761	0	31648	
762	0	31652	
763	0	31650	
764	0	31611	
765	0	31583	
766	0	31540	
767	0	31464	
768	0	31381	
769	0	31312	
770	0	31216	
771	0	31181	
772	0	31170	
773	0	31170	
774	0	31156	
775	0	31175	
776	0	31176	
777	0	31186	
778	0	31140	
779	0	31122	
780	0	31140	
781	0	31215	
782	0	31268	
783	0	31304	
784	0	31323	
785	0	31352	
786	0	31416	
787	0	31462	
788	0	31480	
789	0	31468	
790	0	31460	
791	0	31428	
792	0	31384	
793	0	31319	
794	0	31232	
795	0	31192	
796	0	31215	
797	0	31261	
798	0	31298	
799	0	31254	
800	0	31212	
801	0	31238	
802	0	31359	
803	0	31524	
804	0	31648	
805	0	31716	
806	0	31751	
807	0	31776	
808	0	31774	
809	0	31789	
810	0	31805	
811	0	31805	
812	0	31762	
813	0	31751	
814	0	31765	
815	0	31764	
816	0	31741	
817	0	31686	
818	0	31617	
819	0	31528	
820	0	31501	
821	0	31530	
822	0	31590	
823	0	31654	
824	0	31732	
825	0	31830	
826	0	31910	
827	0	31972	
828	0	32015	
829	0	32019	
830	0	32013	
831	0	32004	
832	0	32002	
833	0	32000	
834	0	32028	
835	0	32100	
836	0	32176	
837	0	32226	
838	0	32236	
839	0	32209	
840	0	32140	
841	0	32066	
842	0	32040	
843	0	32062	
844	0	32084	
845	0	32126	
846	0	32190	
847	0	32230	
848	0	32222	
849	0	32224	
850	0	32246	
851	0	32215	
852	0	32152	
853	0	32129	
854	0	32118	
855	0	32150	
856	0	32140	
857	0	32160	
858	0	32237	
859	0	32316	
860	0	32313	
861	0	32312	
862	0	32310	
863	0	32290	
864	0	32319	
865	0	32324	
866	0	32288	
867	0	32242	
868	0	32232	
869	0	32244	
870	0	32286	
871	0	32362	
872	0	32389	
873	0	32416	
874	0	32440	
875	0	32415	
876	0	32361	
877	0	32301	
878	0	32256	
879	0	32227	
880	0	32218	
881	0	32240	
882	0	32280	
883	0	32301	
884	0	32316	
885	0	32312	
886	0	32296	
887	0	32256	
888	0	32208	
889	0	32164	
890	0	32085	
891	0	32026	
892	0	32002	
893	0	32016	
894	0	32025	
895	0	32007	
896	0	31968	
897	0	31936	
898	0	31922	
899	0	31908	
900	0	31888	
901	0	31876	
902	0	31910	
903	0	31956	
904	0	31990	
905	0	32036	
906	0	32068	
907	0	32058	
908	0	32044	
909	0	32000	
910	0	31977	
911	0	31919	
912	0	31860	
913	0	31805	
914	0	31750	
915	0	31715	
916	0	31714	
917	0	31751	
918	0	31794	
919	0	31830	
920	0	31876	
921	0	31924	
922	0	31960	
923	0	31996	
924	0	32031	
925	0	32020	
926	0	32005	
927	0	31982	
928	0	31968	
929	0	31964	
930	0	31989	
931	0	32007	
932	0	32032	
933	0	32038	
934	0	32024	
935	0	32072	
936	0	32180	
937	0	32296	
938	0	32412	
939	0	32516	
940	0	32581	
941	0	32680	
942	0	32804	
943	0	32932	
944	0	33068	
945	0	33130	
946	0	33140	
947	0	33191	
948	0	33304	
949	0	33448	
950	0	33556	
951	0	33572	
952	0	33556	
953	0	33576	
954	0	33616	
955	0	33628	
956	0	33616	
957	0	33588	
958	0	33529	
959	0	33472	
960	0	33408	
961	0	33331	
962	0	33334	
963	0	33464	
964	0	33708	
965	0	33992	
966	0	34228	
967	0	34402	
968	0	34572	
969	0	34734	
970	0	34866	
971	0	34956	
972	0	35043	
973	0	35109	
974	0	35124	
975	0	35143	
976	0	35100	
977	0	34974	
978	0	34823	
979	0	34716	
980	0	34646	
981	0	34612	
982	0	34576	
983	0	34625	
984	0	34744	
985	0	34840	
986	0	34885	
987	0	34858	
988	0	34766	
989	0	34652	
990	0	34554	
991	0	34492	
992	0	34440	
993	0	34374	
994	0	34253	
995	0	34096	
996	0	33905	
997	0	33654	
998	0	33382	
999	0	33169	
1000	0	33010	
1001	0	32906	
1002	0	32848	
1003	0	32790	
1004	0	32775	
1005	0	32741	
1006	0	32692	
1007	0	32620	
1008	0	32528	
1009	0	32386	
1010	0	32198	
1011	0	31962	
1012	0	31712	
1013	0	31468	
1014	0	31287	
1015	0	31126	
1016	0	31001	
1017	0	30942	
1018	0	30898	
1019	0	30800	
1020	0	30736	
1021	0	30740	
1022	0	30716	
1023	0	30690	
1024	0	30688	
1025	0	30666	
1026	0	30580	
1027	0	30506	
1028	0	30515	
1029	0	30511	
1030	0	30472	
1031	0	30400	
1032	0	30340	
1033	0	30292	
1034	0	30224	
1035	0	30192	
1036	0	30200	
1037	0	30232	
1038	0	30237	
1039	0	30200	
1040	0	30196	
1041	0	30239	
1042	0	30286	
1043	0	30348	
1044	0	30428	
1045	0	30500	
1046	0	30564	
1047	0	30601	
1048	0	30638	
1049	0	30701	
1050	0	30768	
1051	0	30802	
1052	0	30866	
1053	0	30918	
1054	0	30901	
1055	0	30904	
1056	0	30940	
1057	0	30980	
1058	0	30994	
1059	0	30972	
1060	0	30882	
1061	0	30835	
1062	0	30831	
1063	0	30844	
1064	0	30870	
1065	0	30893	
1066	0	30896	
1067	0	30915	
1068	0	30921	
1069	0	30954	
1070	0	30992	
1071	0	31020	
1072	0	30976	
1073	0	30916	
1074	0	30840	
1075	0	30694	
1076	0	30496	
1077	0	30249	
1078	0	29994	
1079	0	29790	
1080	0	29624	
1081	0	29520	
1082	0	29440	
1083	0	29373	
1084	0	29308	
1085	0	29250	
1086	0	29160	
1087	0	29078	
1088	0	29122	
1089	0	29364	
1090	0	29720	
1091	0	30157	
1092	0	30616	
1093	0	31088	
1094	0	31648	
1095	0	32244	
1096	0	32908	
1097	0	33785	
1098	0	34813	
1099	0	35877	
1100	0	36871	
1101	0	38024	
1102	0	39350	
1103	0	40737	
1104	0	42270	
1105	0	43964	
1106	0	45906	
1107	0	47912	
1108	0	49748	
1109	0	51290	
1110	0	52500	
1111	0	53474	
1112	0	54308	
1113	0	55037	
1114	0	55616	
1115	0	55928	
1116	0	56061	
1117	0	55815	
1118	0	55036	
1119	0	53734	
1120	0	52009	
1121	0	49892	
1122	0	47648	
1123	0	45432	
1124	0	43244	
1125	0	41104	
1126	0	38964	
1127	0	36896	
1128	0	35020	
1129	0	33385	
1130	0	31943	
1131	0	30770	
1132	0	29921	
1133	0	29344	
1134	0	29008	
1135	0	28883	
1136	0	28961	
1137	0	29117	
1138	0	29329	
1139	0	29533	
1140	0	29656	
1141	0	29726	
1142	0	29770	
1143	0	29813	
1144	0	29874	
1145	0	29952	
1146	0	30048	
1147	0	30118	
1148	0	30135	
1149	0	30126	
1150	0	30160	
1151	0	30208	
1152	0	30214	
1153	0	30167	
1154	0	30112	
1155	0	30054	
1156	0	29974	
1157	0	29926	
1158	0	29924	
1159	0	29924	
1160	0	29912	
1161	0	29892	
1162	0	29892	
1163	0	29912	
1164	0	29920	
1165	0	29912	
1166	0	29924	
1167	0	29937	
1168	0	29959	
1169	0	29973	
1170	0	30008	
1171	0	30036	
1172	0	30080	
1173	0	30080	
1174	0	30028	
1175	0	29970	
1176	0	29928	
1177	0	29924	
1178	0	29929	
1179	0	29948	
1180	0	29960	
1181	0	30040	
1182	0	30132	
1183	0	30188	
1184	0	30248	
1185	0	30280	
1186	0	30276	
1187	0	30215	
1188	0	30215	
1189	0	30288	
1190	0	30352	
1191	0	30377	
1192	0	30408	
1193	0	30454	
1194	0	30530	
1195	0	30560	
1196	0	30564	
1197	0	30524	
1198	0	30525	
1199	0	30540	
1200	0	30564	
1201	0	30576	
1202	0	30616	
1203	0	30638	
1204	0	30703	
1205	0	30748	
1206	0	30768	
1207	0	30814	
1208	0	30826	
1209	0	30847	
1210	0	30858	
1211	0	30857	
1212	0	30862	
1213	0	30843	
1214	0	30872	
1215	0	30904	
1216	0	30930	
1217	0	30917	
1218	0	30913	
1219	0	30889	
1220	0	30852	
1221	0	30878	
1222	0	31005	
1223	0	31124	
1224	0	31304	
1225	0	31483	
1226	0	31586	
1227	0	31632	
1228	0	31676	
1229	0	31710	
1230	0	31738	
1231	0	31751	
1232	0	31764	
1233	0	31812	
1234	0	31875	
1235	0	31916	
1236	0	31972	
1237	0	32029	
1238	0	32100	
1239	0	32206	
1240	0	32263	
1241	0	32302	
1242	0	32316	
1243	0	32352	
1244	0	32374	
1245	0	32338	
1246	0	32281	
1247	0	32256	
1248	0	32220	
1249	0	32158	
1250	0	32065	
1251	0	32057	
1252	0	32071	
1253	0	32092	
1254	0	32135	
1255	0	32216	
1256	0	32280	
1257	0	32346	
1258	0	32397	
1259	0	32415	
1260	0	32422	
1261	0	32464	
1262	0	32516	
1263	0	32557	
1264	0	32596	
1265	0	32640	
1266	0	32696	
1267	0	32736	
1268	0	32757	
1269	0	32764	
1270	0	32775	
1271	0	32775	
1272	0	32757	
1273	0	32785	
1274	0	32840	
1275	0	32925	
1276	0	33030	
1277	0	33144	
1278	0	33210	
1279	0	33260	
1280	0	33300	
1281	0	33338	
1282	0	33387	
1283	0	33436	
1284	0	33470	
1285	0	33518	
1286	0	33576	
1287	0	33599	
1288	0	33597	
1289	0	33629	
1290	0	33690	
1291	0	33738	
1292	0	33744	
1293	0	33712	
1294	0	33747	
1295	0	33850	
1296	0	33905	
1297	0	33932	
1298	0	33988	
1299	0	34008	
1300	0	34030	
1301	0	34092	
1302	0	34182	
1303	0	34272	
1304	0	34373	
1305	0	34436	
1306	0	34460	
1307	0	34486	
1308	0	34512	
1309	0	34512	
1310	0	34524	
1311	0	34564	
1312	0	34628	
1313	0	34644	
1314	0	34671	
1315	0	34676	
1316	0	34662	
1317	0	34688	
1318	0	34674	
1319	0	34669	
1320	0	34631	
1321	0	34631	
1322	0	34692	
1323	0	34800	
1324	0	34880	
1325	0	34890	
1326	0	34866	
1327	0	34834	
1328	0	34881	
1329	0	34882	
1330	0	34853	
1331	0	34792	
1332	0	34752	
1333	0	34714	
1334	0	34705	
1335	0	34722	
1336	0	34752	
1337	0	34758	
1338	0	34784	
1339	0	34804	
1340	0	34836	
1341	0	34844	
1342	0	34818	
1343	0	34797	
1344	0	34768	
1345	0	34724	
1346	0	34682	
1347	0	34625	
1348	0	34564	
1349	0	34530	
1350	0	34564	
1351	0	34624	
1352	0	34676	
1353	0	34700	
1354	0	34665	
1355	0	34591	
1356	0	34520	
1357	0	34450	
1358	0	34390	
1359	0	34384	
1360	0	34354	
1361	0	34316	
1362	0	34280	
1363	0	34208	
1364	0	34114	
1365	0	34022	
1366	0	33932	
1367	0	33846	
1368	0	33752	
1369	0	33698	
1370	0	33658	
1371	0	33604	
1372	0	33545	
1373	0	33494	
1374	0	33448	
1375	0	33386	
1376	0	33280	
1377	0	33151	
1378	0	33080	
1379	0	33055	
1380	0	33005	
1381	0	32932	
1382	0	32864	
1383	0	32790	
1384	0	32722	
1385	0	32647	
1386	0	32566	
1387	0	32489	
1388	0	32436	
1389	0	32383	
1390	0	32318	
1391	0	32258	
1392	0	32167	
1393	0	32100	
1394	0	32052	
1395	0	32012	
1396	0	31948	
1397	0	31866	
1398	0	31789	
1399	0	31725	
1400	0	31643	
1401	0	31536	
1402	0	31441	
1403	0	31425	
1404	0	31466	
1405	0	31489	
1406	0	31490	
1407	0	31500	
1408	0	31481	
1409	0	31474	
1410	0	31501	
1411	0	31522	
1412	0	31522	
1413	0	31505	
1414	0	31466	
1415	0	31440	
1416	0	31400	
1417	0	31340	
1418	0	31300	
1419	0	31268	
1420	0	31239	
1421	0	31260	
1422	0	31292	
1423	0	31320	
1424	0	31354	
1425	0	31384	
1426	0	31378	
1427	0	31370	
1428	0	31378	
1429	0	31374	
1430	0	31356	
1431	0	31296	
1432	0	31260	
1433	0	31236	
1434	0	31271	
1435	0	31320	
1436	0	31379	
1437	0	31385	
1438	0	31375	
1439	0	31350	
1440	0	31340	
1441	0	31344	
1442	0	31402	
1443	0	31490	
1444	0	31621	
1445	0	31738	
1446	0	31844	
1447	0	31866	
1448	0	31836	
1449	0	31834	
1450	0	31828	
1451	0	31820	
1452	0	31800	
1453	0	31770	
1454	0	31750	
1455	0	31766	
1456	0	31781	
1457	0	31730	
1458	0	31716	
1459	0	31712	
1460	0	31698	
1461	0	31703	
1462	0	31730	
1463	0	31804	
1464	0	31896	
1465	0	31948	
1466	0	31960	
1467	0	31954	
1468	0	31965	
1469	0	31990	
1470	0	32040	
1471	0	32108	
1472	0	32141	
1473	0	32198	
1474	0	32216	
1475	0	32236	
1476	0	32256	
1477	0	32282	
1478	0	32248	
1479	0	32226	
1480	0	32238	
1481	0	32304	
1482	0	32388	
1483	0	32429	
1484	0	32446	
1485	0	32427	
1486	0	32359	
1487	0	32292	
1488	0	32256	
1489	0	32248	
1490	0	32250	
1491	0	32295	
1492	0	32348	
1493	0	32412	
1494	0	32420	
1495	0	32416	
1496	0	32373	
1497	0	32340	
1498	0	32288	
1499	0	32240	
1500	0	32178	
1501	0	32110	
1502	0	32060	
1503	0	32004	
1504	0	32014	
1505	0	32089	
1506	0	32196	
1507	0	32280	
1508	0	32312	
1509	0	32332	
1510	0	32356	
1511	0	32356	
1512	0	32327	
1513	0	32306	
1514	0	32360	
1515	0	32420	
1516	0	32463	
1517	0	32400	
1518	0	32304	
1519	0	32208	
1520	0	32140	
1521	0	32065	
1522	0	32037	
1523	0	32050	
1524	0	32101	
1525	0	32165	
1526	0	32216	
1527	0	32256	
1528	0	32304	
1529	0	32327	
1530	0	32310	
1531	0	32290	
1532	0	32258	
1533	0	32218	
1534	0	32164	
1535	0	32110	
1536	0	32045	
1537	0	32019	
1538	0	32003	
1539	0	32000	
1540	0	32023	
1541	0	32037	
1542	0	32023	
1543	0	32030	
1544	0	32061	
1545	0	32074	
1546	0	32064	
1547	0	32040	
1548	0	32006	
1549	0	32006	
1550	0	32000	
1551	0	31989	
1552	0	32031	
1553	0	32046	
1554	0	32024	
1555	0	32022	
1556	0	31988	
1557	0	31919	
1558	0	31856	
1559	0	31832	
1560	0	31832	
1561	0	31905	
1562	0	31985	
1563	0	32069	
1564	0	32083	
1565	0	32033	
1566	0	31995	
1567	0	31954	
1568	0	31949	
1569	0	31911	
1570	0	31860	
1571	0	31832	
1572	0	31796	
1573	0	31822	
1574	0	31856	
1575	0	31922	
1576	0	31973	
1577	0	31997	
1578	0	31989	
1579	0	31948	
1580	0	31942	
1581	0	31910	
1582	0	31858	
1583	0	31840	
1584	0	31816	
1585	0	31874	
1586	0	31964	
1587	0	32038	
1588	0	32068	
1589	0	32111	
1590	0	32176	
1591	0	32253	
1592	0	32263	
1593	0	32320	
1594	0	32385	
1595	0	32480	
1596	0	32584	
1597	0	32715	
1598	0	32832	
1599	0	32922	
1600	0	33040	
1601	0	33136	
1602	0	33216	
1603	0	33287	
1604	0	33362	
1605	0	33408	
1606	0	33452	
1607	0	33531	
1608	0	33616	
1609	0	33682	
1610	0	33722	
1611	0	33714	
1612	0	33718	
1613	0	33724	
1614	0	33712	
1615	0	33684	
1616	0	33648	
1617	0	33649	
1618	0	33660	
1619	0	33663	
1620	0	33668	
1621	0	33668	
1622	0	33704	
1623	0	33821	
1624	0	33976	
1625	0	34133	
1626	0	34294	
1627	0	34469	
1628	0	34620	
1629	0	34770	
1630	0	34912	
1631	0	35032	
1632	0	35109	
1633	0	35126	
1634	0	35114	
1635	0	35081	
1636	0	35024	
1637	0	34951	
1638	0	34896	
1639	0	34840	
1640	0	34794	
1641	0	34823	
1642	0	34916	
1643	0	34996	
1644	0	35078	
1645	0	35160	
1646	0	35184	
1647	0	35164	
1648	0	35078	
1649	0	34958	
1650	0	34836	
1651	0	34720	
1652	0	34669	
1653	0	34614	
1654	0	34532	
1655	0	34374	
1656	0	34192	
1657	0	33998	
1658	0	33778	
1659	0	33541	
1660	0	33340	
1661	0	33211	
1662	0	33096	
1663	0	33004	
1664	0	32948	
1665	0	32919	
1666	0	32875	
1667	0	32797	
1668	0	32697	
1669	0	32557	
1670	0	32394	
1671	0	32202	
1672	0	32070	
1673	0	31994	
1674	0	31847	
1675	0	31686	
1676	0	31522	
1677	0	31354	
1678	0	31188	
1679	0	30996	
1680	0	30843	
1681	0	30752	
1682	0	30688	
1683	0	30702	
1684	0	30740	
1685	0	30770	
1686	0	30767	
1687	0	30758	
1688	0	30737	
1689	0	30695	
1690	0	30644	
1691	0	30589	
1692	0	30528	
1693	0	30468	
1694	0	30434	
1695	0	30368	
1696	0	30336	
1697	0	30335	
1698	0	30341	
1699	0	30343	
1700	0	30356	
1701	0	30388	
1702	0	30450	
1703	0	30524	
1704	0	30561	
1705	0	30540	
1706	0	30518	
1707	0	30493	
1708	0	30490	
1709	0	30514	
1710	0	30565	
1711	0	30592	
1712	0	30590	
1713	0	30590	
1714	0	30598	
1715	0	30589	
1716	0	30587	
1717	0	30614	
1718	0	30662	
1719	0	30680	
1720	0	30698	
1721	0	30726	
1722	0	30834	
1723	0	30931	
1724	0	31012	
1725	0	31061	
1726	0	31080	
1727	0	31068	
1728	0	31038	
1729	0	31054	
1730	0	31076	
1731	0	31056	
1732	0	31036	
1733	0	31014	
1734	0	30970	
1735	0	30872	
1736	0	30672	
1737	0	30406	
1738	0	30117	
1739	0	29896	
1740	0	29798	
1741	0	29720	
1742	0	29716	
1743	0	29703	
1744	0	29639	
1745	0	29534	
1746	0	29446	
1747	0	29338	
1748	0	29276	
1749	0	29336	
1750	0	29496	
1751	0	29763	
1752	0	30153	
1753	0	30556	
1754	0	30976	
1755	0	31496	
1756	0	32096	
1757	0	32834	
1758	0	33798	
1759	0	34868	
1760	0	35924	
1761	0	37068	
1762	0	38360	
1763	0	39709	
1764	0	41120	
1765	0	42788	
1766	0	44685	
1767	0	46764	
1768	0	48800	
1769	0	50517	
1770	0	51834	
1771	0	52972	
1772	0	53932	
1773	0	54716	
1774	0	55372	
1775	0	55888	
1776	0	56269	
1777	0	56463	
1778	0	56130	
1779	0	55228	
1780	0	53802	
1781	0	51904	
1782	0	49688	
1783	0	47444	
1784	0	45278	
1785	0	43168	
1786	0	41052	
1787	0	38972	
1788	0	37028	
1789	0	35271	
1790	0	33696	
1791	0	32380	
1792	0	31312	
1793	0	30522	
1794	0	30012	
1795	0	29812	
1796	0	29831	
1797	0	29936	
1798	0	30076	
1799	0	30124	
1800	0	30123	
1801	0	30073	
1802	0	30002	
1803	0	29951	
1804	0	29933	
1805	0	29956	
1806	0	29997	
1807	0	30022	
1808	0	30074	
1809	0	30140	
1810	0	30188	
1811	0	30196	
1812	0	30120	
1813	0	30020	
1814	0	29978	
1815	0	29980	
1816	0	30012	
1817	0	30024	
1818	0	30006	
1819	0	29968	
1820	0	29944	
1821	0	29911	
1822	0	29896	
1823	0	29932	
1824	0	29981	
1825	0	30018	
1826	0	30058	
1827	0	30056	
1828	0	30058	
1829	0	30044	
1830	0	30026	
1831	0	30020	
1832	0	30044	
1833	0	30037	
1834	0	30022	
1835	0	29984	
1836	0	29933	
1837	0	29904	
1838	0	29880	
1839	0	29853	
1840	0	29868	
1841	0	29884	
1842	0	29920	
1843	0	29972	
1844	0	30028	
1845	0	30090	
1846	0	30136	
1847	0	30190	
1848	0	30230	
1849	0	30278	
1850	0	30313	
1851	0	30357	
1852	0	30384	
1853	0	30422	
1854	0	30404	
1855	0	30409	
1856	0	30400	
1857	0	30402	
1858	0	30407	
1859	0	30396	
1860	0	30386	
1861	0	30361	
1862	0	30365	
1863	0	30394	
1864	0	30460	
1865	0	30520	
1866	0	30576	
1867	0	30590	
1868	0	30560	
1869	0	30562	
1870	0	30608	
1871	0	30692	
1872	0	30813	
1873	0	30898	
1874	0	30940	
1875	0	30942	
1876	0	30938	
1877	0	30964	
1878	0	30996	
1879	0	31030	
1880	0	31076	
1881	0	31122	
1882	0	31236	
1883	0	31340	
1884	0	31384	
1885	0	31408	
1886	0	31455	
1887	0	31524	
1888	0	31580	
1889	0	31604	
1890	0	31628	
1891	0	31644	
1892	0	31639	
1893	0	31622	
1894	0	31623	
1895	0	31648	
1896	0	31694	
1897	0	31742	
1898	0	31788	
1899	0	31858	
1900	0	31914	
1901	0	31956	
1902	0	32010	
1903	0	32073	
1904	0	32100	
1905	0	32130	
1906	0	32161	
1907	0	32228	
1908	0	32321	
1909	0	32336	
1910	0	32324	
1911	0	32306	
1912	0	32327	
1913	0	32350	
1914	0	32386	
1915	0	32439	
1916	0	32498	
1917	0	32548	
1918	0	32550	
1919	0	32519	
1920	0	32489	
1921	0	32500	
1922	0	32556	
1923	0	32624	
1924	0	32703	
1925	0	32770	
1926	0	32828	
1927	0	32872	
1928	0	32940	
1929	0	33000	
1930	0	33042	
1931	0	33070	
1932	0	33115	
1933	0	33126	
1934	0	33124	
1935	0	33100	
1936	0	33068	
1937	0	33044	
1938	0	33049	
1939	0	33094	
1940	0	33122	
1941	0	33150	
1942	0	33186	
1943	0	33252	
1944	0	33360	
1945	0	33463	
1946	0	33545	
1947	0	33600	
1948	0	33632	
1949	0	33658	
1950	0	33733	
1951	0	33828	
1952	0	33916	
1953	0	33954	
1954	0	34000	
1955	0	34064	
1956	0	34136	
1957	0	34156	
1958	0	34164	
1959	0	34156	
1960	0	34158	
1961	0	34158	
1962	0	34218	
1963	0	34294	
1964	0	34376	
1965	0	34439	
1966	0	34466	
1967	0	34478	
1968	0	34502	
1969	0	34567	
1970	0	34662	
1971	0	34746	
1972	0	34808	
1973	0	34823	
1974	0	34819	
1975	0	34816	
1976	0	34812	
1977	0	34774	
1978	0	34748	
1979	0	34742	
1980	0	34746	
1981	0	34776	
1982	0	34823	
1983	0	34892	
1984	0	34962	
1985	0	34980	
1986	0	34967	
1987	0	34918	
1988	0	34891	
1989	0	34860	
1990	0	34847	
1991	0	34841	
1992	0	34823	
1993	0	34784	
1994	0	34709	
1995	0	34611	
1996	0	34592	
1997	0	34636	
1998	0	34690	
1999	0	34700	
2000	0	34671	
2001	0	34631	
2002	0	34650	
2003	0	34683	
2004	0	34704	
2005	0	34746	
2006	0	34720	
2007	0	34639	
2008	0	34551	
2009	0	34510	
2010	0	34492	
2011	0	34459	
2012	0	34424	
2013	0	34380	
2014	0	34311	
2015	0	34235	
2016	0	34150	
2017	0	34086	
2018	0	34068	
2019	0	34025	
2020	0	33972	
2021	0	33914	
2022	0	33856	
2023	0	33824	
2024	0	33795	
2025	0	33772	
2026	0	33746	
2027	0	33746	
2028	0	33724	
2029	0	33666	
2030	0	33603	
2031	0	33500	
2032	0	33404	
2033	0	33360	
2034	0	33388	
2035	0	33420	
2036	0	33437	
2037	0	33413	
2038	0	33359	
2039	0	33287	
2040	0	33214	
2041	0	33120	
2042	0	33037	
2043	0	32969	
2044	0	32898	
2045	0	32852	
2046	0	32801	
2047	0	32775	
2048	0	32748	
2049	0	32722	
2050	0	32676	
2051	0	32594	
2052	0	32504	
2053	0	32391	
2054	0	32280	
2055	0	32219	
2056	0	32160	
2057	0	32130	
2058	0	32069	
2059	0	31996	
2060	0	31908	
2061	0	31859	
2062	0	31829	
2063	0	31848	
2064	0	31866	
2065	0	31852	
2066	0	31847	
2067	0	31824	
2068	0	31818	
2069	0	31792	
2070	0	31760	
2071	0	31708	
2072	0	31676	
2073	0	31636	
2074	0	31590	
2075	0	31576	
2076	0	31552	
2077	0	31514	
2078	0	31492	
2079	0	31464	
2080	0	31456	
2081	0	31460	
2082	0	31498	
2083	0	31554	
2084	0	31567	
2085	0	31556	
2086	0	31557	
2087	0	31545	
2088	0	31514	
2089	0	31495	
2090	0	31500	
2091	0	31504	
2092	0	31496	
2093	0	31490	
2094	0	31494	
2095	0	31492	
2096	0	31510	
2097	0	31560	
2098	0	31604	
2099	0	31674	
2100	0	31735	
2101	0	31796	
2102	0	31845	
2103	0	31879	
2104	0	31924	
2105	0	31968	
2106	0	31976	
2107	0	31984	
2108	0	31996	
2109	0	32030	
2110	0	32048	
2111	0	32071	
2112	0	32102	
2113	0	32116	
2114	0	32156	
2115	0	32184	
2116	0	32200	
2117	0	32208	
2118	0	32214	
2119	0	32217	
2120	0	32224	
2121	0	32208	
2122	0	32226	
2123	0	32263	
2124	0	32318	
2125	0	32320	
2126	0	32326	
2127	0	32336	
2128	0	32343	
2129	0	32306	
2130	0	32296	
2131	0	32282	
2132	0	32263	
2133	0	32236	
2134	0	32213	
2135	0	32205	
2136	0	32241	
2137	0	32316	
2138	0	32398	
2139	0	32429	
2140	0	32412	
2141	0	32416	
2142	0	32476	
2143	0	32590	
2144	0	32656	
2145	0	32640	
2146	0	32606	
2147	0	32518	
2148	0	32462	
2149	0	32413	
2150	0	32390	
2151	0	32405	
2152	0	32414	
2153	0	32399	
2154	0	32430	
2155	0	32504	
2156	0	32578	
2157	0	32621	
2158	0	32635	
2159	0	32624	
2160	0	32615	
2161	0	32568	
2162	0	32514	
2163	0	32480	
2164	0	32540	
2165	0	32612	
2166	0	32677	
2167	0	32722	
2168	0	32772	
2169	0	32764	
2170	0	32712	
2171	0	32647	
2172	0	32576	
2173	0	32534	
2174	0	32500	
2175	0	32460	
2176	0	32432	
2177	0	32391	
2178	0	32352	
2179	0	32308	
2180	0	32300	
2181	0	32302	
2182	0	32341	
2183	0	32389	
2184	0	32421	
2185	0	32459	
2186	0	32452	
2187	0	32416	
2188	0	32383	
2189	0	32352	
2190	0	32349	
2191	0	32348	
2192	0	32320	
2193	0	32284	
2194	0	32251	
2195	0	32226	
2196	0	32204	
2197	0	32180	
2198	0	32143	
2199	0	32134	
2200	0	32106	
2201	0	32084	
2202	0	32095	
2203	0	32128	
2204	0	32176	
2205	0	32192	
2206	0	32200	
2207	0	32214	
2208	0	32228	
2209	0	32240	
2210	0	32250	
2211	0	32263	
2212	0	32262	
2213	0	32250	
2214	0	32223	
2215	0	32176	
2216	0	32138	
2217	0	32088	
2218	0	32061	
2219	0	32045	
2220	0	32016	
2221	0	31972	
2222	0	31974	
2223	0	32030	
2224	0	32123	
2225	0	32188	
2226	0	32238	
2227	0	32287	
2228	0	32306	
2229	0	32317	
2230	0	32288	
2231	0	32238	
2232	0	32194	
2233	0	32144	
2234	0	32125	
2235	0	32123	
2236	0	32101	
2237	0	32088	
2238	0	32098	
2239	0	32144	
2240	0	32176	
2241	0	32224	
2242	0	32263	
2243	0	32322	
2244	0	32368	
2245	0	32420	
2246	0	32388	
2247	0	32367	
2248	0	32349	
2249	0	32338	
2250	0	32320	
2251	0	32302	
2252	0	32300	
2253	0	32334	
2254	0	32372	
2255	0	32428	
2256	0	32474	
2257	0	32493	
2258	0	32492	
2259	0	32451	
2260	0	32384	
2261	0	32364	
2262	0	32338	
2263	0	32353	
2264	0	32413	
2265	0	32494	
2266	0	32561	
2267	0	32554	
2268	0	32514	
2269	0	32452	
2270	0	32420	
2271	0	32406	
2272	0	32391	
2273	0	32336	
2274	0	32320	
2275	0	32340	
2276	0	32337	
2277	0	32318	
2278	0	32320	
2279	0	32332	
2280	0	32352	
2281	0	32359	
2282	0	32359	
2283	0	32405	
2284	0	32473	
2285	0	32540	
2286	0	32600	
2287	0	32648	
2288	0	32680	
2289	0	32682	
2290	0	32670	
2291	0	32616	
2292	0	32546	
2293	0	32482	
2294	0	32462	
2295	0	32442	
2296	0	32420	
2297	0	32416	
2298	0	32452	
2299	0	32484	
2300	0	32553	
2301	0	32630	
2302	0	32757	
2303	0	32940	
2304	0	33182	
2305	0	33396	
2306	0	33564	
2307	0	33652	
2308	0	33701	
2309	0	33710	
2310	0	33703	
2311	0	33692	
2312	0	33688	
2313	0	33692	
2314	0	33761	
2315	0	33920	
2316	0	34078	
2317	0	34201	
2318	0	34308	
2319	0	34382	
2320	0	34432	
2321	0	34426	
2322	0	34452	
2323	0	34462	
2324	0	34464	
2325	0	34439	
2326	0	34416	
2327	0	34368	
2328	0	34403	
2329	0	34452	
2330	0	34560	
2331	0	34700	
2332	0	34823	
2333	0	34929	
2334	0	35030	
2335	0	35156	
2336	0	35258	
2337	0	35264	
2338	0	35267	
2339	0	35280	
2340	0	35304	
2341	0	35356	
2342	0	35382	
2343	0	35378	
2344	0	35368	
2345	0	35332	
2346	0	35301	
2347	0	35258	
2348	0	35220	
2349	0	35204	
2350	0	35209	
2351	0	35238	
2352	0	35316	
2353	0	35382	
2354	0	35381	
2355	0	35326	
2356	0	35223	
2357	0	35068	
2358	0	34946	
2359	0	34807	
2360	0	34701	
2361	0	34566	
2362	0	34415	
2363	0	34254	
2364	0	34085	
2365	0	33906	
2366	0	33696	
2367	0	33476	
2368	0	33304	
2369	0	33196	
2370	0	33140	
2371	0	33114	
2372	0	33106	
2373	0	33034	
2374	0	32913	
2375	0	32812	
2376	0	32708	
2377	0	32568	
2378	0	32382	
2379	0	32199	
2380	0	32109	
2381	0	31959	
2382	0	31794	
2383	0	31658	
2384	0	31533	
2385	0	31429	
2386	0	31302	
2387	0	31180	
2388	0	31119	
2389	0	31048	
2390	0	30982	
2391	0	30924	
2392	0	30873	
2393	0	30812	
2394	0	30746	
2395	0	30672	
2396	0	30594	
2397	0	30544	
2398	0	30498	
2399	0	30431	
2400	0	30362	
2401	0	30320	
2402	0	30292	
2403	0	30304	
2404	0	30370	
2405	0	30413	
2406	0	30418	
2407	0	30398	
2408	0	30384	
2409	0	30384	
2410	0	30404	
2411	0	30452	
2412	0	30480	
2413	0	30493	
2414	0	30534	
2415	0	30583	
2416	0	30640	
2417	0	30676	
2418	0	30678	
2419	0	30620	
2420	0	30544	
2421	0	30512	
2422	0	30512	
2423	0	30534	
2424	0	30591	
2425	0	30652	
2426	0	30705	
2427	0	30720	
2428	0	30727	
2429	0	30777	
2430	0	30846	
2431	0	30939	
2432	0	31005	
2433	0	31013	
2434	0	30999	
2435	0	30976	
2436	0	30944	
2437	0	30896	
2438	0	30836	
2439	0	30768	
2440	0	30721	
2441	0	30680	
2442	0	30637	
2443	0	30530	
2444	0	30381	
2445	0	30162	
2446	0	29959	
2447	0	29782	
2448	0	29658	
2449	0	29548	
2450	0	29452	
2451	0	29281	
2452	0	29060	
2453	0	28869	
2454	0	28734	
2455	0	28660	
2456	0	28640	
2457	0	28702	
2458	0	28869	
2459	0	29161	
2460	0	29519	
2461	0	29925	
2462	0	30409	
2463	0	30948	
2464	0	31584	
2465	0	32410	
2466	0	33466	
2467	0	34554	
2468	0	35685	
2469	0	36919	
2470	0	38288	
2471	0	39776	
2472	0	41390	
2473	0	43232	
2474	0	45280	
2475	0	47356	
2476	0	49236	
2477	0	50804	
2478	0	52096	
2479	0	53228	
2480	0	54173	
2481	0	54948	
2482	0	55688	
2483	0	56360	
2484	0	56839	
2485	0	56922	
2486	0	56282	
2487	0	54980	
2488	0	53250	
2489	0	51174	
2490	0	49018	
2491	0	46864	
2492	0	44794	
2493	0	42796	
2494	0	40814	
2495	0	38872	
2496	0	37060	
2497	0	35356	
2498	0	33767	
2499	0	32428	
2500	0	31410	
2501	0	30760	
2502	0	30498	
2503	0	30528	
2504	0	30626	
2505	0	30674	
2506	0	30653	
2507	0	30596	
2508	0	30512	
2509	0	30441	
2510	0	30419	
2511	0	30379	
2512	0	30256	
2513	0	30126	
2514	0	30030	
2515	0	30044	
2516	0	30021	
2517	0	29940	
2518	0	29828	
2519	0	29761	
2520	0	29754	
2521	0	29744	
2522	0	29728	
2523	0	29700	
2524	0	29701	
2525	0	29693	
2526	0	29666	
2527	0	29616	
2528	0	29559	
2529	0	29546	
2530	0	29541	
2531	0	29542	
2532	0	29540	
2533	0	29552	
2534	0	29601	
2535	0	29632	
2536	0	29620	
2537	0	29624	
2538	0	29620	
2539	0	29618	
2540	0	29616	
2541	0	29597	
2542	0	29602	
2543	0	29600	
2544	0	29634	
2545	0	29703	
2546	0	29762	
2547	0	29792	
2548	0	29794	
2549	0	29797	
2550	0	29807	
2551	0	29809	
2552	0	29826	
2553	0	29808	
2554	0	29796	
2555	0	29794	
2556	0	29815	
2557	0	29828	
2558	0	29831	
2559	0	29842	
2560	0	29860	
2561	0	29901	
2562	0	29958	
2563	0	30042	
2564	0	30106	
2565	0	30201	
2566	0	30249	
2567	0	30300	
2568	0	30354	
2569	0	30420	
2570	0	30489	
2571	0	30554	
2572	0	30616	
2573	0	30648	
2574	0	30655	
2575	0	30658	
2576	0	30688	
2577	0	30704	
2578	0	30716	
2579	0	30760	
2580	0	30714	
2581	0	30654	
2582	0	30634	
2583	0	30665	
2584	0	30760	
2585	0	30868	
2586	0	30937	
2587	0	30992	
2588	0	31036	
2589	0	31065	
2590	0	31122	
2591	0	31146	
2592	0	31167	
2593	0	31156	
2594	0	31154	
2595	0	31195	
2596	0	31254	
2597	0	31324	
2598	0	31366	
2599	0	31422	
2600	0	31492	
2601	0	31555	
2602	0	31588	
2603	0	31642	
2604	0	31740	
2605	0	31815	
2606	0	31885	
2607	0	31904	
2608	0	31898	
2609	0	31876	
2610	0	31858	
2611	0	31874	
2612	0	31880	
2613	0	31879	
2614	0	31879	
2615	0	31916	
2616	0	31996	
2617	0	32048	
2618	0	32048	
2619	0	32051	
2620	0	32036	
2621	0	32050	
2622	0	32106	
2623	0	32193	
2624	0	32263	
2625	0	32348	
2626	0	32439	
2627	0	32436	
2628	0	32448	
2629	0	32471	
2630	0	32540	
2631	0	32621	
2632	0	32671	
2633	0	32666	
2634	0	32652	
2635	0	32624	
2636	0	32610	
2637	0	32620	
2638	0	32647	
2639	0	32668	
2640	0	32720	
2641	0	32756	
2642	0	32796	
2643	0	32833	
2644	0	32910	
2645	0	33012	
2646	0	33104	
2647	0	33163	
2648	0	33188	
2649	0	33198	
2650	0	33212	
2651	0	33257	
2652	0	33330	
2653	0	33388	
2654	0	33376	
2655	0	33380	
2656	0	33380	
2657	0	33381	
2658	0	33414	
2659	0	33450	
2660	0	33486	
2661	0	33516	
2662	0	33569	
2663	0	33644	
2664	0	33742	
2665	0	33838	
2666	0	33934	
2667	0	33973	
2668	0	34028	
2669	0	34062	
2670	0	34096	
2671	0	34169	
2672	0	34212	
2673	0	34240	
2674	0	34269	
2675	0	34288	
2676	0	34332	
2677	0	34384	
2678	0	34404	
2679	0	34398	
2680	0	34392	
2681	0	34366	
2682	0	34370	
2683	0	34400	
2684	0	34450	
2685	0	34476	
2686	0	34540	
2687	0	34567	
2688	0	34576	
2689	0	34560	
2690	0	34486	
2691	0	34420	
2692	0	34414	
2693	0	34402	
2694	0	34375	
2695	0	34349	
2696	0	34350	
2697	0	34368	
2698	0	34375	
2699	0	34326	
2700	0	34250	
2701	0	34197	
2702	0	34175	
2703	0	34140	
2704	0	34146	
2705	0	34213	
2706	0	34248	
2707	0	34249	
2708	0	34242	
2709	0	34239	
2710	0	34213	
2711	0	34182	
2712	0	34117	
2713	0	34050	
2714	0	34010	
2715	0	33988	
2716	0	33962	
2717	0	33970	
2718	0	33976	
2719	0	33954	
2720	0	33920	
2721	0	33875	
2722	0	33820	
2723	0	33772	
2724	0	33748	
2725	0	33745	
2726	0	33726	
2727	0	33717	
2728	0	33712	
2729	0	33732	
2730	0	33730	
2731	0	33694	
2732	0	33641	
2733	0	33570	
2734	0	33473	
2735	0	33415	
2736	0	33350	
2737	0	33255	
2738	0	33137	
2739	0	33001	
2740	0	32913	
2741	0	32851	
2742	0	32775	
2743	0	32712	
2744	0	32676	
2745	0	32652	
2746	0	32647	
2747	0	32628	
2748	0	32585	
2749	0	32544	
2750	0	32507	
2751	0	32484	
2752	0	32445	
2753	0	32404	
2754	0	32364	
2755	0	32330	
2756	0	32290	
2757	0	32238	
2758	0	32144	
2759	0	32016	
2760	0	31878	
2761	0	31732	
2762	0	31612	
2763	0	31544	
2764	0	31559	
2765	0	31578	
2766	0	31544	
2767	0	31490	
2768	0	31456	
2769	0	31402	
2770	0	31370	
2771	0	31346	
2772	0	31322	
2773	0	31288	
2774	0	31239	
2775	0	31207	
2776	0	31207	
2777	0	31204	
2778	0	31208	
2779	0	31183	
2780	0	31134	
2781	0	31107	
2782	0	31078	
2783	0	31112	
2784	0	31156	
2785	0	31168	
2786	0	31174	
2787	0	31152	
2788	0	31082	
2789	0	31043	
2790	0	31024	
2791	0	31031	
2792	0	31005	
2793	0	30982	
2794	0	30980	
2795	0	30997	
2796	0	31033	
2797	0	31059	
2798	0	31096	
2799	0	31154	
2800	0	31168	
2801	0	31103	
2802	0	31068	
2803	0	31090	
2804	0	31119	
2805	0	31140	
2806	0	31156	
2807	0	31157	
2808	0	31178	
2809	0	31239	
2810	0	31328	
2811	0	31425	
2812	0	31474	
2813	0	31535	
2814	0	31559	
2815	0	31560	
2816	0	31564	
2817	0	31572	
2818	0	31612	
2819	0	31647	
2820	0	31661	
2821	0	31696	
2822	0	31766	
2823	0	31850	
2824	0	31920	
2825	0	31968	
2826	0	31994	
2827	0	31984	
2828	0	31960	
2829	0	31940	
2830	0	31912	
2831	0	31876	
2832	0	31832	
2833	0	31810	
2834	0	31781	
2835	0	31751	
2836	0	31716	
2837	0	31686	
2838	0	31632	
2839	0	31589	
2840	0	31582	
2841	0	31616	
2842	0	31642	
2843	0	31702	
2844	0	31741	
2845	0	31790	
2846	0	31829	
2847	0	31866	
2848	0	31873	
2849	0	31869	
2850	0	31872	
2851	0	31932	
2852	0	31980	
2853	0	32004	
2854	0	32023	
2855	0	32050	
2856	0	32069	
2857	0	32087	
2858	0	32108	
2859	0	32108	
2860	0	32117	
2861	0	32120	
2862	0	32096	
2863	0	32059	
2864	0	32048	
2865	0	32060	
2866	0	32071	
2867	0	32028	
2868	0	32006	
2869	0	32052	
2870	0	32117	
2871	0	32182	
2872	0	32180	
2873	0	32146	
2874	0	32086	
2875	0	32016	
2876	0	31968	
2877	0	31930	
2878	0	31903	
2879	0	31852	
2880	0	31808	
2881	0	31803	
2882	0	31789	
2883	0	31798	
2884	0	31826	
2885	0	31848	
2886	0	31826	
2887	0	31864	
2888	0	31864	
2889	0	31871	
2890	0	31888	
2891	0	31924	
2892	0	31940	
2893	0	31936	
2894	0	31896	
2895	0	31862	
2896	0	31846	
2897	0	31852	
2898	0	31829	
2899	0	31785	
2900	0	31743	
2901	0	31653	
2902	0	31590	
2903	0	31560	
2904	0	31568	
2905	0	31590	
2906	0	31611	
2907	0	31608	
2908	0	31596	
2909	0	31578	
2910	0	31576	
2911	0	31535	
2912	0	31524	
2913	0	31490	
2914	0	31448	
2915	0	31416	
2916	0	31352	
2917	0	31272	
2918	0	31218	
2919	0	31201	
2920	0	31200	
2921	0	31176	
2922	0	31175	
2923	0	31218	
2924	0	31256	
2925	0	31296	
2926	0	31366	
2927	0	31412	
2928	0	31418	
2929	0	31394	
2930	0	31364	
2931	0	31408	
2932	0	31484	
2933	0	31526	
2934	0	31533	
2935	0	31553	
2936	0	31547	
2937	0	31556	
2938	0	31558	
2939	0	31530	
2940	0	31466	
2941	0	31426	
2942	0	31419	
2943	0	31427	
2944	0	31438	
2945	0	31449	
2946	0	31513	
2947	0	31524	
2948	0	31524	
2949	0	31520	
2950	0	31532	
2951	0	31513	
2952	0	31503	
2953	0	31478	
2954	0	31482	
2955	0	31468	
2956	0	31470	
2957	0	31454	
2958	0	31422	
2959	0	31407	
2960	0	31389	
2961	0	31378	
2962	0	31388	
2963	0	31401	
2964	0	31420	
2965	0	31444	
2966	0	31478	
2967	0	31526	
2968	0	31561	
2969	0	31574	
2970	0	31568	
2971	0	31562	
2972	0	31532	
2973	0	31461	
2974	0	31418	
2975	0	31412	
2976	0	31434	
2977	0	31428	
2978	0	31410	
2979	0	31381	
2980	0	31380	
2981	0	31364	
2982	0	31372	
2983	0	31398	
2984	0	31454	
2985	0	31512	
2986	0	31557	
2987	0	31604	
2988	0	31652	
2989	0	31658	
2990	0	31648	
2991	0	31648	
2992	0	31633	
2993	0	31612	
2994	0	31572	
2995	0	31557	
2996	0	31566	
2997	0	31619	
2998	0	31652	
2999	0	31614	
3000	0	31548	
3001	0	31482	
3002	0	31438	
3003	0	31406	
3004	0	31412	
3005	0	31454	
3006	0	31486	
3007	0	31495	
3008	0	31502	
3009	0	31502	
3010	0	31508	
3011	0	31507	
3012	0	31498	
3013	0	31488	
3014	0	31449	
3015	0	31431	
3016	0	31432	
3017	0	31485	
3018	0	31533	
3019	0	31592	
3020	0	31618	
3021	0	31643	
3022	0	31686	
3023	0	31736	
3024	0	31740	
3025	0	31712	
3026	0	31661	
3027	0	31588	
3028	0	31478	
3029	0	31424	
3030	0	31489	
3031	0	31584	
3032	0	31685	
3033	0	31740	
3034	0	31751	
3035	0	31716	
3036	0	31682	
3037	0	31628	
3038	0	31568	
3039	0	31503	
3040	0	31456	
3041	0	31444	
3042	0	31449	
3043	0	31469	
3044	0	31539	
3045	0	31614	
3046	0	31672	
3047	0	31704	
3048	0	31723	
3049	0	31760	
3050	0	31784	
3051	0	31815	
3052	0	31830	
3053	0	31813	
3054	0	31793	
3055	0	31774	
3056	0	31736	
3057	0	31696	
3058	0	31679	
3059	0	31644	
3060	0	31648	
3061	0	31668	
3062	0	31674	
3063	0	31708	
3064	0	31751	
3065	0	31789	
3066	0	31829	
3067	0	31896	
3068	0	31972	
3069	0	32016	
3070	0	32132	
3071	0	32280	
3072	0	32432	
3073	0	32596	
3074	0	32700	
3075	0	32792	
3076	0	32888	
3077	0	32999	
3078	0	33056	
3079	0	33104	
3080	0	33154	
3081	0	33229	
3082	0	33362	
3083	0	33545	
3084	0	33693	
3085	0	33840	
3086	0	33941	
3087	0	34028	
3088	0	34078	
3089	0	34084	
3090	0	34084	
3091	0	34076	
3092	0	34080	
3093	0	34037	
3094	0	33927	
3095	0	33820	
3096	0	33766	
3097	0	33732	
3098	0	33746	
3099	0	33813	
3100	0	33927	
3101	0	34064	
3102	0	34204	
3103	0	34338	
3104	0	34491	
3105	0	34580	
3106	0	34650	
3107	0	34730	
3108	0	34788	
3109	0	34792	
3110	0	34776	
3111	0	34728	
3112	0	34684	
3113	0	34592	
3114	0	34493	
3115	0	34368	
3116	0	34295	
3117	0	34290	
3118	0	34309	
3119	0	34364	
3120	0	34400	
3121	0	34409	
3122	0	34432	
3123	0	34488	
3124	0	34552	
3125	0	34540	
3126	0	34438	
3127	0	34284	
3128	0	34084	
3129	0	33892	
3130	0	33728	
3131	0	33590	
3132	0	33492	
3133	0	33346	
3134	0	33148	
3135	0	32985	
3136	0	32856	
3137	0	32784	
3138	0	32766	
3139	0	32774	
3140	0	32746	
3141	0	32696	
3142	0	32628	
3143	0	32583	
3144	0	32528	
3145	0	32461	
3146	0	32325	
3147	0	32161	
3148	0	31932	
3149	0	31702	
3150	0	31517	
3151	0	31386	
3152	0	31239	
3153	0	31071	
3154	0	30944	
3155	0	30850	
3156	0	30770	
3157	0	30691	
3158	0	30592	
3159	0	30560	
3160	0	30520	
3161	0	30493	
3162	0	30480	
3163	0	30496	
3164	0	30486	
3165	0	30464	
3166	0	30420	
3167	0	30407	
3168	0	30368	
3169	0	30350	
3170	0	30319	
3171	0	30301	
3172	0	30316	
3173	0	30362	
3174	0	30381	
3175	0	30376	
3176	0	30356	
3177	0	30309	
3178	0	30285	
3179	0	30295	
3180	0	30341	
3181	0	30400	
3182	0	30418	
3183	0	30424	
3184	0	30429	
3185	0	30468	
3186	0	30548	
3187	0	30582	
3188	0	30549	
3189	0	30524	
3190	0	30531	
3191	0	30552	
3192	0	30600	
3193	0	30678	
3194	0	30700	
3195	0	30682	
3196	0	30682	
3197	0	30717	
3198	0	30740	
3199	0	30738	
3200	0	30705	
3201	0	30674	
3202	0	30658	
3203	0	30656	
3204	0	30723	
3205	0	30804	
3206	0	30820	
3207	0	30784	
3208	0	30727	
3209	0	30602	
3210	0	30405	
3211	0	30164	
3212	0	29891	
3213	0	29616	
3214	0	29432	
3215	0	29345	
3216	0	29312	
3217	0	29314	
3218	0	29266	
3219	0	29148	
3220	0	28988	
3221	0	28838	
3222	0	28697	
3223	0	28670	
3224	0	28758	
3225	0	28928	
3226	0	29160	
3227	0	29532	
3228	0	29909	
3229	0	30330	
3230	0	30816	
3231	0	31396	
3232	0	32150	
3233	0	33115	
3234	0	34212	
3235	0	35314	
3236	0	36544	
3237	0	37908	
3238	0	39386	
3239	0	40949	
3240	0	42694	
3241	0	44680	
3242	0	46786	
3243	0	48700	
3244	0	50224	
3245	0	51516	
3246	0	52686	
3247	0	53692	
3248	0	54569	
3249	0	55367	
3250	0	55964	
3251	0	56480	
3252	0	56672	
3253	0	56234	
3254	0	55196	
3255	0	53702	
3256	0	51740	
3257	0	49544	
3258	0	47330	
3259	0	45202	
3260	0	43070	
3261	0	40954	
3262	0	38956	
3263	0	37120	
3264	0	35476	
3265	0	34074	
3266	0	32901	
3267	0	31936	
3268	0	31180	
3269	0	30648	
3270	0	30424	
3271	0	30418	
3272	0	30437	
3273	0	30450	
3274	0	30426	
3275	0	30354	
3276	0	30244	
3277	0	30114	
3278	0	30013	
3279	0	29973	
3280	0	29929	
3281	0	29910	
3282	0	29948	
3283	0	29967	
3284	0	29920	
3285	0	29860	
3286	0	29762	
3287	0	29692	
3288	0	29634	
3289	0	29567	
3290	0	29528	
3291	0	29542	
3292	0	29548	
3293	0	29524	
3294	0	29542	
3295	0	29549	
3296	0	29516	
3297	0	29538	
3298	0	29582	
3299	0	29640	
3300	0	29673	
3301	0	29676	
3302	0	29674	
3303	0	29703	
3304	0	29784	
3305	0	29878	
3306	0	29895	
3307	0	29846	
3308	0	29780	
3309	0	29680	
3310	0	29592	
3311	0	29544	
3312	0	29540	
3313	0	29580	
3314	0	29625	
3315	0	29646	
3316	0	29636	
3317	0	29644	
3318	0	29638	
3319	0	29575	
3320	0	29498	
3321	0	29444	
3322	0	29412	
3323	0	29465	
3324	0	29536	
3325	0	29632	
3326	0	29692	
3327	0	29740	
3328	0	29798	
3329	0	29887	
3330	0	29978	
3331	0	30032	
3332	0	30064	
3333	0	30066	
3334	0	30072	
3335	0	30060	
3336	0	30036	
3337	0	29967	
3338	0	29950	
3339	0	29983	
3340	0	30032	
3341	0	30050	
3342	0	30072	
3343	0	30144	
3344	0	30272	
3345	0	30372	
3346	0	30428	
3347	0	30416	
3348	0	30378	
3349	0	30368	
3350	0	30464	
3351	0	30564	
3352	0	30628	
3353	0	30629	
3354	0	30640	
3355	0	30587	
3356	0	30492	
3357	0	30460	
3358	0	30493	
3359	0	30532	
3360	0	30599	
3361	0	30646	
3362	0	30668	
3363	0	30716	
3364	0	30772	
3365	0	30828	
3366	0	30894	
3367	0	30973	
3368	0	31087	
3369	0	31172	
3370	0	31239	
3371	0	31275	
3372	0	31316	
3373	0	31384	
3374	0	31404	
3375	0	31436	
3376	0	31500	
3377	0	31552	
3378	0	31558	
3379	0	31504	
3380	0	31441	
3381	0	31424	
3382	0	31492	
3383	0	31583	
3384	0	31647	
3385	0	31706	
3386	0	31772	
3387	0	31816	
3388	0	31820	
3389	0	31815	
3390	0	31849	
3391	0	31928	
3392	0	32020	
3393	0	32047	
3394	0	32039	
3395	0	32062	
3396	0	32102	
3397	0	32134	
3398	0	32156	
3399	0	32177	
3400	0	32216	
3401	0	32318	
3402	0	32424	
3403	0	32479	
3404	0	32498	
3405	0	32541	
3406	0	32542	
3407	0	32583	
3408	0	32640	
3409	0	32672	
3410	0	32664	
3411	0	32645	
3412	0	32624	
3413	0	32592	
3414	0	32558	
3415	0	32548	
3416	0	32506	
3417	0	32482	
3418	0	32512	
3419	0	32524	
3420	0	32552	
3421	0	32608	
3422	0	32716	
3423	0	32856	
3424	0	33018	
3425	0	33156	
3426	0	33252	
3427	0	33309	
3428	0	33332	
3429	0	33348	
3430	0	33376	
3431	0	33377	
3432	0	33376	
3433	0	33408	
3434	0	33508	
3435	0	33580	
3436	0	33636	
3437	0	33666	
3438	0	33728	
3439	0	33778	
3440	0	33832	
3441	0	33880	
3442	0	33928	
3443	0	34008	
3444	0	34060	
3445	0	34124	
3446	0	34192	
3447	0	34218	
3448	0	34253	
3449	0	34286	
3450	0	34324	
3451	0	34365	
3452	0	34376	
3453	0	34344	
3454	0	34291	
3455	0	34284	
3456	0	34311	
3457	0	34356	
3458	0	34436	
3459	0	34505	
3460	0	34543	
3461	0	34539	
3462	0	34519	
3463	0	34490	
3464	0	34439	
3465	0	34384	
3466	0	34304	
3467	0	34254	
3468	0	34194	
3469	0	34158	
3470	0	34190	
3471	0	34204	
3472	0	34244	
3473	0	34290	
3474	0	34310	
3475	0	34354	
3476	0	34366	
3477	0	34358	
3478	0	34320	
3479	0	34220	
3480	0	34136	
3481	0	34082	
3482	0	34045	
3483	0	34080	
3484	0	34109	
3485	0	34154	
3486	0	34244	
3487	0	34344	
3488	0	34356	
3489	0	34304	
3490	0	34228	
3491	0	34149	
3492	0	34023	
3493	0	33940	
3494	0	33863	
3495	0	33812	
3496	0	33764	
3497	0	33640	
3498	0	33504	
3499	0	33392	
3500	0	33246	
3501	0	33121	
3502	0	33009	
3503	0	32984	
3504	0	32996	
3505	0	32997	
3506	0	32984	
3507	0	32984	
3508	0	33004	
3509	0	33006	
3510	0	32964	
3511	0	32893	
3512	0	32900	
3513	0	32898	
3514	0	32910	
3515	0	32896	
3516	0	32829	
3517	0	32720	
3518	0	32582	
3519	0	32486	
3520	0	32450	
3521	0	32406	
3522	0	32378	
3523	0	32364	
3524	0	32357	
3525	0	32338	
3526	0	32282	
3527	0	32188	
3528	0	32050	
3529	0	31918	
3530	0	31869	
3531	0	31812	
3532	0	31703	
3533	0	31602	
3534	0	31513	
3535	0	31458	
3536	0	31440	
3537	0	31418	
3538	0	31440	
3539	0	31481	
3540	0	31488	
3541	0	31482	
3542	0	31473	
3543	0	31472	
3544	0	31415	
3545	0	31334	
3546	0	31308	
3547	0	31313	
3548	0	31333	
3549	0	31336	
3550	0	31353	
3551	0	31416	
3552	0	31478	
3553	0	31524	
3554	0	31556	
3555	0	31515	
3556	0	31430	
3557	0	31328	
3558	0	31264	
3559	0	31234	
3560	0	31216	
3561	0	31197	
3562	0	31172	
3563	0	31180	
3564	0	31239	
3565	0	31328	
3566	0	31450	
3567	0	31572	
3568	0	31662	
3569	0	31675	
3570	0	31674	
3571	0	31652	
3572	0	31584	
3573	0	31484	
3574	0	31413	
3575	0	31410	
3576	0	31483	
3577	0	31599	
3578	0	31637	
3579	0	31635	
3580	0	31651	
3581	0	31661	
3582	0	31682	
3583	0	31717	
3584	0	31798	
3585	0	31894	
3586	0	31952	
3587	0	31994	
3588	0	31992	
3589	0	32015	
3590	0	32022	
3591	0	31982	
3592	0	31927	
3593	0	31932	
3594	0	31936	
3595	0	31927	
3596	0	31858	
3597	0	31817	
3598	0	31852	
3599	0	31938	
3600	0	31982	
3601	0	32028	
3602	0	32066	
3603	0	32076	
3604	0	32101	
3605	0	32186	
3606	0	32245	
3607	0	32229	
3608	0	32194	
3609	0	32194	
3610	0	32253	
3611	0	32317	
3612	0	32353	
3613	0	32327	
3614	0	32268	
3615	0	32259	
3616	0	32282	
3617	0	32308	
3618	0	32358	
3619	0	32404	
3620	0	32391	
3621	0	32348	
3622	0	32296	
3623	0	32247	
3624	0	32258	
3625	0	32308	
3626	0	32349	
3627	0	32407	
3628	0	32378	
3629	0	32324	
3630	0	32242	
3631	0	32216	
3632	0	32207	
3633	0	32175	
3634	0	32087	
3635	0	31980	
3636	0	31932	
3637	0	31938	
3638	0	31975	
3639	0	31979	
3640	0	31912	
3641	0	31834	
3642	0	31783	
3643	0	31748	
3644	0	31749	
3645	0	31751	
3646	0	31789	
3647	0	31789	
3648	0	31794	
3649	0	31797	
3650	0	31838	
3651	0	31892	
3652	0	31983	
3653	0	32088	
3654	0	32154	
3655	0	32187	
3656	0	32166	
3657	0	32108	
3658	0	32060	
3659	0	31994	
3660	0	31938	
3661	0	31908	
3662	0	31872	
3663	0	31802	
3664	0	31751	
3665	0	31751	
3666	0	31793	
3667	0	31834	
3668	0	31853	
3669	0	31826	
3670	0	31836	
3671	0	31882	
3672	0	31930	
3673	0	31916	
3674	0	31890	
3675	0	31896	
3676	0	31878	
3677	0	31788	
3678	0	31758	
3679	0	31746	
3680	0	31768	
3681	0	31800	
3682	0	31771	
3683	0	31704	
3684	0	31708	
3685	0	31732	
3686	0	31740	
3687	0	31772	
3688	0	31782	
3689	0	31751	
3690	0	31718	
3691	0	31733	
3692	0	31751	
3693	0	31748	
3694	0	31732	
3695	0	31708	
3696	0	31670	
3697	0	31656	
3698	0	31656	
3699	0	31662	
3700	0	31580	
3701	0	31512	
3702	0	31484	
3703	0	31414	
3704	0	31348	
3705	0	31342	
3706	0	31426	
3707	0	31522	
3708	0	31645	
3709	0	31746	
3710	0	31816	
3711	0	31824	
3712	0	31804	
3713	0	31800	
3714	0	31796	
3715	0	31814	
3716	0	31779	
3717	0	31765	
3718	0	31741	
3719	0	31690	
3720	0	31626	
3721	0	31588	
3722	0	31537	
3723	0	31533	
3724	0	31571	
3725	0	31629	
3726	0	31684	
3727	0	31720	
3728	0	31714	
3729	0	31702	
3730	0	31682	
3731	0	31634	
3732	0	31621	
3733	0	31640	
3734	0	31620	
3735	0	31550	
3736	0	31515	
3737	0	31541	
3738	0	31594	
3739	0	31630	
3740	0	31634	
3741	0	31612	
3742	0	31582	
3743	0	31586	
3744	0	31623	
3745	0	31676	
3746	0	31686	
3747	0	31672	
3748	0	31611	
3749	0	31514	
3750	0	31380	
3751	0	31352	
3752	0	31442	
3753	0	31509	
3754	0	31543	
3755	0	31577	
3756	0	31572	
3757	0	31551	
3758	0	31522	
3759	0	31524	
3760	0	31518	
3761	0	31516	
3762	0	31523	
3763	0	31517	
3764	0	31544	
3765	0	31588	
3766	0	31648	
3767	0	31650	
3768	0	31614	
3769	0	31528	
3770	0	31465	
3771	0	31414	
3772	0	31410	
3773	0	31464	
3774	0	31530	
3775	0	31547	
3776	0	31580	
3777	0	31597	
3778	0	31589	
3779	0	31614	
3780	0	31660	
3781	0	31678	
3782	0	31641	
3783	0	31608	
3784	0	31574	
3785	0	31593	
3786	0	31606	
3787	0	31610	
3788	0	31600	
3789	0	31604	
3790	0	31610	
3791	0	31647	
3792	0	31641	
3793	0	31628	
3794	0	31593	
3795	0	31530	
3796	0	31463	
3797	0	31420	
3798	0	31487	
3799	0	31586	
3800	0	31588	
3801	0	31583	
3802	0	31580	
3803	0	31600	
3804	0	31678	
3805	0	31800	
3806	0	31904	
3807	0	31933	
3808	0	31896	
3809	0	31836	
3810	0	31810	
3811	0	31805	
3812	0	31815	
3813	0	31800	
3814	0	31804	
3815	0	31872	
3816	0	31993	
3817	0	32096	
3818	0	32123	
3819	0	32134	
3820	0	32110	
3821	0	32088	
3822	0	32104	
3823	0	32158	
3824	0	32132	
3825	0	32032	
3826	0	31962	
3827	0	31965	
3828	0	31980	
3829	0	31956	
3830	0	31906	
3831	0	31870	
3832	0	31864	
3833	0	31891	
3834	0	31952	
3835	0	32024	
3836	0	32090	
3837	0	32130	
3838	0	32156	
3839	0	32152	
3840	0	32141	
3841	0	32168	
3842	0	32228	
3843	0	32324	
3844	0	32448	
3845	0	32602	
3846	0	32775	
3847	0	32972	
3848	0	33134	
3849	0	33240	
3850	0	33318	
3851	0	33287	
3852	0	33245	
3853	0	33210	
3854	0	33204	
3855	0	33231	
3856	0	33346	
3857	0	33500	
3858	0	33624	
3859	0	33700	
3860	0	33703	
3861	0	33692	
3862	0	33730	
3863	0	33844	
3864	0	33969	
3865	0	34000	
3866	0	33980	
3867	0	33936	
3868	0	33878	
3869	0	33820	
3870	0	33725	
3871	0	33638	
3872	0	33585	
3873	0	33565	
3874	0	33615	
3875	0	33782	
3876	0	33928	
3877	0	34022	
3878	0	34157	
3879	0	34300	
3880	0	34448	
3881	0	34582	
3882	0	34687	
3883	0	34796	
3884	0	34838	
3885	0	34829	
3886	0	34804	
3887	0	34735	
3888	0	34660	
3889	0	34628	
3890	0	34632	
3891	0	34662	
3892	0	34714	
3893	0	34759	
3894	0	34784	
3895	0	34750	
3896	0	34700	
3897	0	34626	
3898	0	34612	
3899	0	34550	
3900	0	34456	
3901	0	34384	
3902	0	34264	
3903	0	34144	
3904	0	34088	
3905	0	34059	
3906	0	33991	
3907	0	33832	
3908	0	33668	
3909	0	33496	
3910	0	33380	
3911	0	33287	
3912	0	33220	
3913	0	33196	
3914	0	33180	
3915	0	33159	
3916	0	33127	
3917	0	33094	
3918	0	32999	
3919	0	32914	
3920	0	32809	
3921	0	32642	
3922	0	32504	
3923	0	32420	
3924	0	32349	
3925	0	32244	
3926	0	32124	
3927	0	32040	
3928	0	31991	
3929	0	31908	
3930	0	31777	
3931	0	31614	
3932	0	31478	
3933	0	31378	
3934	0	31344	
3935	0	31364	
3936	0	31359	
3937	0	31303	
3938	0	31216	
3939	0	31168	
3940	0	31126	
3941	0	31098	
3942	0	31131	
3943	0	31184	
3944	0	31239	
3945	0	31248	
3946	0	31277	
3947	0	31258	
3948	0	31196	
3949	0	31181	
3950	0	31168	
3951	0	31175	
3952	0	31196	
3953	0	31272	
3954	0	31366	
3955	0	31472	
3956	0	31540	
3957	0	31530	
3958	0	31496	
3959	0	31490	
3960	0	31536	
3961	0	31646	
3962	0	31708	
3963	0	31724	
3964	0	31712	
3965	0	31696	
3966	0	31686	
3967	0	31656	
3968	0	31593	
3969	0	31565	
3970	0	31576	
3971	0	31648	
3972	0	31734	
3973	0	31726	
3974	0	31717	
3975	0	31690	
3976	0	31698	
3977	0	31751	
3978	0	31810	
3979	0	31802	
3980	0	31738	
3981	0	31642	
3982	0	31588	
3983	0	31498	
3984	0	31392	
3985	0	31288	
3986	0	31152	
3987	0	31024	
3988	0	30909	
3989	0	30778	
3990	0	30672	
3991	0	30563	
3992	0	30378	
3993	0	30114	
3994	0	29925	
3995	0	29780	
3996	0	29682	
3997	0	29736	
3998	0	29890	
3999	0	30121	
4000	0	30361	
4001	0	30582	
4002	0	30872	
4003	0	31348	
4004	0	31976	
4005	0	32752	
4006	0	33668	
4007	0	34655	
4008	0	35690	
4009	0	36698	
4010	0	37750	
4011	0	38919	
4012	0	40336	
4013	0	42016	
4014	0	43816	
4015	0	45698	
4016	0	47544	
4017	0	49304	
4018	0	50793	
4019	0	51996	
4020	0	52950	
4021	0	53694	
4022	0	54376	
4023	0	54858	
4024	0	55300	
4025	0	55655	
4026	0	55632	
4027	0	55164	
4028	0	54328	
4029	0	53246	
4030	0	51796	
4031	0	50088	
4032	0	48184	
4033	0	46059	
4034	0	43782	
4035	0	41513	
4036	0	39364	
4037	0	37450	
4038	0	35820	
4039	0	34492	
4040	0	33362	
4041	0	32399	
4042	0	31540	
4043	0	30869	
4044	0	30361	
4045	0	30098	
4046	0	30025	
4047	0	30028	
4048	0	30058	
4049	0	30186	
4050	0	30368	
4051	0	30510	
4052	0	30628	
4053	0	30794	
4054	0	30989	
4055	0	31106	
4056	0	31124	
4057	0	31088	
4058	0	31028	
4059	0	30972	
4060	0	30908	
4061	0	30848	
4062	0	30770	
4063	0	30774	
4064	0	30811	
4065	0	30876	
4066	0	30888	
4067	0	30892	
4068	0	30868	
4069	0	30834	
4070	0	30852	
4071	0	30855	
4072	0	30818	
4073	0	30727	
4074	0	30738	
4075	0	30774	
4076	0	30740	
4077	0	30668	
4078	0	30626	
4079	0	30636	
4080	0	30700	
4081	0	30748	
4082	0	30740	
4083	0	30727	
4084	0	30744	
4085	0	30792	
4086	0	30865	
4087	0	30906	
4088	0	30898	
4089	0	30888	
4090	0	30880	
4091	0	30885	
4092	0	30895	
4093	0	30912	
4094	0	30948	
4095	0	31026	
4096	0	31108	
4097	0	31168	
4098	0	31208	
4099	0	31197	
4100	0	31120	
4101	0	31048	
4102	0	31000	
4103	0	30996	
4104	0	31052	
4105	0	31134	
4106	0	31147	
4107	0	31108	
4108	0	31148	
4109	0	31231	
4110	0	31304	
4111	0	31327	
4112	0	31314	
4113	0	31265	
4114	0	31238	
4115	0	31249	
4116	0	31285	
4117	0	31344	
4118	0	31367	
4119	0	31394	
4120	0	31436	
4121	0	31483	
4122	0	31536	
4123	0	31576	
4124	0	31668	
4125	0	31769	
4126	0	31858	
4127	0	31888	
4128	0	31886	
4129	0	31923	
4130	0	31986	
4131	0	32045	
4132	0	32105	
4133	0	32161	
4134	0	32177	
4135	0	32169	
4136	0	32149	
4137	0	32128	
4138	0	32140	
4139	0	32168	
4140	0	32220	
4141	0	32238	
4142	0	32282	
4143	0	32336	
4144	0	32396	
4145	0	32448	
4146	0	32498	
4147	0	32532	
4148	0	32544	
4149	0	32556	
4150	0	32541	
4151	0	32564	
4152	0	32592	
4153	0	32606	
4154	0	32623	
4155	0	32634	
4156	0	32664	
4157	0	32712	
4158	0	32741	
4159	0	32772	
4160	0	32788	
4161	0	32795	
4162	0	32805	
4163	0	32838	
4164	0	32884	
4165	0	32918	
4166	0	32982	
4167	0	33020	
4168	0	33048	
4169	0	33032	
4170	0	33039	
4171	0	33077	
4172	0	33200	
4173	0	33301	
4174	0	33317	
4175	0	33351	
4176	0	33415	
4177	0	33456	
4178	0	33460	
4179	0	33396	
4180	0	33376	
4181	0	33414	
4182	0	33444	
4183	0	33484	
4184	0	33593	
4185	0	33692	
4186	0	33780	
4187	0	33883	
4188	0	33933	
4189	0	33875	
4190	0	33798	
4191	0	33776	
4192	0	33812	
4193	0	33868	
4194	0	33880	
4195	0	33956	
4196	0	34094	
4197	0	34224	
4198	0	34325	
4199	0	34439	
4200	0	34534	
4201	0	34572	
4202	0	34567	
4203	0	34578	
4204	0	34638	
4205	0	34686	
4206	0	34724	
4207	0	34759	
4208	0	34761	
4209	0	34800	
4210	0	34888	
4211	0	35008	
4212	0	35054	
4213	0	35078	
4214	0	35120	
4215	0	35176	
4216	0	35212	
4217	0	35250	
4218	0	35254	
4219	0	35209	
4220	0	35194	
4221	0	35184	
4222	0	35140	
4223	0	35120	
4224	0	35176	
4225	0	35252	
4226	0	35322	
4227	0	35378	
4228	0	35399	
4229	0	35416	
4230	0	35448	
4231	0	35504	
4232	0	35552	
4233	0	35576	
4234	0	35623	
4235	0	35683	
4236	0	35711	
4237	0	35684	
4238	0	35670	
4239	0	35621	
4240	0	35538	
4241	0	35476	
4242	0	35448	
4243	0	35420	
4244	0	35424	
4245	0	35504	
4246	0	35583	
4247	0	35596	
4248	0	35580	
4249	0	35527	
4250	0	35460	
4251	0	35384	
4252	0	35312	
4253	0	35282	
4254	0	35252	
4255	0	35236	
4256	0	35162	
4257	0	35122	
4258	0	35113	
4259	0	35077	
4260	0	35050	
4261	0	35016	
4262	0	34994	
4263	0	34989	
4264	0	34972	
4265	0	35011	
4266	0	35028	
4267	0	35012	
4268	0	34968	
4269	0	34904	
4270	0	34854	
4271	0	34849	
4272	0	34860	
4273	0	34894	
4274	0	34959	
4275	0	34988	
4276	0	34900	
4277	0	34790	
4278	0	34700	
4279	0	34625	
4280	0	34536	
4281	0	34428	
4282	0	34338	
4283	0	34224	
4284	0	34138	
4285	0	34064	
4286	0	34024	
4287	0	33980	
4288	0	33908	
4289	0	33826	
4290	0	33724	
4291	0	33632	
4292	0	33554	
4293	0	33484	
4294	0	33456	
4295	0	33421	
4296	0	33364	
4297	0	33258	
4298	0	33156	
4299	0	33002	
4300	0	32878	
4301	0	32760	
4302	0	32640	
4303	0	32536	
4304	0	32500	
4305	0	32518	
4306	0	32568	
4307	0	32592	
4308	0	32542	
4309	0	32448	
4310	0	32392	
4311	0	32333	
4312	0	32263	
4313	0	32228	
4314	0	32212	
4315	0	32224	
4316	0	32238	
4317	0	32217	
4318	0	32125	
4319	0	32012	
4320	0	31876	
4321	0	31789	
4322	0	31712	
4323	0	31700	
4324	0	31698	
4325	0	31725	
4326	0	31751	
4327	0	31770	
4328	0	31739	
4329	0	31704	
4330	0	31680	
4331	0	31648	
4332	0	31622	
4333	0	31634	
4334	0	31674	
4335	0	31708	
4336	0	31764	
4337	0	31814	
4338	0	31836	
4339	0	31824	
4340	0	31788	
4341	0	31750	
4342	0	31725	
4343	0	31708	
4344	0	31736	
4345	0	31790	
4346	0	31811	
4347	0	31789	
4348	0	31726	
4349	0	31677	
4350	0	31656	
4351	0	31721	
4352	0	31842	
4353	0	31946	
4354	0	31972	
4355	0	31977	
4356	0	31956	
4357	0	31872	
4358	0	31772	
4359	0	31696	
4360	0	31678	
4361	0	31702	
4362	0	31741	
4363	0	31760	
4364	0	31762	
4365	0	31828	
4366	0	31922	
4367	0	32006	
4368	0	32104	
4369	0	32184	
4370	0	32216	
4371	0	32236	
4372	0	32240	
4373	0	32242	
4374	0	32231	
4375	0	32199	
4376	0	32157	
4377	0	32109	
4378	0	32096	
4379	0	32064	
4380	0	31983	
4381	0	31942	
4382	0	31980	
4383	0	32080	
4384	0	32140	
4385	0	32150	
4386	0	32157	
4387	0	32153	
4388	0	32153	
4389	0	32186	
4390	0	32220	
4391	0	32226	
4392	0	32192	
4393	0	32196	
4394	0	32216	
4395	0	32224	
4396	0	32237	
4397	0	32256	
4398	0	32294	
4399	0	32320	
4400	0	32324	
4401	0	32324	
4402	0	32300	
4403	0	32256	
4404	0	32263	
4405	0	32324	
4406	0	32394	
4407	0	32446	
4408	0	32496	
4409	0	32530	
4410	0	32560	
4411	0	32642	
4412	0	32700	
4413	0	32698	
4414	0	32647	
4415	0	32592	
4416	0	32530	
4417	0	32452	
4418	0	32372	
4419	0	32272	
4420	0	32183	
4421	0	32114	
4422	0	32103	
4423	0	32121	
4424	0	32200	
4425	0	32306	
4426	0	32364	
4427	0	32360	
4428	0	32356	
4429	0	32368	
4430	0	32386	
4431	0	32396	
4432	0	32398	
4433	0	32356	
4434	0	32328	
4435	0	32311	
4436	0	32288	
4437	0	32252	
4438	0	32221	
4439	0	32183	
4440	0	32152	
4441	0	32138	
4442	0	32110	
4443	0	32076	
4444	0	32090	
4445	0	32116	
4446	0	32174	
4447	0	32184	
4448	0	32184	
4449	0	32208	
4450	0	32208	
4451	0	32233	
4452	0	32258	
4453	0	32248	
4454	0	32184	
4455	0	32084	
4456	0	31998	
4457	0	31965	
4458	0	31942	
4459	0	31932	
4460	0	31910	
4461	0	31882	
4462	0	31893	
4463	0	31936	
4464	0	31994	
4465	0	32048	
4466	0	32062	
4467	0	32041	
4468	0	32082	
4469	0	32140	
4470	0	32190	
4471	0	32190	
4472	0	32161	
4473	0	32112	
4474	0	32080	
4475	0	32038	
4476	0	32007	
4477	0	32004	
4478	0	32004	
4479	0	31965	
4480	0	31964	
4481	0	31960	
4482	0	31956	
4483	0	31932	
4484	0	31908	
4485	0	31908	
4486	0	31926	
4487	0	31908	
4488	0	31901	
4489	0	31951	
4490	0	32029	
4491	0	32056	
4492	0	32072	
4493	0	32108	
4494	0	32188	
4495	0	32240	
4496	0	32240	
4497	0	32256	
4498	0	32280	
4499	0	32313	
4500	0	32306	
4501	0	32254	
4502	0	32128	
4503	0	32019	
4504	0	31957	
4505	0	31948	
4506	0	31960	
4507	0	31966	
4508	0	31944	
4509	0	31921	
4510	0	31940	
4511	0	32000	
4512	0	32044	
4513	0	32036	
4514	0	31996	
4515	0	31948	
4516	0	31907	
4517	0	31898	
4518	0	31868	
4519	0	31796	
4520	0	31716	
4521	0	31664	
4522	0	31660	
4523	0	31687	
4524	0	31770	
4525	0	31892	
4526	0	31978	
4527	0	32015	
4528	0	32032	
4529	0	31984	
4530	0	31953	
4531	0	31952	
4532	0	31942	
4533	0	31934	
4534	0	31968	
4535	0	32004	
4536	0	32030	
4537	0	31985	
4538	0	31936	
4539	0	31872	
4540	0	31862	
4541	0	31890	
4542	0	31904	
4543	0	31910	
4544	0	31936	
4545	0	31955	
4546	0	31972	
4547	0	31980	
4548	0	32000	
4549	0	32000	
4550	0	32021	
4551	0	32044	
4552	0	32096	
4553	0	32120	
4554	0	32100	
4555	0	32076	
4556	0	32072	
4557	0	32111	
4558	0	32184	
4559	0	32210	
4560	0	32205	
4561	0	32213	
4562	0	32243	
4563	0	32238	
4564	0	32216	
4565	0	32228	
4566	0	32250	
4567	0	32263	
4568	0	32263	
4569	0	32263	
4570	0	32263	
4571	0	32282	
4572	0	32333	
4573	0	32390	
4574	0	32450	
4575	0	32460	
4576	0	32447	
4577	0	32441	
4578	0	32436	
4579	0	32420	
4580	0	32413	
4581	0	32444	
4582	0	32564	
4583	0	32720	
4584	0	32856	
4585	0	32966	
4586	0	33106	
4587	0	33274	
4588	0	33420	
4589	0	33513	
4590	0	33560	
4591	0	33568	
4592	0	33611	
4593	0	33645	
4594	0	33744	
4595	0	33808	
4596	0	33856	
4597	0	33882	
4598	0	33902	
4599	0	33950	
4600	0	34052	
4601	0	34112	
4602	0	34100	
4603	0	34055	
4604	0	34028	
4605	0	33991	
4606	0	33949	
4607	0	33896	
4608	0	33832	
4609	0	33764	
4610	0	33702	
4611	0	33683	
4612	0	33764	
4613	0	33927	
4614	0	34044	
4615	0	34104	
4616	0	34163	
4617	0	34216	
4618	0	34294	
4619	0	34405	
4620	0	34503	
4621	0	34546	
4622	0	34602	
4623	0	34702	
4624	0	34804	
4625	0	34864	
4626	0	34845	
4627	0	34780	
4628	0	34711	
4629	0	34704	
4630	0	34758	
4631	0	34852	
4632	0	34951	
4633	0	34999	
4634	0	34900	
4635	0	34751	
4636	0	34580	
4637	0	34381	
4638	0	34154	
4639	0	33981	
4640	0	33854	
4641	0	33764	
4642	0	33670	
4643	0	33602	
4644	0	33533	
4645	0	33476	
4646	0	33403	
4647	0	33326	
4648	0	33257	
4649	0	33206	
4650	0	33164	
4651	0	33106	
4652	0	33041	
4653	0	32933	
4654	0	32826	
4655	0	32685	
4656	0	32554	
4657	0	32448	
4658	0	32334	
4659	0	32192	
4660	0	32114	
4661	0	32050	
4662	0	31972	
4663	0	31916	
4664	0	31884	
4665	0	31848	
4666	0	31832	
4667	0	31836	
4668	0	31815	
4669	0	31712	
4670	0	31574	
4671	0	31481	
4672	0	31444	
4673	0	31386	
4674	0	31320	
4675	0	31280	
4676	0	31239	
4677	0	31224	
4678	0	31223	
4679	0	31218	
4680	0	31225	
4681	0	31226	
4682	0	31200	
4683	0	31182	
4684	0	31210	
4685	0	31266	
4686	0	31332	
4687	0	31352	
4688	0	31310	
4689	0	31228	
4690	0	31148	
4691	0	31111	
4692	0	31111	
4693	0	31152	
4694	0	31193	
4695	0	31260	
4696	0	31292	
4697	0	31305	
4698	0	31346	
4699	0	31367	
4700	0	31383	
4701	0	31389	
4702	0	31376	
4703	0	31340	
4704	0	31360	
4705	0	31482	
4706	0	31609	
4707	0	31654	
4708	0	31672	
4709	0	31669	
4710	0	31650	
4711	0	31648	
4712	0	31632	
4713	0	31636	
4714	0	31600	
4715	0	31576	
4716	0	31590	
4717	0	31616	
4718	0	31640	
4719	0	31670	
4720	0	31623	
4721	0	31464	
4722	0	31230	
4723	0	30958	
4724	0	30676	
4725	0	30464	
4726	0	30384	
4727	0	30364	
4728	0	30300	
4729	0	30166	
4730	0	30012	
4731	0	29927	
4732	0	29872	
4733	0	29814	
4734	0	29804	
4735	0	29844	
4736	0	29952	
4737	0	30072	
4738	0	30258	
4739	0	30512	
4740	0	30874	
4741	0	31348	
4742	0	31952	
4743	0	32713	
4744	0	33632	
4745	0	34650	
4746	0	35652	
4747	0	36696	
4748	0	37876	
4749	0	39232	
4750	0	40774	
4751	0	42534	
4752	0	44452	
4753	0	46458	
4754	0	48402	
4755	0	50082	
4756	0	51412	
4757	0	52456	
4758	0	53220	
4759	0	53889	
4760	0	54532	
4761	0	55064	
4762	0	55504	
4763	0	55762	
4764	0	55601	
4765	0	55047	
4766	0	54240	
4767	0	53126	
4768	0	51676	
4769	0	49854	
4770	0	47740	
4771	0	45436	
4772	0	43070	
4773	0	40740	
4774	0	38540	
4775	0	36634	
4776	0	34972	
4777	0	33562	
4778	0	32450	
4779	0	31594	
4780	0	30964	
4781	0	30567	
4782	0	30274	
4783	0	30086	
4784	0	30001	
4785	0	30048	
4786	0	30163	
4787	0	30284	
4788	0	30400	
4789	0	30488	
4790	0	30520	
4791	0	30537	
4792	0	30564	
4793	0	30632	
4794	0	30711	
4795	0	30770	
4796	0	30826	
4797	0	30793	
4798	0	30727	
4799	0	30702	
4800	0	30649	
4801	0	30566	
4802	0	30460	
4803	0	30365	
4804	0	30322	
4805	0	30330	
4806	0	30364	
4807	0	30359	
4808	0	30314	
4809	0	30260	
4810	0	30212	
4811	0	30184	
4812	0	30162	
4813	0	30128	
4814	0	30140	
4815	0	30188	
4816	0	30240	
4817	0	30282	
4818	0	30331	
4819	0	30368	
4820	0	30340	
4821	0	30288	
4822	0	30273	
4823	0	30256	
4824	0	30262	
4825	0	30268	
4826	0	30324	
4827	0	30356	
4828	0	30374	
4829	0	30396	
4830	0	30440	
4831	0	30496	
4832	0	30560	
4833	0	30612	
4834	0	30644	
4835	0	30642	
4836	0	30664	
4837	0	30716	
4838	0	30738	
4839	0	30708	
4840	0	30688	
4841	0	30690	
4842	0	30683	
4843	0	30688	
4844	0	30684	
4845	0	30754	
4846	0	30855	
4847	0	30988	
4848	0	31081	
4849	0	31138	
4850	0	31146	
4851	0	31111	
4852	0	31033	
4853	0	30994	
4854	0	30953	
4855	0	30940	
4856	0	30928	
4857	0	30966	
4858	0	31056	
4859	0	31136	
4860	0	31186	
4861	0	31192	
4862	0	31184	
4863	0	31203	
4864	0	31246	
4865	0	31322	
4866	0	31402	
4867	0	31469	
4868	0	31524	
4869	0	31559	
4870	0	31588	
4871	0	31642	
4872	0	31704	
4873	0	31770	
4874	0	31794	
4875	0	31826	
4876	0	31842	
4877	0	31844	
4878	0	31864	
4879	0	31898	
4880	0	31884	
4881	0	31868	
4882	0	31844	
4883	0	31826	
4884	0	31869	
4885	0	31934	
4886	0	31998	
4887	0	32070	
4888	0	32124	
4889	0	32181	
4890	0	32233	
4891	0	32273	
4892	0	32292	
4893	0	32272	
4894	0	32263	
4895	0	32322	
4896	0	32352	
4897	0	32390	
4898	0	32442	
4899	0	32484	
4900	0	32464	
4901	0	32428	
4902	0	32407	
4903	0	32428	
4904	0	32509	
4905	0	32578	
4906	0	32637	
4907	0	32668	
4908	0	32660	
4909	0	32652	
4910	0	32674	
4911	0	32736	
4912	0	32786	
4913	0	32788	
4914	0	32752	
4915	0	32711	
4916	0	32728	
4917	0	32768	
4918	0	32843	
4919	0	32939	
4920	0	33006	
4921	0	33056	
4922	0	33081	
4923	0	33084	
4924	0	33068	
4925	0	33116	
4926	0	33201	
4927	0	33270	
4928	0	33318	
4929	0	33340	
4930	0	33395	
4931	0	33460	
4932	0	33540	
4933	0	33600	
4934	0	33658	
4935	0	33676	
4936	0	33680	
4937	0	33698	
4938	0	33768	
4939	0	33840	
4940	0	33922	
4941	0	33978	
4942	0	34032	
4943	0	34088	
4944	0	34130	
4945	0	34183	
4946	0	34256	
4947	0	34333	
4948	0	34398	
4949	0	34456	
4950	0	34492	
4951	0	34536	
4952	0	34618	
4953	0	34677	
4954	0	34678	
4955	0	34690	
4956	0	34704	
4957	0	34720	
4958	0	34724	
4959	0	34742	
4960	0	34750	
4961	0	34720	
4962	0	34752	
4963	0	34856	
4964	0	34998	
4965	0	35136	
4966	0	35222	
4967	0	35302	
4968	0	35284	
4969	0	35227	
4970	0	35172	
4971	0	35146	
4972	0	35161	
4973	0	35160	
4974	0	35146	
4975	0	35156	
4976	0	35183	
4977	0	35204	
4978	0	35180	
4979	0	35114	
4980	0	35084	
4981	0	35092	
4982	0	35088	
4983	0	35074	
4984	0	35061	
4985	0	35062	
4986	0	35072	
4987	0	35061	
4988	0	35040	
4989	0	35002	
4990	0	34951	
4991	0	34909	
4992	0	34840	
4993	0	34779	
4994	0	34755	
4995	0	34740	
4996	0	34748	
4997	0	34771	
4998	0	34819	
4999	0	34798	
5000	0	34744	
5001	0	34644	
5002	0	34568	
5003	0	34546	
5004	0	34569	
5005	0	34596	
5006	0	34631	
5007	0	34620	
5008	0	34545	
5009	0	34439	
5010	0	34305	
5011	0	34216	
5012	0	34166	
5013	0	34107	
5014	0	34060	
5015	0	33997	
5016	0	33974	
5017	0	33927	
5018	0	33829	
5019	0	33744	
5020	0	33655	
5021	0	33624	
5022	0	33572	
5023	0	33422	
5024	0	33316	
5025	0	33229	
5026	0	33159	
5027	0	33070	
5028	0	33014	
5029	0	32944	
5030	0	32926	
5031	0	32929	
5032	0	32898	
5033	0	32839	
5034	0	32757	
5035	0	32688	
5036	0	32608	
5037	0	32540	
5038	0	32444	
5039	0	32367	
5040	0	32287	
5041	0	32216	
5042	0	32145	
5043	0	32082	
5044	0	32023	
5045	0	31979	
5046	0	31948	
5047	0	31887	
5048	0	31826	
5049	0	31751	
5050	0	31687	
5051	0	31623	
5052	0	31580	
5053	0	31509	
5054	0	31430	
5055	0	31388	
5056	0	31423	
5057	0	31460	
5058	0	31472	
5059	0	31416	
5060	0	31316	
5061	0	31224	
5062	0	31176	
5063	0	31150	
5064	0	31180	
5065	0	31256	
5066	0	31344	
5067	0	31394	
5068	0	31417	
5069	0	31420	
5070	0	31416	
5071	0	31387	
5072	0	31296	
5073	0	31196	
5074	0	31118	
5075	0	31042	
5076	0	31014	
5077	0	31076	
5078	0	31116	
5079	0	31096	
5080	0	31028	
5081	0	30998	
5082	0	30969	
5083	0	30936	
5084	0	30938	
5085	0	30945	
5086	0	30960	
5087	0	30939	
5088	0	30982	
5089	0	31106	
5090	0	31222	
5091	0	31270	
5092	0	31298	
5093	0	31328	
5094	0	31352	
5095	0	31367	
5096	0	31368	
5097	0	31386	
5098	0	31426	
5099	0	31484	
5100	0	31532	
5101	0	31517	
5102	0	31480	
5103	0	31488	
5104	0	31528	
5105	0	31591	
5106	0	31652	
5107	0	31696	
5108	0	31659	
5109	0	31622	
5110	0	31614	
5111	0	31628	
5112	0	31636	
5113	0	31612	
5114	0	31608	
5115	0	31634	
5116	0	31666	
5117	0	31666	
5118	0	31688	
5119	0	31676	
5120	0	31687	
5121	0	31701	
5122	0	31711	
5123	0	31751	
5124	0	31792	
5125	0	31822	
5126	0	31879	
5127	0	31928	
5128	0	31946	
5129	0	31965	
5130	0	31975	
5131	0	32055	
5132	0	32135	
5133	0	32206	
5134	0	32230	
5135	0	32224	
5136	0	32208	
5137	0	32202	
5138	0	32182	
5139	0	32140	
5140	0	32064	
5141	0	31985	
5142	0	31908	
5143	0	31869	
5144	0	31872	
5145	0	31904	
5146	0	31973	
5147	0	32044	
5148	0	32070	
5149	0	32050	
5150	0	32045	
5151	0	32084	
5152	0	32128	
5153	0	32152	
5154	0	32144	
5155	0	32112	
5156	0	32096	
5157	0	32064	
5158	0	32007	
5159	0	31952	
5160	0	31898	
5161	0	31845	
5162	0	31804	
5163	0	31782	
5164	0	31830	
5165	0	31886	
5166	0	31925	
5167	0	31923	
5168	0	31893	
5169	0	31853	
5170	0	31833	
5171	0	31824	
5172	0	31830	
5173	0	31849	
5174	0	31852	
5175	0	31826	
5176	0	31822	
5177	0	31819	
5178	0	31850	
5179	0	31881	
5180	0	31855	
5181	0	31833	
5182	0	31830	
5183	0	31874	
5184	0	31894	
5185	0	31876	
5186	0	31858	
5187	0	31823	
5188	0	31790	
5189	0	31772	
5190	0	31750	
5191	0	31772	
5192	0	31817	
5193	0	31875	
5194	0	31902	
5195	0	31916	
5196	0	31904	
5197	0	31900	
5198	0	31838	
5199	0	31732	
5200	0	31614	
5201	0	31538	
5202	0	31492	
5203	0	31467	
5204	0	31476	
5205	0	31540	
5206	0	31600	
5207	0	31664	
5208	0	31720	
5209	0	31746	
5210	0	31736	
5211	0	31726	
5212	0	31736	
5213	0	31750	
5214	0	31773	
5215	0	31777	
5216	0	31744	
5217	0	31642	
5218	0	31538	
5219	0	31424	
5220	0	31312	
5221	0	31250	
5222	0	31278	
5223	0	31360	
5224	0	31425	
5225	0	31482	
5226	0	31558	
5227	0	31612	
5228	0	31664	
5229	0	31705	
5230	0	31762	
5231	0	31808	
5232	0	31812	
5233	0	31820	
5234	0	31796	
5235	0	31736	
5236	0	31674	
5237	0	31596	
5238	0	31552	
5239	0	31512	
5240	0	31484	
5241	0	31461	
5242	0	31458	
5243	0	31470	
5244	0	31503	
5245	0	31524	
5246	0	31526	
5247	0	31573	
5248	0	31620	
5249	0	31645	
5250	0	31650	
5251	0	31692	
5252	0	31765	
5253	0	31823	
5254	0	31832	
5255	0	31794	
5256	0	31725	
5257	0	31708	
5258	0	31728	
5259	0	31758	
5260	0	31706	
5261	0	31645	
5262	0	31584	
5263	0	31526	
5264	0	31484	
5265	0	31454	
5266	0	31425	
5267	0	31366	
5268	0	31364	
5269	0	31442	
5270	0	31584	
5271	0	31704	
5272	0	31801	
5273	0	31868	
5274	0	31858	
5275	0	31830	
5276	0	31784	
5277	0	31770	
5278	0	31722	
5279	0	31672	
5280	0	31616	
5281	0	31594	
5282	0	31632	
5283	0	31718	
5284	0	31799	
5285	0	31834	
5286	0	31832	
5287	0	31828	
5288	0	31814	
5289	0	31765	
5290	0	31708	
5291	0	31698	
5292	0	31744	
5293	0	31770	
5294	0	31766	
5295	0	31750	
5296	0	31751	
5297	0	31788	
5298	0	31822	
5299	0	31852	
5300	0	31870	
5301	0	31884	
5302	0	31927	
5303	0	31953	
5304	0	32004	
5305	0	32047	
5306	0	32089	
5307	0	32110	
5308	0	32119	
5309	0	32125	
5310	0	32114	
5311	0	32102	
5312	0	32102	
5313	0	32108	
5314	0	32100	
5315	0	32110	
5316	0	32205	
5317	0	32368	
5318	0	32534	
5319	0	32711	
5320	0	32856	
5321	0	32999	
5322	0	33084	
5323	0	33143	
5324	0	33234	
5325	0	33357	
5326	0	33490	
5327	0	33606	
5328	0	33666	
5329	0	33670	
5330	0	33671	
5331	0	33710	
5332	0	33789	
5333	0	33840	
5334	0	33852	
5335	0	33840	
5336	0	33809	
5337	0	33782	
5338	0	33789	
5339	0	33834	
5340	0	33856	
5341	0	33799	
5342	0	33700	
5343	0	33608	
5344	0	33582	
5345	0	33626	
5346	0	33702	
5347	0	33830	
5348	0	34012	
5349	0	34164	
5350	0	34222	
5351	0	34233	
5352	0	34232	
5353	0	34250	
5354	0	34290	
5355	0	34311	
5356	0	34348	
5357	0	34395	
5358	0	34430	
5359	0	34432	
5360	0	34454	
5361	0	34498	
5362	0	34492	
5363	0	34454	
5364	0	34432	
5365	0	34471	
5366	0	34531	
5367	0	34576	
5368	0	34588	
5369	0	34530	
5370	0	34422	
5371	0	34232	
5372	0	33977	
5373	0	33735	
5374	0	33560	
5375	0	33444	
5376	0	33336	
5377	0	33272	
5378	0	33213	
5379	0	33172	
5380	0	33114	
5381	0	33018	
5382	0	32930	
5383	0	32869	
5384	0	32846	
5385	0	32818	
5386	0	32774	
5387	0	32715	
5388	0	32629	
5389	0	32482	
5390	0	32356	
5391	0	32253	
5392	0	32208	
5393	0	32170	
5394	0	32096	
5395	0	31972	
5396	0	31846	
5397	0	31725	
5398	0	31630	
5399	0	31488	
5400	0	31342	
5401	0	31216	
5402	0	31177	
5403	0	31145	
5404	0	31102	
5405	0	31054	
5406	0	31017	
5407	0	31014	
5408	0	30976	
5409	0	30928	
5410	0	30831	
5411	0	30726	
5412	0	30630	
5413	0	30576	
5414	0	30551	
5415	0	30534	
5416	0	30534	
5417	0	30536	
5418	0	30546	
5419	0	30562	
5420	0	30596	
5421	0	30612	
5422	0	30624	
5423	0	30627	
5424	0	30684	
5425	0	30760	
5426	0	30812	
5427	0	30828	
5428	0	30821	
5429	0	30816	
5430	0	30846	
5431	0	30896	
5432	0	30992	
5433	0	31034	
5434	0	31048	
5435	0	31045	
5436	0	31040	
5437	0	31071	
5438	0	31109	
5439	0	31145	
5440	0	31192	
5441	0	31176	
5442	0	31182	
5443	0	31213	
5444	0	31292	
5445	0	31340	
5446	0	31351	
5447	0	31338	
5448	0	31330	
5449	0	31298	
5450	0	31264	
5451	0	31224	
5452	0	31207	
5453	0	31200	
5454	0	31196	
5455	0	31111	
5456	0	30950	
5457	0	30711	
5458	0	30458	
5459	0	30236	
5460	0	30081	
5461	0	29990	
5462	0	29892	
5463	0	29804	
5464	0	29682	
5465	0	29516	
5466	0	29368	
5467	0	29268	
5468	0	29189	
5469	0	29104	
5470	0	29114	
5471	0	29254	
5472	0	29562	
5473	0	29993	
5474	0	30468	
5475	0	30916	
5476	0	31429	
5477	0	31970	
5478	0	32609	
5479	0	33468	
5480	0	34532	
5481	0	35607	
5482	0	36642	
5483	0	37880	
5484	0	39288	
5485	0	40752	
5486	0	42346	
5487	0	44164	
5488	0	46216	
5489	0	48263	
5490	0	50050	
5491	0	51452	
5492	0	52620	
5493	0	53616	
5494	0	54482	
5495	0	55256	
5496	0	55879	
5497	0	56295	
5498	0	56576	
5499	0	56574	
5500	0	55962	
5501	0	54791	
5502	0	53220	
5503	0	51278	
5504	0	49159	
5505	0	47032	
5506	0	44892	
5507	0	42694	
5508	0	40509	
5509	0	38428	
5510	0	36517	
5511	0	34829	
5512	0	33402	
5513	0	32296	
5514	0	31440	
5515	0	30786	
5516	0	30360	
5517	0	30167	
5518	0	30152	
5519	0	30192	
5520	0	30221	
5521	0	30207	
5522	0	30188	
5523	0	30206	
5524	0	30214	
5525	0	30215	
5526	0	30215	
5527	0	30228	
5528	0	30242	
5529	0	30231	
5530	0	30215	
5531	0	30210	
5532	0	30196	
5533	0	30144	
5534	0	30086	
5535	0	30028	
5536	0	29996	
5537	0	29964	
5538	0	29920	
5539	0	29856	
5540	0	29799	
5541	0	29736	
5542	0	29709	
5543	0	29721	
5544	0	29764	
5545	0	29810	
5546	0	29840	
5547	0	29835	
5548	0	29819	
5549	0	29782	
5550	0	29757	
5551	0	29758	
5552	0	29783	
5553	0	29796	
5554	0	29828	
5555	0	29864	
5556	0	29872	
5557	0	29895	
5558	0	29907	
5559	0	29944	
5560	0	29988	
5561	0	30030	
5562	0	30061	
5563	0	30087	
5564	0	30128	
5565	0	30184	
5566	0	30224	
5567	0	30250	
5568	0	30215	
5569	0	30155	
5570	0	30128	
5571	0	30151	
5572	0	30190	
5573	0	30232	
5574	0	30299	
5575	0	30328	
5576	0	30354	
5577	0	30402	
5578	0	30464	
5579	0	30496	
5580	0	30530	
5581	0	30552	
5582	0	30574	
5583	0	30578	
5584	0	30613	
5585	0	30688	
5586	0	30742	
5587	0	30786	
5588	0	30832	
5589	0	30841	
5590	0	30796	
5591	0	30754	
5592	0	30758	
5593	0	30791	
5594	0	30792	
5595	0	30802	
5596	0	30792	
5597	0	30836	
5598	0	30912	
5599	0	30984	
5600	0	31012	
5601	0	31052	
5602	0	31088	
5603	0	31104	
5604	0	31164	
5605	0	31239	
5606	0	31304	
5607	0	31375	
5608	0	31424	
5609	0	31442	
5610	0	31485	
5611	0	31584	
5612	0	31696	
5613	0	31748	
5614	0	31809	
5615	0	31902	
5616	0	31972	
5617	0	32018	
5618	0	32064	
5619	0	32080	
5620	0	32078	
5621	0	32028	
5622	0	31995	
5623	0	32015	
5624	0	32076	
5625	0	32178	
5626	0	32263	
5627	0	32332	
5628	0	32372	
5629	0	32348	
5630	0	32324	
5631	0	32348	
5632	0	32369	
5633	0	32360	
5634	0	32328	
5635	0	32296	
5636	0	32288	
5637	0	32320	
5638	0	32380	
5639	0	32428	
5640	0	32464	
5641	0	32476	
5642	0	32500	
5643	0	32502	
5644	0	32534	
5645	0	32604	
5646	0	32664	
5647	0	32716	
5648	0	32765	
5649	0	32805	
5650	0	32855	
5651	0	32932	
5652	0	32996	
5653	0	33040	
5654	0	33080	
5655	0	33108	
5656	0	33102	
5657	0	33065	
5658	0	33028	
5659	0	33031	
5660	0	33053	
5661	0	33060	
5662	0	33052	
5663	0	33037	
5664	0	33033	
5665	0	33060	
5666	0	33088	
5667	0	33119	
5668	0	33198	
5669	0	33326	
5670	0	33448	
5671	0	33538	
5672	0	33616	
5673	0	33700	
5674	0	33773	
5675	0	33836	
5676	0	33884	
5677	0	33912	
5678	0	33920	
5679	0	33931	
5680	0	33949	
5681	0	33972	
5682	0	34029	
5683	0	34094	
5684	0	34174	
5685	0	34251	
5686	0	34322	
5687	0	34376	
5688	0	34412	
5689	0	34392	
5690	0	34344	
5691	0	34336	
5692	0	34384	
5693	0	34492	
5694	0	34620	
5695	0	34758	
5696	0	34884	
5697	0	34962	
5698	0	35001	
5699	0	35020	
5700	0	35033	
5701	0	35008	
5702	0	34984	
5703	0	34994	
5704	0	35018	
5705	0	35062	
5706	0	35116	
5707	0	35152	
5708	0	35175	
5709	0	35152	
5710	0	35124	
5711	0	35090	
5712	0	35100	
5713	0	35100	
5714	0	35088	
5715	0	35074	
5716	0	35077	
5717	0	35068	
5718	0	35036	
5719	0	35040	
5720	0	35037	
5721	0	35021	
5722	0	34996	
5723	0	34956	
5724	0	34907	
5725	0	34862	
5726	0	34854	
5727	0	34870	
5728	0	34856	
5729	0	34816	
5730	0	34752	
5731	0	34663	
5732	0	34550	
5733	0	34444	
5734	0	34340	
5735	0	34258	
5736	0	34166	
5737	0	34106	
5738	0	34086	
5739	0	34048	
5740	0	34036	
5741	0	34001	
5742	0	33976	
5743	0	33944	
5744	0	33936	
5745	0	33912	
5746	0	33906	
5747	0	33858	
5748	0	33778	
5749	0	33716	
5750	0	33671	
5751	0	33652	
5752	0	33628	
5753	0	33578	
5754	0	33501	
5755	0	33432	
5756	0	33384	
5757	0	33340	
5758	0	33280	
5759	0	33212	
5760	0	33140	
5761	0	33070	
5762	0	32984	
5763	0	32910	
5764	0	32850	
5765	0	32834	
5766	0	32802	
5767	0	32772	
5768	0	32712	
5769	0	32628	
5770	0	32556	
5771	0	32531	
5772	0	32528	
5773	0	32488	
5774	0	32400	
5775	0	32264	
5776	0	32136	
5777	0	32041	
5778	0	31940	
5779	0	31844	
5780	0	31750	
5781	0	31698	
5782	0	31672	
5783	0	31696	
5784	0	31728	
5785	0	31772	
5786	0	31792	
5787	0	31805	
5788	0	31772	
5789	0	31694	
5790	0	31636	
5791	0	31588	
5792	0	31573	
5793	0	31545	
5794	0	31526	
5795	0	31508	
5796	0	31508	
5797	0	31508	
5798	0	31520	
5799	0	31524	
5800	0	31502	
5801	0	31444	
5802	0	31379	
5803	0	31308	
5804	0	31284	
5805	0	31269	
5806	0	31304	
5807	0	31357	
5808	0	31413	
5809	0	31423	
5810	0	31436	
5811	0	31428	
5812	0	31419	
5813	0	31421	
5814	0	31428	
5815	0	31448	
5816	0	31450	
5817	0	31472	
5818	0	31458	
5819	0	31456	
5820	0	31468	
5821	0	31488	
5822	0	31518	
5823	0	31570	
5824	0	31619	
5825	0	31650	
5826	0	31678	
5827	0	31697	
5828	0	31700	
5829	0	31708	
5830	0	31716	
5831	0	31734	
5832	0	31769	
5833	0	31808	
5834	0	31815	
5835	0	31792	
5836	0	31792	
5837	0	31813	
5838	0	31846	
5839	0	31890	
5840	0	31906	
5841	0	31879	
5842	0	31871	
5843	0	31864	
5844	0	31872	
5845	0	31900	
5846	0	31951	
5847	0	32001	
5848	0	32006	
5849	0	32023	
5850	0	32024	
5851	0	32048	
5852	0	32098	
5853	0	32161	
5854	0	32196	
5855	0	32224	
5856	0	32249	
5857	0	32309	
5858	0	32336	
5859	0	32364	
5860	0	32391	
5861	0	32400	
5862	0	32391	
5863	0	32332	
5864	0	32309	
5865	0	32317	
5866	0	32350	
5867	0	32374	
5868	0	32357	
5869	0	32326	
5870	0	32280	
5871	0	32275	
5872	0	32306	
5873	0	32317	
5874	0	32344	
5875	0	32368	
5876	0	32372	
5877	0	32400	
5878	0	32456	
5879	0	32504	
5880	0	32514	
5881	0	32485	
5882	0	32456	
5883	0	32420	
5884	0	32416	
5885	0	32416	
5886	0	32421	
5887	0	32402	
5888	0	32360	
5889	0	32306	
5890	0	32246	
5891	0	32238	
5892	0	32226	
5893	0	32208	
5894	0	32202	
5895	0	32204	
5896	0	32241	
5897	0	32278	
5898	0	32317	
5899	0	32372	
5900	0	32430	
5901	0	32463	
5902	0	32475	
5903	0	32472	
5904	0	32489	
5905	0	32478	
5906	0	32474	
5907	0	32460	
5908	0	32420	
5909	0	32369	
5910	0	32323	
5911	0	32295	
5912	0	32279	
5913	0	32289	
5914	0	32295	
5915	0	32288	
5916	0	32304	
5917	0	32364	
5918	0	32406	
5919	0	32464	
5920	0	32522	
5921	0	32536	
5922	0	32537	
5923	0	32492	
5924	0	32422	
5925	0	32366	
5926	0	32364	
5927	0	32376	
5928	0	32372	
5929	0	32350	
5930	0	32292	
5931	0	32248	
5932	0	32188	
5933	0	32155	
5934	0	32080	
5935	0	32064	
5936	0	32088	
5937	0	32110	
5938	0	32116	
5939	0	32128	
5940	0	32104	
5941	0	32091	
5942	0	32068	
5943	0	32064	
5944	0	32080	
5945	0	32124	
5946	0	32168	
5947	0	32170	
5948	0	32165	
5949	0	32122	
5950	0	32015	
5951	0	31954	
5952	0	31952	
5953	0	31975	
5954	0	31976	
5955	0	31995	
5956	0	32010	
5957	0	32036	
5958	0	32052	
5959	0	32036	
5960	0	32032	
5961	0	32029	
5962	0	32008	
5963	0	32010	
5964	0	32044	
5965	0	32056	
5966	0	32084	
5967	0	32079	
5968	0	32064	
5969	0	32044	
5970	0	32066	
5971	0	32100	
5972	0	32134	
5973	0	32140	
5974	0	32151	
5975	0	32120	
5976	0	32094	
5977	0	32046	
5978	0	32025	
5979	0	32023	
5980	0	32028	
5981	0	32017	
5982	0	32022	
5983	0	31988	
5984	0	31948	
5985	0	31943	
5986	0	31944	
5987	0	31975	
5988	0	31980	
5989	0	31964	
5990	0	31960	
5991	0	31972	
5992	0	31988	
5993	0	31976	
5994	0	31986	
5995	0	31978	
5996	0	31961	
5997	0	31941	
5998	0	31941	
5999	0	31969	
6000	0	32018	
6001	0	32055	
6002	0	32076	
6003	0	32096	
6004	0	32117	
6005	0	32128	
6006	0	32133	
6007	0	32132	
6008	0	32130	
6009	0	32080	
6010	0	32054	
6011	0	32040	
6012	0	32045	
6013	0	32061	
6014	0	32050	
6015	0	32031	
6016	0	32044	
6017	0	32108	
6018	0	32149	
6019	0	32124	
6020	0	32093	
6021	0	32064	
6022	0	32048	
6023	0	32090	
6024	0	32144	
6025	0	32182	
6026	0	32240	
6027	0	32292	
6028	0	32320	
6029	0	32347	
6030	0	32326	
6031	0	32317	
6032	0	32314	
6033	0	32302	
6034	0	32244	
6035	0	32132	
6036	0	32058	
6037	0	32068	
6038	0	32044	
6039	0	31998	
6040	0	31977	
6041	0	31970	
6042	0	31954	
6043	0	31910	
6044	0	31902	
6045	0	31945	
6046	0	31994	
6047	0	32060	
6048	0	32114	
6049	0	32154	
6050	0	32199	
6051	0	32256	
6052	0	32354	
6053	0	32464	
6054	0	32554	
6055	0	32636	
6056	0	32716	
6057	0	32812	
6058	0	32932	
6059	0	33076	
6060	0	33237	
6061	0	33384	
6062	0	33491	
6063	0	33576	
6064	0	33669	
6065	0	33756	
6066	0	33840	
6067	0	33961	
6068	0	34060	
6069	0	34180	
6070	0	34306	
6071	0	34438	
6072	0	34551	
6073	0	34628	
6074	0	34673	
6075	0	34706	
6076	0	34712	
6077	0	34700	
6078	0	34689	
6079	0	34654	
6080	0	34604	
6081	0	34530	
6082	0	34444	
6083	0	34388	
6084	0	34342	
6085	0	34322	
6086	0	34340	
6087	0	34376	
6088	0	34447	
6089	0	34550	
6090	0	34658	
6091	0	34754	
6092	0	34823	
6093	0	34880	
6094	0	34932	
6095	0	34992	
6096	0	35014	
6097	0	35030	
6098	0	35046	
6099	0	35062	
6100	0	35082	
6101	0	35094	
6102	0	35131	
6103	0	35144	
6104	0	35142	
6105	0	35136	
6106	0	35132	
6107	0	35183	
6108	0	35260	
6109	0	35334	
6110	0	35332	
6111	0	35235	
6112	0	35045	
6113	0	34818	
6114	0	34550	
6115	0	34272	
6116	0	34053	
6117	0	33918	
6118	0	33799	
6119	0	33690	
6120	0	33606	
6121	0	33512	
6122	0	33396	
6123	0	33332	
6124	0	33333	
6125	0	33368	
6126	0	33408	
6127	0	33450	
6128	0	33452	
6129	0	33380	
6130	0	33275	
6131	0	33152	
6132	0	33006	
6133	0	32864	
6134	0	32706	
6135	0	32535	
6136	0	32354	
6137	0	32206	
6138	0	32091	
6139	0	32000	
6140	0	31888	
6141	0	31777	
6142	0	31666	
6143	0	31560	
6144	0	31484	
6145	0	31442	
6146	0	31414	
6147	0	31404	
6148	0	31372	
6149	0	31310	
6150	0	31232	
6151	0	31184	
6152	0	31144	
6153	0	31077	
6154	0	30992	
6155	0	30941	
6156	0	30914	
6157	0	30886	
6158	0	30874	
6159	0	30896	
6160	0	30981	
6161	0	31117	
6162	0	31216	
6163	0	31276	
6164	0	31342	
6165	0	31400	
6166	0	31462	
6167	0	31504	
6168	0	31512	
6169	0	31444	
6170	0	31336	
6171	0	31232	
6172	0	31156	
6173	0	31128	
6174	0	31124	
6175	0	31111	
6176	0	31110	
6177	0	31138	
6178	0	31167	
6179	0	31190	
6180	0	31192	
6181	0	31198	
6182	0	31196	
6183	0	31207	
6184	0	31234	
6185	0	31302	
6186	0	31372	
6187	0	31397	
6188	0	31392	
6189	0	31389	
6190	0	31414	
6191	0	31430	
6192	0	31422	
6193	0	31432	
6194	0	31399	
6195	0	31344	
6196	0	31239	
6197	0	31118	
6198	0	30936	
6199	0	30720	
6200	0	30496	
6201	0	30324	
6202	0	30238	
6203	0	30162	
6204	0	30119	
6205	0	30032	
6206	0	29892	
6207	0	29767	
6208	0	29636	
6209	0	29548	
6210	0	29542	
6211	0	29622	
6212	0	29804	
6213	0	30121	
6214	0	30480	
6215	0	30861	
6216	0	31348	
6217	0	31890	
6218	0	32472	
6219	0	33254	
6220	0	34248	
6221	0	35264	
6222	0	36276	
6223	0	37444	
6224	0	38764	
6225	0	40202	
6226	0	41785	
6227	0	43628	
6228	0	45718	
6229	0	47840	
6230	0	49761	
6231	0	51338	
6232	0	52636	
6233	0	53764	
6234	0	54744	
6235	0	55580	
6236	0	56320	
6237	0	56932	
6238	0	57412	
6239	0	57568	
6240	0	57112	
6241	0	55992	
6242	0	54373	
6243	0	52368	
6244	0	50183	
6245	0	48025	
6246	0	45906	
6247	0	43808	
6248	0	41702	
6249	0	39694	
6250	0	37844	
6251	0	36192	
6252	0	34728	
6253	0	33468	
6254	0	32448	
6255	0	31732	
6256	0	31351	
6257	0	31186	
6258	0	31144	
6259	0	31148	
6260	0	31141	
6261	0	31086	
6262	0	30968	
6263	0	30822	
6264	0	30700	
6265	0	30644	
6266	0	30652	
6267	0	30727	
6268	0	30820	
6269	0	30848	
6270	0	30850	
6271	0	30808	
6272	0	30765	
6273	0	30708	
6274	0	30630	
6275	0	30540	
6276	0	30464	
6277	0	30408	
6278	0	30377	
6279	0	30372	
6280	0	30378	
6281	0	30361	
6282	0	30298	
6283	0	30242	
6284	0	30212	
6285	0	30170	
6286	0	30175	
6287	0	30164	
6288	0	30152	
6289	0	30180	
6290	0	30244	
6291	0	30288	
6292	0	30280	
6293	0	30308	
6294	0	30342	
6295	0	30318	
6296	0	30284	
6297	0	30237	
6298	0	30178	
6299	0	30144	
6300	0	30119	
6301	0	30064	
6302	0	30036	
6303	0	30069	
6304	0	30108	
6305	0	30154	
6306	0	30215	
6307	0	30300	
6308	0	30394	
6309	0	30444	
6310	0	30486	
6311	0	30510	
6312	0	30570	
6313	0	30626	
6314	0	30628	
6315	0	30592	
6316	0	30564	
6317	0	30520	
6318	0	30503	
6319	0	30524	
6320	0	30508	
6321	0	30508	
6322	0	30508	
6323	0	30551	
6324	0	30596	
6325	0	30677	
6326	0	30763	
6327	0	30802	
6328	0	30812	
6329	0	30820	
6330	0	30866	
6331	0	30948	
6332	0	31026	
6333	0	31092	
6334	0	31139	
6335	0	31136	
6336	0	31136	
6337	0	31143	
6338	0	31120	
6339	0	31136	
6340	0	31170	
6341	0	31192	
6342	0	31223	
6343	0	31217	
6344	0	31259	
6345	0	31383	
6346	0	31460	
6347	0	31498	
6348	0	31548	
6349	0	31594	
6350	0	31622	
6351	0	31636	
6352	0	31647	
6353	0	31706	
6354	0	31788	
6355	0	31821	
6356	0	31822	
6357	0	31858	
6358	0	31941	
6359	0	32004	
6360	0	32064	
6361	0	32119	
6362	0	32150	
6363	0	32164	
6364	0	32198	
6365	0	32282	
6366	0	32352	
6367	0	32422	
6368	0	32420	
6369	0	32386	
6370	0	32352	
6371	0	32342	
6372	0	32343	
6373	0	32364	
6374	0	32392	
6375	0	32429	
6376	0	32474	
6377	0	32490	
6378	0	32504	
6379	0	32520	
6380	0	32519	
6381	0	32500	
6382	0	32482	
6383	0	32487	
6384	0	32501	
6385	0	32528	
6386	0	32600	
6387	0	32664	
6388	0	32720	
6389	0	32762	
6390	0	32824	
6391	0	32869	
6392	0	32930	
6393	0	32971	
6394	0	33012	
6395	0	33019	
6396	0	33031	
6397	0	33066	
6398	0	33097	
6399	0	33120	
6400	0	33120	
6401	0	33101	
6402	0	33108	
6403	0	33150	
6404	0	33208	
6405	0	33304	
6406	0	33375	
6407	0	33398	
6408	0	33446	
6409	0	33460	
6410	0	33464	
6411	0	33508	
6412	0	33609	
6413	0	33734	
6414	0	33841	
6415	0	33924	
6416	0	33968	
6417	0	34023	
6418	0	34064	
6419	0	34084	
6420	0	34095	
6421	0	34104	
6422	0	34084	
6423	0	34087	
6424	0	34092	
6425	0	34148	
6426	0	34222	
6427	0	34352	
6428	0	34472	
6429	0	34575	
6430	0	34628	
6431	0	34673	
6432	0	34726	
6433	0	34768	
6434	0	34802	
6435	0	34804	
6436	0	34804	
6437	0	34822	
6438	0	34853	
6439	0	34887	
6440	0	34924	
6441	0	34948	
6442	0	34976	
6443	0	34990	
6444	0	35068	
6445	0	35164	
6446	0	35211	
6447	0	35228	
6448	0	35207	
6449	0	35170	
6450	0	35101	
6451	0	35028	
6452	0	34948	
6453	0	34879	
6454	0	34810	
6455	0	34748	
6456	0	34718	
6457	0	34742	
6458	0	34760	
6459	0	34800	
6460	0	34808	
6461	0	34796	
6462	0	34778	
6463	0	34756	
6464	0	34750	
6465	0	34744	
6466	0	34722	
6467	0	34698	
6468	0	34694	
6469	0	34672	
6470	0	34634	
6471	0	34592	
6472	0	34574	
6473	0	34546	
6474	0	34496	
6475	0	34439	
6476	0	34397	
6477	0	34334	
6478	0	34280	
6479	0	34247	
6480	0	34200	
6481	0	34118	
6482	0	34065	
6483	0	34006	
6484	0	33991	
6485	0	33977	
6486	0	33972	
6487	0	33936	
6488	0	33890	
6489	0	33830	
6490	0	33772	
6491	0	33744	
6492	0	33724	
6493	0	33708	
6494	0	33662	
6495	0	33584	
6496	0	33482	
6497	0	33399	
6498	0	33316	
6499	0	33204	
6500	0	33092	
6501	0	32952	
6502	0	32824	
6503	0	32701	
6504	0	32640	
6505	0	32584	
6506	0	32588	
6507	0	32556	
6508	0	32519	
6509	0	32456	
6510	0	32400	
6511	0	32336	
6512	0	32260	
6513	0	32184	
6514	0	32092	
6515	0	31980	
6516	0	31848	
6517	0	31751	
6518	0	31682	
6519	0	31608	
6520	0	31538	
6521	0	31500	
6522	0	31476	
6523	0	31451	
6524	0	31427	
6525	0	31426	
6526	0	31422	
6527	0	31382	
6528	0	31332	
6529	0	31334	
6530	0	31367	
6531	0	31417	
6532	0	31448	
6533	0	31448	
6534	0	31436	
6535	0	31436	
6536	0	31452	
6537	0	31446	
6538	0	31436	
6539	0	31438	
6540	0	31392	
6541	0	31337	
6542	0	31273	
6543	0	31220	
6544	0	31201	
6545	0	31205	
6546	0	31203	
6547	0	31236	
6548	0	31270	
6549	0	31256	
6550	0	31206	
6551	0	31168	
6552	0	31128	
6553	0	31113	
6554	0	31147	
6555	0	31239	
6556	0	31330	
6557	0	31407	
6558	0	31469	
6559	0	31495	
6560	0	31502	
6561	0	31503	
6562	0	31460	
6563	0	31438	
6564	0	31448	
6565	0	31486	
6566	0	31540	
6567	0	31598	
6568	0	31622	
6569	0	31658	
6570	0	31668	
6571	0	31687	
6572	0	31709	
6573	0	31751	
6574	0	31763	
6575	0	31740	
6576	0	31712	
6577	0	31696	
6578	0	31686	
6579	0	31668	
6580	0	31664	
6581	0	31676	
6582	0	31716	
6583	0	31776	
6584	0	31816	
6585	0	31856	
6586	0	31894	
6587	0	31912	
6588	0	31884	
6589	0	31854	
6590	0	31848	
6591	0	31874	
6592	0	31918	
6593	0	31964	
6594	0	31988	
6595	0	31996	
6596	0	32002	
6597	0	31989	
6598	0	31947	
6599	0	31929	
6600	0	31908	
6601	0	31896	
6602	0	31879	
6603	0	31866	
6604	0	31856	
6605	0	31848	
6606	0	31830	
6607	0	31836	
6608	0	31860	
6609	0	31871	
6610	0	31896	
6611	0	31910	
6612	0	31940	
6613	0	32013	
6614	0	32084	
6615	0	32131	
6616	0	32132	
6617	0	32142	
6618	0	32144	
6619	0	32122	
6620	0	32084	
6621	0	32060	
6622	0	32028	
6623	0	32033	
6624	0	32024	
6625	0	32012	
6626	0	32018	
6627	0	32046	
6628	0	32048	
6629	0	32040	
6630	0	32008	
6631	0	31976	
6632	0	31946	
6633	0	31923	
6634	0	31916	
6635	0	31916	
6636	0	31908	
6637	0	31916	
6638	0	31933	
6639	0	31944	
6640	0	31932	
6641	0	31912	
6642	0	31916	
6643	0	31914	
6644	0	31904	
6645	0	31898	
6646	0	31902	
6647	0	31916	
6648	0	31916	
6649	0	31906	
6650	0	31908	
6651	0	31940	
6652	0	31960	
6653	0	31965	
6654	0	31994	
6655	0	31964	
6656	0	31900	
6657	0	31833	
6658	0	31781	
6659	0	31742	
6660	0	31720	
6661	0	31716	
6662	0	31730	
6663	0	31720	
6664	0	31738	
6665	0	31728	
6666	0	31724	
6667	0	31712	
6668	0	31673	
6669	0	31638	
6670	0	31646	
6671	0	31652	
6672	0	31676	
6673	0	31684	
6674	0	31707	
6675	0	31760	
6676	0	31794	
6677	0	31820	
6678	0	31814	
6679	0	31785	
6680	0	31772	
6681	0	31760	
6682	0	31744	
6683	0	31706	
6684	0	31708	
6685	0	31701	
6686	0	31728	
6687	0	31777	
6688	0	31779	
6689	0	31796	
6690	0	31772	
6691	0	31773	
6692	0	31773	
6693	0	31764	
6694	0	31720	
6695	0	31688	
6696	0	31630	
6697	0	31576	
6698	0	31513	
6699	0	31486	
6700	0	31470	
6701	0	31462	
6702	0	31464	
6703	0	31463	
6704	0	31484	
6705	0	31538	
6706	0	31597	
6707	0	31650	
6708	0	31687	
6709	0	31688	
6710	0	31693	
6711	0	31652	
6712	0	31636	
6713	0	31629	
6714	0	31625	
6715	0	31625	
6716	0	31609	
6717	0	31586	
6718	0	31604	
6719	0	31618	
6720	0	31648	
6721	0	31652	
6722	0	31653	
6723	0	31660	
6724	0	31623	
6725	0	31586	
6726	0	31593	
6727	0	31614	
6728	0	31642	
6729	0	31634	
6730	0	31616	
6731	0	31588	
6732	0	31547	
6733	0	31542	
6734	0	31478	
6735	0	31436	
6736	0	31403	
6737	0	31394	
6738	0	31425	
6739	0	31431	
6740	0	31423	
6741	0	31402	
6742	0	31412	
6743	0	31434	
6744	0	31482	
6745	0	31544	
6746	0	31604	
6747	0	31615	
6748	0	31568	
6749	0	31522	
6750	0	31498	
6751	0	31510	
6752	0	31502	
6753	0	31518	
6754	0	31524	
6755	0	31532	
6756	0	31581	
6757	0	31647	
6758	0	31668	
6759	0	31683	
6760	0	31644	
6761	0	31628	
6762	0	31608	
6763	0	31604	
6764	0	31601	
6765	0	31600	
6766	0	31591	
6767	0	31606	
6768	0	31626	
6769	0	31654	
6770	0	31672	
6771	0	31626	
6772	0	31566	
6773	0	31532	
6774	0	31480	
6775	0	31410	
6776	0	31324	
6777	0	31290	
6778	0	31364	
6779	0	31460	
6780	0	31522	
6781	0	31564	
6782	0	31612	
6783	0	31694	
6784	0	31797	
6785	0	31850	
6786	0	31879	
6787	0	31884	
6788	0	31901	
6789	0	31910	
6790	0	31926	
6791	0	31940	
6792	0	31974	
6793	0	31976	
6794	0	31932	
6795	0	31929	
6796	0	31952	
6797	0	31994	
6798	0	32057	
6799	0	32101	
6800	0	32152	
6801	0	32221	
6802	0	32330	
6803	0	32516	
6804	0	32696	
6805	0	32856	
6806	0	32976	
6807	0	33056	
6808	0	33123	
6809	0	33140	
6810	0	33180	
6811	0	33254	
6812	0	33394	
6813	0	33540	
6814	0	33678	
6815	0	33792	
6816	0	33877	
6817	0	33947	
6818	0	33986	
6819	0	34006	
6820	0	34006	
6821	0	33976	
6822	0	33936	
6823	0	33848	
6824	0	33799	
6825	0	33785	
6826	0	33784	
6827	0	33774	
6828	0	33784	
6829	0	33824	
6830	0	33885	
6831	0	33959	
6832	0	34076	
6833	0	34208	
6834	0	34309	
6835	0	34392	
6836	0	34466	
6837	0	34548	
6838	0	34588	
6839	0	34598	
6840	0	34596	
6841	0	34564	
6842	0	34550	
6843	0	34560	
6844	0	34556	
6845	0	34568	
6846	0	34624	
6847	0	34662	
6848	0	34644	
6849	0	34616	
6850	0	34641	
6851	0	34704	
6852	0	34784	
6853	0	34754	
6854	0	34624	
6855	0	34378	
6856	0	34092	
6857	0	33834	
6858	0	33618	
6859	0	33480	
6860	0	33369	
6861	0	33286	
6862	0	33220	
6863	0	33140	
6864	0	33039	
6865	0	32956	
6866	0	32903	
6867	0	32882	
6868	0	32884	
6869	0	32882	
6870	0	32854	
6871	0	32804	
6872	0	32698	
6873	0	32548	
6874	0	32388	
6875	0	32196	
6876	0	31977	
6877	0	31768	
6878	0	31643	
6879	0	31577	
6880	0	31520	
6881	0	31445	
6882	0	31362	
6883	0	31268	
6884	0	31220	
6885	0	31193	
6886	0	31179	
6887	0	31142	
6888	0	31094	
6889	0	31016	
6890	0	30901	
6891	0	30808	
6892	0	30744	
6893	0	30690	
6894	0	30626	
6895	0	30530	
6896	0	30458	
6897	0	30436	
6898	0	30468	
6899	0	30475	
6900	0	30504	
6901	0	30528	
6902	0	30540	
6903	0	30552	
6904	0	30592	
6905	0	30629	
6906	0	30686	
6907	0	30695	
6908	0	30712	
6909	0	30736	
6910	0	30800	
6911	0	30888	
6912	0	30934	
6913	0	30944	
6914	0	30921	
6915	0	30900	
6916	0	30860	
6917	0	30842	
6918	0	30826	
6919	0	30848	
6920	0	30868	
6921	0	30884	
6922	0	30905	
6923	0	30941	
6924	0	30967	
6925	0	31001	
6926	0	31045	
6927	0	31088	
6928	0	31056	
6929	0	30998	
6930	0	30966	
6931	0	30968	
6932	0	30961	
6933	0	30953	
6934	0	30956	
6935	0	30931	
6936	0	30913	
6937	0	30884	
6938	0	30818	
6939	0	30720	
6940	0	30588	
6941	0	30380	
6942	0	30190	
6943	0	30040	
6944	0	29937	
6945	0	29876	
6946	0	29828	
6947	0	29716	
6948	0	29562	
6949	0	29400	
6950	0	29256	
6951	0	29106	
6952	0	29060	
6953	0	29114	
6954	0	29254	
6955	0	29472	
6956	0	29776	
6957	0	30133	
6958	0	30548	
6959	0	31032	
6960	0	31634	
6961	0	32406	
6962	0	33378	
6963	0	34452	
6964	0	35521	
6965	0	36728	
6966	0	38144	
6967	0	39614	
6968	0	41204	
6969	0	42988	
6970	0	45038	
6971	0	47137	
6972	0	48992	
6973	0	50434	
6974	0	51564	
6975	0	52506	
6976	0	53382	
6977	0	54200	
6978	0	54884	
6979	0	55408	
6980	0	55848	
6981	0	56016	
6982	0	55654	
6983	0	54696	
6984	0	53244	
6985	0	51422	
6986	0	49341	
6987	0	47172	
6988	0	45028	
6989	0	42896	
6990	0	40770	
6991	0	38780	
6992	0	36964	
6993	0	35340	
6994	0	33945	
6995	0	32758	
6996	0	31798	
6997	0	31030	
6998	0	30528	
6999	0	30253	
7000	0	30180	
7001	0	30200	
7002	0	30292	
7003	0	30398	
7004	0	30471	
7005	0	30464	
7006	0	30404	
7007	0	30338	
7008	0	30324	
7009	0	30318	
7010	0	30303	
7011	0	30302	
7012	0	30274	
7013	0	30212	
7014	0	30082	
7015	0	29930	
7016	0	29868	
7017	0	29872	
7018	0	29831	
7019	0	29778	
7020	0	29738	
7021	0	29712	
7022	0	29661	
7023	0	29656	
7024	0	29666	
7025	0	29656	
7026	0	29664	
7027	0	29686	
7028	0	29688	
7029	0	29653	
7030	0	29616	
7031	0	29597	
7032	0	29606	
7033	0	29626	
7034	0	29622	
7035	0	29596	
7036	0	29560	
7037	0	29551	
7038	0	29562	
7039	0	29576	
7040	0	29626	
7041	0	29684	
7042	0	29750	
7043	0	29794	
7044	0	29858	
7045	0	29940	
7046	0	30016	
7047	0	30091	
7048	0	30119	
7049	0	30136	
7050	0	30160	
7051	0	30172	
7052	0	30203	
7053	0	30236	
7054	0	30245	
7055	0	30210	
7056	0	30175	
7057	0	30132	
7058	0	30116	
7059	0	30113	
7060	0	30112	
7061	0	30109	
7062	0	30116	
7063	0	30128	
7064	0	30170	
7065	0	30244	
7066	0	30369	
7067	0	30508	
7068	0	30570	
7069	0	30578	
7070	0	30553	
7071	0	30512	
7072	0	30499	
7073	0	30500	
7074	0	30482	
7075	0	30467	
7076	0	30436	
7077	0	30440	
7078	0	30460	
7079	0	30508	
7080	0	30562	
7081	0	30599	
7082	0	30627	
7083	0	30616	
7084	0	30633	
7085	0	30688	
7086	0	30747	
7087	0	30840	
7088	0	30956	
7089	0	31031	
7090	0	31044	
7091	0	31084	
7092	0	31132	
7093	0	31207	
7094	0	31282	
7095	0	31307	
7096	0	31296	
7097	0	31320	
7098	0	31377	
7099	0	31478	
7100	0	31562	
7101	0	31629	
7102	0	31648	
7103	0	31664	
7104	0	31684	
7105	0	31737	
7106	0	31796	
7107	0	31884	
7108	0	31921	
7109	0	31926	
7110	0	31918	
7111	0	31908	
7112	0	31888	
7113	0	31857	
7114	0	31817	
7115	0	31788	
7116	0	31772	
7117	0	31803	
7118	0	31854	
7119	0	31858	
7120	0	31860	
7121	0	31892	
7122	0	31932	
7123	0	31973	
7124	0	32062	
7125	0	32184	
7126	0	32283	
7127	0	32356	
7128	0	32404	
7129	0	32423	
7130	0	32458	
7131	0	32504	
7132	0	32548	
7133	0	32600	
7134	0	32672	
7135	0	32762	
7136	0	32812	
7137	0	32844	
7138	0	32819	
7139	0	32775	
7140	0	32724	
7141	0	32672	
7142	0	32658	
7143	0	32660	
7144	0	32656	
7145	0	32660	
7146	0	32692	
7147	0	32770	
7148	0	32902	
7149	0	33023	
7150	0	33140	
7151	0	33264	
7152	0	33394	
7153	0	33496	
7154	0	33596	
7155	0	33688	
7156	0	33758	
7157	0	33778	
7158	0	33776	
7159	0	33768	
7160	0	33783	
7161	0	33806	
7162	0	33849	
7163	0	33892	
7164	0	33948	
7165	0	34034	
7166	0	34120	
7167	0	34157	
7168	0	34164	
7169	0	34157	
7170	0	34156	
7171	0	34200	
7172	0	34256	
7173	0	34350	
7174	0	34454	
7175	0	34498	
7176	0	34506	
7177	0	34532	
7178	0	34569	
7179	0	34608	
7180	0	34628	
7181	0	34637	
7182	0	34650	
7183	0	34646	
7184	0	34621	
7185	0	34627	
7186	0	34678	
7187	0	34729	
7188	0	34780	
7189	0	34784	
7190	0	34818	
7191	0	34878	
7192	0	34920	
7193	0	34935	
7194	0	34936	
7195	0	34916	
7196	0	34862	
7197	0	34780	
7198	0	34695	
7199	0	34638	
7200	0	34622	
7201	0	34654	
7202	0	34676	
7203	0	34698	
7204	0	34718	
7205	0	34746	
7206	0	34758	
7207	0	34768	
7208	0	34778	
7209	0	34728	
7210	0	34634	
7211	0	34532	
7212	0	34488	
7213	0	34468	
7214	0	34439	
7215	0	34403	
7216	0	34362	
7217	0	34288	
7218	0	34196	
7219	0	34104	
7220	0	34049	
7221	0	34030	
7222	0	34023	
7223	0	33958	
7224	0	33898	
7225	0	33856	
7226	0	33858	
7227	0	33876	
7228	0	33888	
7229	0	33846	
7230	0	33788	
7231	0	33744	
7232	0	33767	
7233	0	33833	
7234	0	33856	
7235	0	33744	
7236	0	33613	
7237	0	33483	
7238	0	33313	
7239	0	33191	
7240	0	33082	
7241	0	32978	
7242	0	32852	
7243	0	32700	
7244	0	32600	
7245	0	32584	
7246	0	32568	
7247	0	32568	
7248	0	32516	
7249	0	32432	
7250	0	32346	
7251	0	32263	
7252	0	32214	
7253	0	32219	
7254	0	32230	
7255	0	32208	
7256	0	32196	
7257	0	32218	
7258	0	32168	
7259	0	32048	
7260	0	31908	
7261	0	31798	
7262	0	31674	
7263	0	31542	
7264	0	31435	
7265	0	31401	
7266	0	31411	
7267	0	31436	
7268	0	31446	
7269	0	31418	
7270	0	31360	
7271	0	31327	
7272	0	31304	
7273	0	31291	
7274	0	31249	
7275	0	31233	
7276	0	31200	
7277	0	31159	
7278	0	31114	
7279	0	31100	
7280	0	31076	
7281	0	31082	
7282	0	31106	
7283	0	31125	
7284	0	31138	
7285	0	31136	
7286	0	31172	
7287	0	31264	
7288	0	31340	
7289	0	31367	
7290	0	31356	
7291	0	31320	
7292	0	31228	
7293	0	31112	
7294	0	31120	
7295	0	31197	
7296	0	31281	
7297	0	31356	
7298	0	31372	
7299	0	31385	
7300	0	31376	
7301	0	31359	
7302	0	31356	
7303	0	31373	
7304	0	31413	
7305	0	31490	
7306	0	31556	
7307	0	31600	
7308	0	31596	
7309	0	31532	
7310	0	31484	
7311	0	31520	
7312	0	31562	
7313	0	31629	
7314	0	31696	
7315	0	31738	
7316	0	31726	
7317	0	31677	
7318	0	31632	
7319	0	31614	
7320	0	31602	
7321	0	31588	
7322	0	31551	
7323	0	31492	
7324	0	31468	
7325	0	31442	
7326	0	31444	
7327	0	31470	
7328	0	31556	
7329	0	31702	
7330	0	31834	
7331	0	31890	
7332	0	31914	
7333	0	31920	
7334	0	31944	
7335	0	31983	
7336	0	32037	
7337	0	32110	
7338	0	32166	
7339	0	32194	
7340	0	32186	
7341	0	32129	
7342	0	32057	
7343	0	31976	
7344	0	31908	
7345	0	31840	
7346	0	31776	
7347	0	31764	
7348	0	31796	
7349	0	31784	
7350	0	31720	
7351	0	31656	
7352	0	31614	
7353	0	31596	
7354	0	31578	
7355	0	31568	
7356	0	31584	
7357	0	31585	
7358	0	31602	
7359	0	31688	
7360	0	31768	
7361	0	31824	
7362	0	31840	
7363	0	31844	
7364	0	31872	
7365	0	31940	
7366	0	32026	
7367	0	32094	
7368	0	32109	
7369	0	32093	
7370	0	32076	
7371	0	32110	
7372	0	32143	
7373	0	32137	
7374	0	32085	
7375	0	32028	
7376	0	31979	
7377	0	32000	
7378	0	32030	
7379	0	32032	
7380	0	31969	
7381	0	31896	
7382	0	31842	
7383	0	31750	
7384	0	31681	
7385	0	31646	
7386	0	31642	
7387	0	31652	
7388	0	31616	
7389	0	31562	
7390	0	31590	
7391	0	31676	
7392	0	31751	
7393	0	31779	
7394	0	31786	
7395	0	31808	
7396	0	31832	
7397	0	31838	
7398	0	31816	
7399	0	31796	
7400	0	31800	
7401	0	31804	
7402	0	31776	
7403	0	31702	
7404	0	31674	
7405	0	31687	
7406	0	31744	
7407	0	31844	
7408	0	31948	
7409	0	32056	
7410	0	32104	
7411	0	32079	
7412	0	32028	
7413	0	31948	
7414	0	31912	
7415	0	31900	
7416	0	31881	
7417	0	31868	
7418	0	31838	
7419	0	31791	
7420	0	31743	
7421	0	31688	
7422	0	31652	
7423	0	31624	
7424	0	31594	
7425	0	31538	
7426	0	31495	
7427	0	31474	
7428	0	31512	
7429	0	31564	
7430	0	31640	
7431	0	31672	
7432	0	31664	
7433	0	31686	
7434	0	31728	
7435	0	31740	
7436	0	31740	
7437	0	31770	
7438	0	31800	
7439	0	31812	
7440	0	31824	
7441	0	31816	
7442	0	31784	
7443	0	31743	
7444	0	31696	
7445	0	31622	
7446	0	31630	
7447	0	31772	
7448	0	31870	
7449	0	31858	
7450	0	31734	
7451	0	31642	
7452	0	31600	
7453	0	31597	
7454	0	31566	
7455	0	31574	
7456	0	31646	
7457	0	31704	
7458	0	31717	
7459	0	31682	
7460	0	31623	
7461	0	31626	
7462	0	31666	
7463	0	31725	
7464	0	31784	
7465	0	31836	
7466	0	31868	
7467	0	31965	
7468	0	32042	
7469	0	32057	
7470	0	32063	
7471	0	32040	
7472	0	31940	
7473	0	31860	
7474	0	31816	
7475	0	31804	
7476	0	31760	
7477	0	31751	
7478	0	31793	
7479	0	31806	
7480	0	31807	
7481	0	31793	
7482	0	31742	
7483	0	31708	
7484	0	31713	
7485	0	31780	
7486	0	31879	
7487	0	31988	
7488	0	32048	
7489	0	32052	
7490	0	32012	
7491	0	32018	
7492	0	32048	
7493	0	32110	
7494	0	32144	
7495	0	32168	
7496	0	32210	
7497	0	32228	
7498	0	32200	
7499	0	32175	
7500	0	32178	
7501	0	32178	
7502	0	32126	
7503	0	32026	
7504	0	31919	
7505	0	31832	
7506	0	31792	
7507	0	31765	
7508	0	31761	
7509	0	31782	
7510	0	31866	
7511	0	31957	
7512	0	32018	
7513	0	32070	
7514	0	32104	
7515	0	32064	
7516	0	32014	
7517	0	31944	
7518	0	31913	
7519	0	31848	
7520	0	31815	
7521	0	31836	
7522	0	31888	
7523	0	31900	
7524	0	31899	
7525	0	31867	
7526	0	31888	
7527	0	31967	
7528	0	32049	
7529	0	32102	
7530	0	32085	
7531	0	32088	
7532	0	32130	
7533	0	32212	
7534	0	32344	
7535	0	32468	
7536	0	32600	
7537	0	32733	
7538	0	32832	
7539	0	32893	
7540	0	32968	
7541	0	33037	
7542	0	33080	
7543	0	33085	
7544	0	33040	
7545	0	33066	
7546	0	33171	
7547	0	33274	
7548	0	33410	
7549	0	33566	
7550	0	33671	
7551	0	33712	
7552	0	33734	
7553	0	33798	
7554	0	33872	
7555	0	33944	
7556	0	33996	
7557	0	33992	
7558	0	33925	
7559	0	33860	
7560	0	33786	
7561	0	33705	
7562	0	33586	
7563	0	33446	
7564	0	33366	
7565	0	33346	
7566	0	33426	
7567	0	33568	
7568	0	33765	
7569	0	33946	
7570	0	34127	
7571	0	34216	
7572	0	34311	
7573	0	34388	
7574	0	34439	
7575	0	34528	
7576	0	34657	
7577	0	34810	
7578	0	34940	
7579	0	34980	
7580	0	34980	
7581	0	35053	
7582	0	35180	
7583	0	35201	
7584	0	35172	
7585	0	35122	
7586	0	35068	
7587	0	35042	
7588	0	34989	
7589	0	34898	
7590	0	34735	
7591	0	34532	
7592	0	34330	
7593	0	34142	
7594	0	33956	
7595	0	33814	
7596	0	33712	
7597	0	33644	
7598	0	33592	
7599	0	33544	
7600	0	33438	
7601	0	33324	
7602	0	33198	
7603	0	33114	
7604	0	33028	
7605	0	32996	
7606	0	32994	
7607	0	33026	
7608	0	33023	
7609	0	33001	
7610	0	32836	
7611	0	32608	
7612	0	32444	
7613	0	32394	
7614	0	32348	
7615	0	32228	
7616	0	32058	
7617	0	31852	
7618	0	31620	
7619	0	31382	
7620	0	31238	
7621	0	31170	
7622	0	31111	
7623	0	31062	
7624	0	30988	
7625	0	30916	
7626	0	30886	
7627	0	30872	
7628	0	30826	
7629	0	30776	
7630	0	30754	
7631	0	30752	
7632	0	30723	
7633	0	30685	
7634	0	30638	
7635	0	30596	
7636	0	30561	
7637	0	30540	
7638	0	30538	
7639	0	30573	
7640	0	30599	
7641	0	30564	
7642	0	30531	
7643	0	30524	
7644	0	30584	
7645	0	30624	
7646	0	30685	
7647	0	30761	
7648	0	30848	
7649	0	30936	
7650	0	31018	
7651	0	31088	
7652	0	31164	
7653	0	31312	
7654	0	31484	
7655	0	31650	
7656	0	31682	
7657	0	31616	
7658	0	31541	
7659	0	31531	
7660	0	31524	
7661	0	31493	
7662	0	31428	
7663	0	31282	
7664	0	31165	
7665	0	31140	
7666	0	31208	
7667	0	31312	
7668	0	31342	
7669	0	31276	
7670	0	31228	
7671	0	31232	
7672	0	31232	
7673	0	31218	
7674	0	31172	
7675	0	31028	
7676	0	30837	
7677	0	30624	
7678	0	30420	
7679	0	30264	
7680	0	30174	
7681	0	30116	
7682	0	30027	
7683	0	29888	
7684	0	29724	
7685	0	29588	
7686	0	29491	
7687	0	29453	
7688	0	29490	
7689	0	29607	
7690	0	29826	
7691	0	30044	
7692	0	30271	
7693	0	30547	
7694	0	30894	
7695	0	31308	
7696	0	31792	
7697	0	32440	
7698	0	33348	
7699	0	34381	
7700	0	35360	
7701	0	36340	
7702	0	37509	
7703	0	38837	
7704	0	40296	
7705	0	42012	
7706	0	43916	
7707	0	45888	
7708	0	47848	
7709	0	49638	
7710	0	51116	
7711	0	52280	
7712	0	53056	
7713	0	53578	
7714	0	54034	
7715	0	54424	
7716	0	54704	
7717	0	54766	
7718	0	54468	
7719	0	53906	
7720	0	53096	
7721	0	51980	
7722	0	50440	
7723	0	48698	
7724	0	46744	
7725	0	44551	
7726	0	42268	
7727	0	40048	
7728	0	37992	
7729	0	36150	
7730	0	34578	
7731	0	33286	
7732	0	32218	
7733	0	31322	
7734	0	30647	
7735	0	30140	
7736	0	29782	
7737	0	29590	
7738	0	29545	
7739	0	29592	
7740	0	29724	
7741	0	29880	
7742	0	30048	
7743	0	30173	
7744	0	30245	
7745	0	30343	
7746	0	30432	
7747	0	30458	
7748	0	30493	
7749	0	30535	
7750	0	30574	
7751	0	30603	
7752	0	30640	
7753	0	30681	
7754	0	30645	
7755	0	30548	
7756	0	30412	
7757	0	30333	
7758	0	30298	
7759	0	30314	
7760	0	30336	
7761	0	30338	
7762	0	30331	
7763	0	30314	
7764	0	30260	
7765	0	30235	
7766	0	30220	
7767	0	30236	
7768	0	30232	
7769	0	30305	
7770	0	30495	
7771	0	30665	
7772	0	30702	
7773	0	30719	
7774	0	30706	
7775	0	30666	
7776	0	30612	
7777	0	30568	
7778	0	30599	
7779	0	30616	
7780	0	30608	
7781	0	30608	
7782	0	30644	
7783	0	30656	
7784	0	30599	
7785	0	30552	
7786	0	30580	
7787	0	30656	
7788	0	30684	
7789	0	30664	
7790	0	30690	
7791	0	30726	
7792	0	30756	
7793	0	30830	
7794	0	30952	
7795	0	31060	
7796	0	31136	
7797	0	31100	
7798	0	31026	
7799	0	30970	
7800	0	30921	
7801	0	30876	
7802	0	30840	
7803	0	30820	
7804	0	30868	
7805	0	30936	
7806	0	31012	
7807	0	31109	
7808	0	31156	
7809	0	31182	
7810	0	31214	
7811	0	31224	
7812	0	31218	
7813	0	31200	
7814	0	31184	
7815	0	31188	
7816	0	31204	
7817	0	31237	
7818	0	31262	
7819	0	31292	
7820	0	31306	
7821	0	31300	
7822	0	31290	
7823	0	31320	
7824	0	31332	
7825	0	31373	
7826	0	31462	
7827	0	31622	
7828	0	31804	
7829	0	31946	
7830	0	31995	
7831	0	31995	
7832	0	32020	
7833	0	32012	
7834	0	32000	
7835	0	32020	
7836	0	32058	
7837	0	32082	
7838	0	32048	
7839	0	32049	
7840	0	32104	
7841	0	32122	
7842	0	32104	
7843	0	32068	
7844	0	32061	
7845	0	32076	
7846	0	32116	
7847	0	32142	
7848	0	32200	
7849	0	32263	
7850	0	32320	
7851	0	32358	
7852	0	32373	
7853	0	32384	
7854	0	32425	
7855	0	32428	
7856	0	32432	
7857	0	32428	
7858	0	32448	
7859	0	32558	
7860	0	32692	
7861	0	32824	
7862	0	32927	
7863	0	32948	
7864	0	32916	
7865	0	32903	
7866	0	32935	
7867	0	32999	
7868	0	33061	
7869	0	33095	
7870	0	33100	
7871	0	33111	
7872	0	33096	
7873	0	33070	
7874	0	33080	
7875	0	33122	
7876	0	33168	
7877	0	33155	
7878	0	33180	
7879	0	33252	
7880	0	33357	
7881	0	33445	
7882	0	33520	
7883	0	33582	
7884	0	33617	
7885	0	33650	
7886	0	33727	
7887	0	33797	
7888	0	33900	
7889	0	33940	
7890	0	33986	
7891	0	33991	
7892	0	33990	
7893	0	34020	
7894	0	34080	
7895	0	34148	
7896	0	34200	
7897	0	34240	
7898	0	34268	
7899	0	34346	
7900	0	34410	
7901	0	34456	
7902	0	34494	
7903	0	34516	
7904	0	34544	
7905	0	34644	
7906	0	34752	
7907	0	34876	
7908	0	34965	
7909	0	35037	
7910	0	35101	
7911	0	35132	
7912	0	35132	
7913	0	35146	
7914	0	35196	
7915	0	35224	
7916	0	35222	
7917	0	35228	
7918	0	35233	
7919	0	35258	
7920	0	35323	
7921	0	35421	
7922	0	35430	
7923	0	35392	
7924	0	35391	
7925	0	35386	
7926	0	35330	
7927	0	35312	
7928	0	35362	
7929	0	35458	
7930	0	35513	
7931	0	35530	
7932	0	35586	
7933	0	35631	
7934	0	35672	
7935	0	35696	
7936	0	35622	
7937	0	35559	
7938	0	35504	
7939	0	35463	
7940	0	35416	
7941	0	35356	
7942	0	35310	
7943	0	35298	
7944	0	35288	
7945	0	35268	
7946	0	35252	
7947	0	35230	
7948	0	35134	
7949	0	35037	
7950	0	34932	
7951	0	34868	
7952	0	34879	
7953	0	34900	
7954	0	34924	
7955	0	34928	
7956	0	34926	
7957	0	34946	
7958	0	34980	
7959	0	34980	
7960	0	34939	
7961	0	34909	
7962	0	34843	
7963	0	34776	
7964	0	34695	
7965	0	34653	
7966	0	34604	
7967	0	34569	
7968	0	34527	
7969	0	34470	
7970	0	34375	
7971	0	34284	
7972	0	34218	
7973	0	34160	
7974	0	34108	
7975	0	34076	
7976	0	34025	
7977	0	33898	
7978	0	33755	
7979	0	33616	
7980	0	33496	
7981	0	33406	
7982	0	33280	
7983	0	33137	
7984	0	33050	
7985	0	33016	
7986	0	33039	
7987	0	33120	
7988	0	33140	
7989	0	33094	
7990	0	32980	
7991	0	32900	
7992	0	32812	
7993	0	32762	
7994	0	32730	
7995	0	32650	
7996	0	32544	
7997	0	32402	
7998	0	32255	
7999	0	32091	
8000	0	31940	
8001	0	31800	
8002	0	31685	
8003	0	31655	
8004	0	31613	
8005	0	31570	
8006	0	31548	
8007	0	31540	
8008	0	31554	
8009	0	31546	
8010	0	31480	
8011	0	31405	
8012	0	31354	
8013	0	31319	
8014	0	31264	
8015	0	31214	
8016	0	31196	
8017	0	31181	
8018	0	31146	
8019	0	31144	
8020	0	31140	
8021	0	31140	
8022	0	31134	
8023	0	31128	
8024	0	31122	
8025	0	31122	
8026	0	31142	
8027	0	31154	
8028	0	31158	
8029	0	31148	
8030	0	31112	
8031	0	31058	
8032	0	31074	
8033	0	31100	
8034	0	31164	
8035	0	31172	
8036	0	31152	
8037	0	31152	
8038	0	31201	
8039	0	31268	
8040	0	31300	
8041	0	31285	
8042	0	31258	
8043	0	31232	
8044	0	31239	
8045	0	31290	
8046	0	31330	
8047	0	31373	
8048	0	31408	
8049	0	31463	
8050	0	31448	
8051	0	31431	
8052	0	31432	
8053	0	31427	
8054	0	31428	
8055	0	31408	
8056	0	31427	
8057	0	31420	
8058	0	31383	
8059	0	31364	
8060	0	31364	
8061	0	31414	
8062	0	31468	
8063	0	31488	
8064	0	31500	
8065	0	31480	
8066	0	31500	
8067	0	31559	
8068	0	31620	
8069	0	31618	
8070	0	31605	
8071	0	31602	
8072	0	31589	
8073	0	31598	
8074	0	31581	
8075	0	31557	
8076	0	31552	
8077	0	31574	
8078	0	31592	
8079	0	31660	
8080	0	31716	
8081	0	31686	
8082	0	31633	
8083	0	31613	
8084	0	31604	
8085	0	31623	
8086	0	31616	
8087	0	31582	
8088	0	31556	
8089	0	31524	
8090	0	31516	
8091	0	31513	
8092	0	31560	
8093	0	31673	
8094	0	31788	
8095	0	31860	
8096	0	31884	
8097	0	31878	
8098	0	31872	
8099	0	31848	
8100	0	31808	
8101	0	31792	
8102	0	31796	
8103	0	31824	
8104	0	31804	
8105	0	31794	
8106	0	31798	
8107	0	31820	
8108	0	31826	
8109	0	31812	
8110	0	31792	
8111	0	31780	
8112	0	31741	
8113	0	31717	
8114	0	31660	
8115	0	31588	
8116	0	31527	
8117	0	31533	
8118	0	31584	
8119	0	31588	
8120	0	31584	
8121	0	31582	
8122	0	31581	
8123	0	31576	
8124	0	31582	
8125	0	31618	
8126	0	31717	
8127	0	31776	
8128	0	31798	
8129	0	31751	
8130	0	31692	
8131	0	31650	
8132	0	31657	
8133	0	31672	
8134	0	31704	
8135	0	31682	
8136	0	31666	
8137	0	31672	
8138	0	31675	
8139	0	31702	
8140	0	31716	
8141	0	31675	
8142	0	31601	
8143	0	31554	
8144	0	31522	
8145	0	31570	
8146	0	31646	
8147	0	31698	
8148	0	31722	
8149	0	31730	
8150	0	31684	
8151	0	31640	
8152	0	31604	
8153	0	31622	
8154	0	31604	
8155	0	31586	
8156	0	31576	
8157	0	31573	
8158	0	31585	
8159	0	31601	
8160	0	31608	
8161	0	31598	
8162	0	31590	
8163	0	31574	
8164	0	31559	
8165	0	31549	
8166	0	31552	
8167	0	31573	
8168	0	31596	
8169	0	31592	
8170	0	31594	
8171	0	31608	
8172	0	31623	
8173	0	31618	
8174	0	31562	
8175	0	31497	
8176	0	31462	
8177	0	31436	
8178	0	31424	
8179	0	31382	
8180	0	31352	
8181	0	31312	
8182	0	31301	
8183	0	31288	
8184	0	31296	
8185	0	31304	
8186	0	31366	
8187	0	31440	
8188	0	31537	
8189	0	31592	
8190	0	31564	
8191	0	31490	
8192	0	31401	
8193	0	31348	
8194	0	31330	
8195	0	31296	
8196	0	31264	
8197	0	31286	
8198	0	31312	
8199	0	31290	
8200	0	31285	
8201	0	31340	
8202	0	31422	
8203	0	31479	
8204	0	31480	
8205	0	31500	
8206	0	31476	
8207	0	31449	
8208	0	31404	
8209	0	31347	
8210	0	31334	
8211	0	31406	
8212	0	31568	
8213	0	31730	
8214	0	31804	
8215	0	31792	
8216	0	31776	
8217	0	31751	
8218	0	31688	
8219	0	31639	
8220	0	31616	
8221	0	31570	
8222	0	31484	
8223	0	31440	
8224	0	31455	
8225	0	31484	
8226	0	31533	
8227	0	31589	
8228	0	31634	
8229	0	31645	
8230	0	31670	
8231	0	31706	
8232	0	31744	
8233	0	31741	
8234	0	31751	
8235	0	31734	
8236	0	31690	
8237	0	31666	
8238	0	31703	
8239	0	31776	
8240	0	31815	
8241	0	31849	
8242	0	31896	
8243	0	31982	
8244	0	32093	
8245	0	32209	
8246	0	32332	
8247	0	32486	
8248	0	32647	
8249	0	32740	
8250	0	32794	
8251	0	32857	
8252	0	32892	
8253	0	32948	
8254	0	33010	
8255	0	33110	
8256	0	33200	
8257	0	33298	
8258	0	33346	
8259	0	33384	
8260	0	33388	
8261	0	33388	
8262	0	33412	
8263	0	33402	
8264	0	33366	
8265	0	33326	
8266	0	33376	
8267	0	33466	
8268	0	33508	
8269	0	33512	
8270	0	33500	
8271	0	33513	
8272	0	33605	
8273	0	33725	
8274	0	33876	
8275	0	34048	
8276	0	34183	
8277	0	34252	
8278	0	34268	
8279	0	34276	
8280	0	34320	
8281	0	34368	
8282	0	34402	
8283	0	34463	
8284	0	34493	
8285	0	34496	
8286	0	34488	
8287	0	34464	
8288	0	34525	
8289	0	34586	
8290	0	34612	
8291	0	34620	
8292	0	34688	
8293	0	34784	
8294	0	34842	
8295	0	34816	
8296	0	34688	
8297	0	34504	
8298	0	34380	
8299	0	34247	
8300	0	34128	
8301	0	34014	
8302	0	33863	
8303	0	33670	
8304	0	33444	
8305	0	33256	
8306	0	33116	
8307	0	33072	
8308	0	33072	
8309	0	33116	
8310	0	33108	
8311	0	33060	
8312	0	32996	
8313	0	32972	
8314	0	32963	
8315	0	32933	
8316	0	32870	
8317	0	32754	
8318	0	32573	
8319	0	32340	
8320	0	32135	
8321	0	31950	
8322	0	31789	
8323	0	31644	
8324	0	31494	
8325	0	31364	
8326	0	31280	
8327	0	31265	
8328	0	31246	
8329	0	31212	
8330	0	31141	
8331	0	31010	
8332	0	30906	
8333	0	30832	
8334	0	30764	
8335	0	30712	
8336	0	30660	
8337	0	30602	
8338	0	30554	
8339	0	30508	
8340	0	30431	
8341	0	30365	
8342	0	30310	
8343	0	30280	
8344	0	30267	
8345	0	30272	
8346	0	30332	
8347	0	30436	
8348	0	30522	
8349	0	30598	
8350	0	30633	
8351	0	30663	
8352	0	30697	
8353	0	30727	
8354	0	30790	
8355	0	30887	
8356	0	30980	
8357	0	31008	
8358	0	31008	
8359	0	31012	
8360	0	31019	
8361	0	31002	
8362	0	30970	
8363	0	30997	
8364	0	31068	
8365	0	31110	
8366	0	31069	
8367	0	31029	
8368	0	30997	
8369	0	30950	
8370	0	30884	
8371	0	30774	
8372	0	30720	
8373	0	30791	
8374	0	30964	
8375	0	31124	
8376	0	31254	
8377	0	31378	
8378	0	31432	
8379	0	31433	
8380	0	31344	
8381	0	31208	
8382	0	30992	
8383	0	30722	
8384	0	30426	
8385	0	30154	
8386	0	29980	
8387	0	29902	
8388	0	29842	
8389	0	29752	
8390	0	29617	
8391	0	29517	
8392	0	29442	
8393	0	29392	
8394	0	29333	
8395	0	29318	
8396	0	29402	
8397	0	29572	
8398	0	29803	
8399	0	30087	
8400	0	30424	
8401	0	30882	
8402	0	31464	
8403	0	32208	
8404	0	33085	
8405	0	34077	
8406	0	35124	
8407	0	36154	
8408	0	37278	
8409	0	38508	
8410	0	39885	
8411	0	41400	
8412	0	43142	
8413	0	45056	
8414	0	46983	
8415	0	48748	
8416	0	50164	
8417	0	51332	
8418	0	52288	
8419	0	53016	
8420	0	53692	
8421	0	54204	
8422	0	54594	
8423	0	54840	
8424	0	54780	
8425	0	54279	
8426	0	53456	
8427	0	52359	
8428	0	50964	
8429	0	49256	
8430	0	47320	
8431	0	45149	
8432	0	42816	
8433	0	40474	
8434	0	38274	
8435	0	36320	
8436	0	34632	
8437	0	33198	
8438	0	32042	
8439	0	31120	
8440	0	30368	
8441	0	29858	
8442	0	29608	
8443	0	29428	
8444	0	29333	
8445	0	29368	
8446	0	29504	
8447	0	29676	
8448	0	29842	
8449	0	29960	
8450	0	30078	
8451	0	30192	
8452	0	30298	
8453	0	30346	
8454	0	30372	
8455	0	30394	
8456	0	30412	
8457	0	30421	
8458	0	30405	
8459	0	30390	
8460	0	30350	
8461	0	30264	
8462	0	30180	
8463	0	30096	
8464	0	29972	
8465	0	29880	
8466	0	29883	
8467	0	29932	
8468	0	29988	
8469	0	30020	
8470	0	30034	
8471	0	30026	
8472	0	29996	
8473	0	29964	
8474	0	29978	
8475	0	29978	
8476	0	29952	
8477	0	29940	
8478	0	29892	
8479	0	29899	
8480	0	29910	
8481	0	29928	
8482	0	29912	
8483	0	29901	
8484	0	29904	
8485	0	29922	
8486	0	29968	
8487	0	30066	
8488	0	30124	
8489	0	30176	
8490	0	30230	
8491	0	30296	
8492	0	30380	
8493	0	30457	
8494	0	30536	
8495	0	30584	
8496	0	30624	
8497	0	30648	
8498	0	30704	
8499	0	30766	
8500	0	30772	
8501	0	30727	
8502	0	30663	
8503	0	30592	
8504	0	30550	
8505	0	30567	
8506	0	30660	
8507	0	30748	
8508	0	30824	
8509	0	30842	
8510	0	30826	
8511	0	30821	
8512	0	30814	
8513	0	30800	
8514	0	30809	
8515	0	30800	
8516	0	30815	
8517	0	30821	
8518	0	30789	
8519	0	30776	
8520	0	30752	
8521	0	30748	
8522	0	30776	
8523	0	30818	
8524	0	30878	
8525	0	31004	
8526	0	31180	
8527	0	31342	
8528	0	31430	
8529	0	31478	
8530	0	31498	
8531	0	31514	
8532	0	31557	
8533	0	31588	
8534	0	31668	
8535	0	31728	
8536	0	31784	
8537	0	31820	
8538	0	31811	
8539	0	31789	
8540	0	31785	
8541	0	31794	
8542	0	31800	
8543	0	31812	
8544	0	31842	
8545	0	31908	
8546	0	32006	
8547	0	32064	
8548	0	32124	
8549	0	32196	
8550	0	32272	
8551	0	32332	
8552	0	32428	
8553	0	32518	
8554	0	32556	
8555	0	32519	
8556	0	32442	
8557	0	32354	
8558	0	32304	
8559	0	32276	
8560	0	32295	
8561	0	32296	
8562	0	32296	
8563	0	32280	
8564	0	32258	
8565	0	32258	
8566	0	32302	
8567	0	32388	
8568	0	32500	
8569	0	32624	
8570	0	32690	
8571	0	32694	
8572	0	32656	
8573	0	32624	
8574	0	32612	
8575	0	32718	
8576	0	32826	
8577	0	32881	
8578	0	32885	
8579	0	32903	
8580	0	32927	
8581	0	32954	
8582	0	32976	
8583	0	33012	
8584	0	33044	
8585	0	33093	
8586	0	33130	
8587	0	33202	
8588	0	33287	
8589	0	33344	
8590	0	33398	
8591	0	33462	
8592	0	33568	
8593	0	33646	
8594	0	33680	
8595	0	33711	
8596	0	33764	
8597	0	33810	
8598	0	33858	
8599	0	33956	
8600	0	34016	
8601	0	34020	
8602	0	34000	
8603	0	34016	
8604	0	34076	
8605	0	34100	
8606	0	34132	
8607	0	34183	
8608	0	34250	
8609	0	34328	
8610	0	34405	
