# OpenSignals Text File Format. Version 1
# {"00:07:80:D8:A8:82": {"sensor": ["EMG"], "device name": "00:07:80:D8:A8:82", "column": ["nSeq", "DI", "PORT5_CHN1"], "sync interval": 2, "time": "17:15:33.778", "comments": "", "device connection": "BTH00:07:80:D8:A8:82", "channels": [5], "keywords": "", "convertedValues": 0, "mode": 1, "digital IO": [0, 1], "firmware version": 775, "device": "channeller", "position": 0, "sampling rate": 1000, "label": ["PORT5_CHN1"], "resolution": [8], "date": "2019-10-15", "special": [{"SpO2": [100, 51, 5, 4, 3, 3]}, {"SpO2": [100, 51, 5, 4, 3, 3]}, {"SpO2": [100, 51, 5, 4, 3, 3]}, {"SpO2": [100, 51, 5, 4, 3, 3]}, {"SpO2": [100, 51, 5, 4, 3, 3]}, {"SpO2": [100, 51, 5, 4, 3, 3]}, {"SpO2": [100, 51, 5, 4, 3, 3]}, {"SpO2": [100, 51, 5, 4, 3, 3]}, {"SpO2": [100, 51, 5, 4, 3, 3]}, {"SpO2": [100, 51, 5, 4, 3, 3]}, {"SpO2": [100, 51, 5, 4, 3, 3]}, {"SpO2": [100, 51, 5, 4, 3, 3]}, {"SpO2": [100, 51, 5, 4, 3, 3]}, {"SpO2": [100, 51, 5, 4, 3, 3]}, {"SpO2": [100, 51, 5, 4, 3, 3]}]}, "00:07:80:D8:A7:F9": {"sensor": ["EMG"], "device name": "00:07:80:D8:A7:F9", "column": ["nSeq", "DI", "PORT6_CHN1"], "sync interval": 2, "time": "17:15:33.778", "comments": "", "device connection": "BTH00:07:80:D8:A7:F9", "channels": [6], "keywords": "", "convertedValues": 0, "mode": 1, "digital IO": [0, 1], "firmware version": 773, "device": "channeller", "position": 1, "sampling rate": 1000, "label": ["PORT6_CHN1"], "resolution": [16], "date": "2019-10-15", "special": [{"SpO2": [80, 40, 5, 4, 3, 3]}, {"SpO2": [80, 40, 5, 4, 3, 3]}, {"SpO2": [80, 40, 5, 4, 3, 3]}, {"SpO2": [80, 40, 5, 4, 3, 3]}, {"SpO2": [80, 40, 5, 4, 3, 3]}, {"SpO2": [80, 40, 5, 4, 3, 3]}, {"SpO2": [80, 40, 5, 4, 3, 3]}, {"SpO2": [80, 40, 5, 4, 3, 3]}, {"SpO2": [80, 40, 5, 4, 3, 3]}, {"SpO2": [80, 40, 5, 4, 3, 3]}, {"SpO2": [80, 40, 5, 4, 3, 3]}, {"SpO2": [80, 40, 5, 4, 3, 3]}, {"SpO2": [80, 40, 5, 4, 3, 3]}, {"SpO2": [80, 40, 5, 4, 3, 3]}, {"SpO2": [80, 40, 5, 4, 3, 3]}]}}
# EndOfHeader
30724	1	127	25653	1	32808	
30725	1	128	25654	1	32775	
30726	1	127	25655	1	32783	
30727	1	128	25656	1	32762	
30728	1	128	25657	1	32749	
30729	1	128	25658	1	32808	
30730	1	128	25659	1	32901	
30731	1	128	25660	1	32772	
30732	1	128	25661	1	32800	
30733	1	128	25662	1	32839	
30734	1	128	25663	1	32775	
30735	1	128	25664	1	32772	
30736	1	128	25665	1	32828	
30737	1	128	25666	1	32874	
30738	1	128	25667	1	32764	
30739	1	128	25668	1	32868	
30740	1	127	25669	1	32800	
30741	1	127	25670	1	32840	
30742	1	127	25671	1	32742	
30743	1	127	25672	1	32802	
30744	1	127	25673	1	32864	
30745	1	127	25674	1	32740	
30746	1	128	25675	1	32775	
30747	1	127	25676	1	32800	
30748	1	128	25677	1	32886	
30749	1	128	25678	1	32891	
30750	1	128	25679	1	32836	
30751	1	128	25680	1	32850	
30752	1	128	25681	1	32885	
30753	1	128	25682	1	32824	
30754	1	128	25683	1	32804	
30755	1	128	25684	1	32839	
30756	1	128	25685	1	32839	
30757	1	128	25686	1	32748	
30758	1	128	25687	1	32796	
30759	1	128	25688	1	32765	
30760	1	128	25689	1	32756	
30761	1	127	25690	1	32817	
30762	1	128	25691	1	32788	
30763	1	128	25692	1	32850	
30764	1	128	25693	1	32898	
30765	1	128	25694	1	32856	
30766	1	127	25695	1	32834	
30767	1	128	25696	1	32796	
30768	1	128	25697	1	32786	
30769	1	128	25698	1	32800	
30770	1	127	25699	1	32808	
30771	1	128	25700	1	32804	
30772	1	128	25701	1	32814	
30773	1	128	25702	1	32720	
30774	1	128	25703	1	32718	
30775	1	128	25704	1	32763	
30776	1	128	25705	1	32810	
30777	1	128	25706	1	32772	
30778	1	128	25707	1	32775	
30779	1	127	25708	1	32810	
30780	1	128	25709	1	32832	
30781	1	128	25710	1	32844	
30782	1	127	25711	1	32836	
30783	1	127	25712	1	32854	
30784	1	127	25713	1	32864	
30785	1	128	25714	1	32804	
30786	1	128	25715	1	32760	
30787	1	127	25716	1	32800	
30788	1	128	25717	1	32772	
30789	1	127	25718	1	32786	
30790	1	128	25719	1	32792	
30791	1	128	25720	1	32786	
30792	1	128	25721	1	32792	
30793	1	127	25722	1	32824	
30794	1	127	25723	1	32809	
30795	1	128	25724	1	32824	
30796	1	128	25725	1	32840	
30797	1	128	25726	1	32856	
30798	1	128	25727	1	32830	
30799	1	128	25728	1	32868	
30800	1	127	25729	1	32750	
30801	1	128	25730	1	32879	
30802	1	128	25731	1	32828	
30803	1	127	25732	1	32812	
30804	1	127	25733	1	32796	
30805	1	128	25734	1	32784	
30806	1	128	25735	1	32788	
30807	1	127	25736	1	32804	
30808	1	128	25737	1	32826	
30809	1	128	25738	1	32852	
30810	1	128	25739	1	32796	
30811	1	128	25740	1	32775	
30812	1	128	25741	1	32764	
30813	1	128	25742	1	32850	
30814	1	128	25743	1	32757	
30815	1	128	25744	1	32784	
30816	1	127	25745	1	32768	
30817	1	127	25746	1	32824	
30818	1	127	25747	1	32788	
30819	1	128	25748	1	32858	
30820	1	128	25749	1	32834	
30821	1	128	25750	1	32784	
30822	1	127	25751	1	32862	
30823	1	128	25752	1	32829	
30824	1	127	25753	1	32802	
30825	1	128	25754	1	32838	
30826	1	128	25755	1	32848	
30827	1	128	25756	1	32792	
30828	1	128	25757	1	32713	
30829	1	128	25758	1	32743	
30830	1	127	25759	1	32799	
30831	1	127	25760	1	32764	
30832	1	128	25761	1	32840	
30833	1	128	25762	1	32862	
30834	1	128	25763	1	32832	
30835	1	128	25764	1	32839	
30836	1	128	25765	1	32870	
30837	1	128	25766	1	32866	
30838	1	128	25767	1	32844	
30839	1	128	25768	1	32796	
30840	1	128	25769	1	32834	
30841	1	128	25770	1	32844	
30842	1	127	25771	1	32860	
30843	1	127	25772	1	32820	
30844	1	128	25773	1	32832	
30845	1	127	25774	1	32817	
30846	1	128	25775	1	32797	
30847	1	128	25776	1	32788	
30848	1	128	25777	1	32738	
30849	1	128	25778	1	32782	
30850	1	128	25779	1	32816	
30851	1	128	25780	1	32802	
30852	1	128	25781	1	32775	
30853	1	128	25782	1	32784	
30854	1	128	25783	1	32799	
30855	1	128	25784	1	32804	
30856	1	128	25785	1	32860	
30857	1	128	25786	1	32818	
30858	1	128	25787	1	32781	
30859	1	128	25788	1	32796	
30860	1	128	25789	1	32780	
30861	1	128	25790	1	32804	
30862	1	127	25791	1	32808	
30863	1	127	25792	1	32812	
30864	1	127	25793	1	32792	
30865	1	128	25794	1	32788	
30866	1	128	25795	1	32844	
30867	1	128	25796	1	32794	
30868	1	128	25797	1	32792	
30869	1	128	25798	1	32792	
30870	1	128	25799	1	32836	
30871	1	128	25800	1	32829	
30872	1	128	25801	1	32804	
30873	1	128	25802	1	32743	
30874	1	128	25803	1	32795	
30875	1	128	25804	1	32754	
30876	1	128	25805	1	32868	
30877	1	128	25806	1	32800	
30878	1	127	25807	1	32788	
30879	1	128	25808	1	32824	
30880	1	127	25809	1	32824	
30881	1	128	25810	1	32834	
30882	1	127	25811	1	32812	
30883	1	127	25812	1	32805	
30884	1	128	25813	1	32806	
30885	1	128	25814	1	32808	
30886	1	128	25815	1	32806	
30887	1	128	25816	1	32828	
30888	1	128	25817	1	32832	
30889	1	127	25818	1	32758	
30890	1	127	25819	1	32766	
30891	1	127	25820	1	32736	
30892	1	128	25821	1	32751	
30893	1	128	25822	1	32836	
30894	1	128	25823	1	32822	
30895	1	128	25824	1	32868	
30896	1	128	25825	1	32774	
30897	1	128	25826	1	32832	
30898	1	128	25827	1	32837	
30899	1	128	25828	1	32804	
30900	1	128	25829	1	32792	
30901	1	128	25830	1	32775	
30902	1	127	25831	1	32770	
30903	1	127	25832	1	32736	
30904	1	128	25833	1	32812	
30905	1	128	25834	1	32775	
30906	1	127	25835	1	32852	
30907	1	128	25836	1	32872	
30908	1	128	25837	1	32921	
30909	1	128	25838	1	32880	
30910	1	128	25839	1	32809	
30911	1	128	25840	1	32824	
30912	1	128	25841	1	32792	
30913	1	128	25842	1	32770	
30914	1	127	25843	1	32809	
30915	1	128	25844	1	32778	
30916	1	128	25845	1	32800	
30917	1	127	25846	1	32824	
30918	1	128	25847	1	32790	
30919	1	127	25848	1	32883	
30920	1	127	25849	1	32861	
30921	1	127	25850	1	32774	
30922	1	128	25851	1	32839	
30923	1	128	25852	1	32762	
30924	1	128	25853	1	32814	
30925	1	127	25854	1	32868	
30926	1	128	25855	1	32740	
30927	1	128	25856	1	32825	
30928	1	127	25857	1	32770	
30929	1	127	25858	1	32772	
30930	1	128	25859	1	32812	
30931	1	128	25860	1	32830	
30932	1	128	25861	1	32836	
30933	1	128	25862	1	32868	
30934	1	128	25863	1	32802	
30935	1	128	25864	1	32868	
30936	1	128	25865	1	32832	
30937	1	128	25866	1	32878	
30938	1	128	25867	1	32775	
30939	1	127	25868	1	32802	
30940	1	127	25869	1	32836	
30941	1	128	25870	1	32858	
30942	1	128	25871	1	32852	
30943	1	128	25872	1	32775	
30944	1	128	25873	1	32816	
30945	1	127	25874	1	32806	
30946	1	128	25875	1	32804	
30947	1	128	25876	1	32852	
30948	1	127	25877	1	32768	
30949	1	127	25878	1	32744	
30950	1	128	25879	1	32745	
30951	1	128	25880	1	32732	
30952	1	127	25881	1	32775	
30953	1	128	25882	1	32826	
30954	1	128	25883	1	32832	
30955	1	128	25884	1	32780	
30956	1	128	25885	1	32834	
30957	1	128	25886	1	32758	
30958	1	128	25887	1	32775	
30959	1	128	25888	1	32810	
30960	1	127	25889	1	32790	
30961	1	128	25890	1	32810	
30962	1	127	25891	1	32806	
30963	1	128	25892	1	32844	
30964	1	128	25893	1	32856	
30965	1	128	25894	1	32804	
30966	1	128	25895	1	32817	
30967	1	128	25896	1	32772	
30968	1	128	25897	1	32799	
30969	1	128	25898	1	32772	
30970	1	128	25899	1	32890	
30971	1	128	25900	1	32808	
30972	1	128	25901	1	32816	
30973	1	128	25902	1	32838	
30974	1	128	25903	1	32804	
30975	1	128	25904	1	32792	
30976	1	127	25905	1	32804	
30977	1	128	25906	1	32812	
30978	1	128	25907	1	32820	
30979	1	128	25908	1	32824	
30980	1	128	25909	1	32772	
30981	1	128	25910	1	32825	
30982	1	128	25911	1	32844	
30983	1	127	25912	1	32804	
30984	1	128	25913	1	32768	
30985	1	127	25914	1	32842	
30986	1	127	25915	1	32848	
30987	1	128	25916	1	32838	
30988	1	127	25917	1	32824	
30989	1	128	25918	1	32809	
30990	1	128	25919	1	32820	
30991	1	128	25920	1	32894	
30992	1	128	25921	1	32848	
30993	1	127	25922	1	32818	
30994	1	127	25923	1	32806	
30995	1	128	25924	1	32816	
30996	1	128	25925	1	32860	
30997	1	128	25926	1	32818	
30998	1	128	25927	1	32805	
30999	1	128	25928	1	32836	
31000	1	127	25929	1	32800	
31001	1	127	25930	1	32829	
31002	1	127	25931	1	32792	
31003	1	127	25932	1	32804	
31004	1	127	25933	1	32736	
31005	1	127	25934	1	32812	
31006	1	128	25935	1	32788	
31007	1	128	25936	1	32760	
31008	1	128	25937	1	32822	
31009	1	128	25938	1	32775	
31010	1	128	25939	1	32804	
31011	1	128	25940	1	32741	
31012	1	128	25941	1	32808	
31013	1	128	25942	1	32801	
31014	1	128	25943	1	32772	
31015	1	128	25944	1	32775	
31016	1	128	25945	1	32762	
31017	1	128	25946	1	32775	
31018	1	127	25947	1	32806	
31019	1	128	25948	1	32818	
31020	1	127	25949	1	32850	
31021	1	127	25950	1	32868	
31022	1	127	25951	1	32775	
31023	1	127	25952	1	32772	
31024	1	128	25953	1	32793	
31025	1	127	25954	1	32823	
31026	1	128	25955	1	32786	
31027	1	128	25956	1	32826	
31028	1	128	25957	1	32804	
31029	1	128	25958	1	32764	
31030	1	128	25959	1	32828	
31031	1	128	25960	1	32818	
31032	1	128	25961	1	32821	
31033	1	128	25962	1	32774	
31034	1	128	25963	1	32853	
31035	1	128	25964	1	32816	
31036	1	128	25965	1	32840	
31037	1	128	25966	1	32846	
31038	1	128	25967	1	32863	
31039	1	128	25968	1	32917	
31040	1	127	25969	1	32884	
31041	1	128	25970	1	32838	
31042	1	128	25971	1	32824	
31043	1	127	25972	1	32756	
31044	1	127	25973	1	32790	
31045	1	127	25974	1	32804	
31046	1	128	25975	1	32784	
31047	1	128	25976	1	32756	
31048	1	128	25977	1	32792	
31049	1	128	25978	1	32826	
31050	1	128	25979	1	32730	
31051	1	128	25980	1	32772	
31052	1	128	25981	1	32830	
31053	1	128	25982	1	32802	
31054	1	128	25983	1	32782	
31055	1	128	25984	1	32852	
31056	1	128	25985	1	32856	
31057	1	128	25986	1	32792	
31058	1	128	25987	1	32808	
31059	1	128	25988	1	32850	
31060	1	128	25989	1	32882	
31061	1	127	25990	1	32792	
31062	1	128	25991	1	32730	
31063	1	127	25992	1	32818	
31064	1	127	25993	1	32910	
31065	1	127	25994	1	32788	
31066	1	128	25995	1	32836	
31067	1	128	25996	1	32820	
31068	1	128	25997	1	32760	
31069	1	128	25998	1	32788	
31070	1	128	25999	1	32711	
31071	1	128	26000	1	32752	
31072	1	128	26001	1	32816	
31073	1	128	26002	1	32811	
31074	1	128	26003	1	32737	
31075	1	128	26004	1	32758	
31076	1	128	26005	1	32844	
31077	1	128	26006	1	32772	
31078	1	128	26007	1	32837	
31079	1	127	26008	1	32829	
31080	1	127	26009	1	32826	
31081	1	128	26010	1	32775	
31082	1	127	26011	1	32816	
31083	1	128	26012	1	32834	
31084	1	128	26013	1	32874	
31085	1	128	26014	1	32839	
31086	1	128	26015	1	32847	
31087	1	128	26016	1	32737	
31088	1	128	26017	1	32804	
31089	1	128	26018	1	32748	
31090	1	127	26019	1	32784	
31091	1	128	26020	1	32784	
31092	1	128	26021	1	32828	
31093	1	127	26022	1	32813	
31094	1	128	26023	1	32810	
31095	1	128	26024	1	32850	
31096	1	128	26025	1	32824	
31097	1	128	26026	1	32730	
31098	1	128	26027	1	32808	
31099	1	128	26028	1	32864	
31100	1	127	26029	1	32836	
31101	1	128	26030	1	32764	
31102	1	127	26031	1	32800	
31103	1	128	26032	1	32796	
31104	1	127	26033	1	32818	
31105	1	127	26034	1	32796	
31106	1	128	26035	1	32858	
31107	1	128	26036	1	32844	
31108	1	128	26037	1	32838	
31109	1	128	26038	1	32845	
31110	1	128	26039	1	32873	
31111	1	128	26040	1	32800	
31112	1	128	26041	1	32772	
31113	1	128	26042	1	32793	
31114	1	127	26043	1	32836	
31115	1	128	26044	1	32800	
31116	1	128	26045	1	32792	
31117	1	127	26046	1	32765	
31118	1	128	26047	1	32772	
31119	1	128	26048	1	32808	
31120	1	128	26049	1	32799	
31121	1	128	26050	1	32860	
31122	1	127	26051	1	32772	
31123	1	127	26052	1	32754	
31124	1	127	26053	1	32845	
31125	1	128	26054	1	32856	
31126	1	128	26055	1	32809	
31127	1	128	26056	1	32824	
31128	1	128	26057	1	32792	
31129	1	128	26058	1	32793	
31130	1	128	26059	1	32854	
31131	1	128	26060	1	32788	
31132	1	128	26061	1	32775	
31133	1	128	26062	1	32800	
31134	1	128	26063	1	32812	
31135	1	128	26064	1	32812	
31136	1	128	26065	1	32786	
31137	1	127	26066	1	32796	
31138	1	127	26067	1	32834	
31139	1	128	26068	1	32797	
31140	1	128	26069	1	32804	
31141	1	128	26070	1	32786	
31142	1	128	26071	1	32765	
31143	1	128	26072	1	32832	
31144	1	127	26073	1	32796	
31145	1	128	26074	1	32775	
31146	1	128	26075	1	32794	
31147	1	127	26076	1	32815	
31148	1	128	26077	1	32760	
31149	1	128	26078	1	32860	
31150	1	128	26079	1	32726	
31151	1	128	26080	1	32800	
31152	1	127	26081	1	32768	
31153	1	128	26082	1	32788	
31154	1	128	26083	1	32836	
31155	1	128	26084	1	32837	
31156	1	128	26085	1	32884	
31157	1	128	26086	1	32884	
31158	1	128	26087	1	32922	
31159	1	128	26088	1	32890	
31160	1	128	26089	1	32816	
31161	1	127	26090	1	32795	
31162	1	127	26091	1	32722	
31163	1	127	26092	1	32761	
31164	1	127	26093	1	32734	
31165	1	127	26094	1	32764	
31166	1	128	26095	1	32800	
31167	1	128	26096	1	32826	
31168	1	128	26097	1	32854	
31169	1	128	26098	1	32876	
31170	1	128	26099	1	32754	
31171	1	128	26100	1	32744	
31172	1	128	26101	1	32780	
31173	1	128	26102	1	32813	
31174	1	127	26103	1	32838	
31175	1	127	26104	1	32775	
31176	1	128	26105	1	32832	
31177	1	128	26106	1	32812	
31178	1	128	26107	1	32836	
31179	1	127	26108	1	32832	
31180	1	127	26109	1	32836	
31181	1	127	26110	1	32845	
31182	1	128	26111	1	32864	
31183	1	128	26112	1	32841	
31184	1	128	26113	1	32760	
31185	1	127	26114	1	32819	
31186	1	127	26115	1	32775	
31187	1	128	26116	1	32804	
31188	1	128	26117	1	32842	
31189	1	128	26118	1	32804	
31190	1	128	26119	1	32762	
31191	1	128	26120	1	32756	
31192	1	127	26121	1	32824	
31193	1	128	26122	1	32836	
31194	1	128	26123	1	32836	
31195	1	128	26124	1	32801	
31196	1	128	26125	1	32754	
31197	1	128	26126	1	32869	
31198	1	128	26127	1	32848	
31199	1	127	26128	1	32880	
31200	1	127	26129	1	32834	
31201	1	127	26130	1	32824	
31202	1	127	26131	1	32740	
31203	1	127	26132	1	32850	
31204	1	128	26133	1	32764	
31205	1	128	26134	1	32740	
31206	1	127	26135	1	32748	
31207	1	128	26136	1	32796	
31208	1	128	26137	1	32804	
31209	1	127	26138	1	32832	
31210	1	128	26139	1	32804	
31211	1	127	26140	1	32816	
31212	1	128	26141	1	32832	
31213	1	127	26142	1	32802	
31214	1	128	26143	1	32830	
31215	1	127	26144	1	32786	
31216	1	128	26145	1	32744	
31217	1	128	26146	1	32820	
31218	1	128	26147	1	32805	
31219	1	128	26148	1	32848	
31220	1	127	26149	1	32822	
31221	1	127	26150	1	32732	
31222	1	127	26151	1	32750	
31223	1	127	26152	1	32762	
31224	1	127	26153	1	32792	
31225	1	128	26154	1	32832	
31226	1	128	26155	1	32796	
31227	1	128	26156	1	32826	
31228	1	128	26157	1	32820	
31229	1	128	26158	1	32806	
31230	1	128	26159	1	32772	
31231	1	128	26160	1	32813	
31232	1	128	26161	1	32822	
31233	1	128	26162	1	32836	
31234	1	128	26163	1	32928	
31235	1	128	26164	1	32873	
31236	1	128	26165	1	32845	
31237	1	128	26166	1	32858	
31238	1	128	26167	1	32868	
31239	1	127	26168	1	32805	
31240	1	127	26169	1	32872	
31241	1	127	26170	1	32812	
31242	1	127	26171	1	32814	
31243	1	127	26172	1	32742	
31244	1	127	26173	1	32765	
31245	1	128	26174	1	32804	
31246	1	128	26175	1	32775	
31247	1	128	26176	1	32802	
31248	1	128	26177	1	32775	
31249	1	128	26178	1	32844	
31250	1	128	26179	1	32840	
31251	1	128	26180	1	32812	
31252	1	128	26181	1	32775	
31253	1	128	26182	1	32772	
31254	1	127	26183	1	32775	
31255	1	128	26184	1	32796	
31256	1	128	26185	1	32840	
31257	1	127	26186	1	32836	
31258	1	127	26187	1	32818	
31259	1	127	26188	1	32796	
31260	1	128	26189	1	32807	
31261	1	128	26190	1	32815	
31262	1	128	26191	1	32775	
31263	1	128	26192	1	32726	
31264	1	128	26193	1	32834	
31265	1	128	26194	1	32792	
31266	1	128	26195	1	32800	
31267	1	128	26196	1	32809	
31268	1	128	26197	1	32868	
31269	1	128	26198	1	32816	
31270	1	128	26199	1	32822	
31271	1	128	26200	1	32800	
31272	1	128	26201	1	32808	
31273	1	128	26202	1	32828	
31274	1	128	26203	1	32820	
31275	1	127	26204	1	32775	
31276	1	128	26205	1	32792	
31277	1	128	26206	1	32772	
31278	1	127	26207	1	32802	
31279	1	127	26208	1	32751	
31280	1	127	26209	1	32742	
31281	1	128	26210	1	32854	
31282	1	127	26211	1	32775	
31283	1	127	26212	1	32816	
31284	1	127	26213	1	32775	
31285	1	127	26214	1	32858	
31286	1	127	26215	1	32820	
31287	1	128	26216	1	32828	
31288	1	128	26217	1	32844	
31289	1	128	26218	1	32833	
31290	1	128	26219	1	32831	
31291	1	128	26220	1	32847	
31292	1	128	26221	1	32834	
31293	1	128	26222	1	32844	
31294	1	128	26223	1	32840	
31295	1	128	26224	1	32836	
31296	1	128	26225	1	32848	
31297	1	127	26226	1	32804	
31298	1	127	26227	1	32800	
31299	1	128	26228	1	32768	
31300	1	127	26229	1	32780	
31301	1	127	26230	1	32741	
31302	1	127	26231	1	32862	
31303	1	128	26232	1	32892	
31304	1	128	26233	1	32828	
31305	1	127	26234	1	32820	
31306	1	128	26235	1	32763	
31307	1	128	26236	1	32789	
31308	1	128	26237	1	32774	
31309	1	128	26238	1	32785	
31310	1	128	26239	1	32824	
31311	1	128	26240	1	32816	
31312	1	128	26241	1	32806	
31313	1	128	26242	1	32804	
31314	1	128	26243	1	32842	
31315	1	128	26244	1	32834	
31316	1	128	26245	1	32784	
31317	1	127	26246	1	32748	
31318	1	128	26247	1	32834	
31319	1	128	26248	1	32818	
31320	1	128	26249	1	32812	
31321	1	127	26250	1	32793	
31322	1	128	26251	1	32830	
31323	1	127	26252	1	32844	
31324	1	127	26253	1	32816	
31325	1	128	26254	1	32775	
31326	1	128	26255	1	32760	
31327	1	128	26256	1	32784	
31328	1	128	26257	1	32800	
31329	1	128	26258	1	32834	
31330	1	127	26259	1	32818	
31331	1	128	26260	1	32872	
31332	1	128	26261	1	32820	
31333	1	128	26262	1	32826	
31334	1	128	26263	1	32850	
31335	1	128	26264	1	32780	
31336	1	128	26265	1	32788	
31337	1	128	26266	1	32762	
31338	1	127	26267	1	32814	
31339	1	128	26268	1	32856	
31340	1	128	26269	1	32904	
31341	1	128	26270	1	32806	
31342	1	128	26271	1	32908	
31343	1	128	26272	1	32878	
31344	1	128	26273	1	32840	
31345	1	127	26274	1	32791	
31346	1	127	26275	1	32826	
31347	1	127	26276	1	32722	
31348	1	128	26277	1	32736	
31349	1	128	26278	1	32804	
31350	1	128	26279	1	32702	
31351	1	128	26280	1	32714	
31352	1	128	26281	1	32839	
31353	1	128	26282	1	32744	
31354	1	128	26283	1	32758	
31355	1	128	26284	1	32829	
31356	1	128	26285	1	32760	
31357	1	128	26286	1	32804	
31358	1	128	26287	1	32856	
31359	1	128	26288	1	32870	
31360	1	127	26289	1	32880	
31361	1	127	26290	1	32836	
31362	1	127	26291	1	32871	
31363	1	127	26292	1	32840	
31364	1	127	26293	1	32805	
31365	1	128	26294	1	32804	
31366	1	128	26295	1	32788	
31367	1	128	26296	1	32781	
31368	1	128	26297	1	32816	
31369	1	128	26298	1	32771	
31370	1	128	26299	1	32803	
31371	1	128	26300	1	32800	
31372	1	128	26301	1	32797	
31373	1	128	26302	1	32876	
31374	1	128	26303	1	32836	
31375	1	128	26304	1	32770	
31376	1	128	26305	1	32793	
31377	1	127	26306	1	32790	
31378	1	127	26307	1	32786	
31379	1	127	26308	1	32798	
31380	1	128	26309	1	32784	
31381	1	128	26310	1	32832	
31382	1	128	26311	1	32814	
31383	1	127	26312	1	32820	
31384	1	127	26313	1	32796	
31385	1	127	26314	1	32812	
31386	1	128	26315	1	32768	
31387	1	128	26316	1	32772	
31388	1	128	26317	1	32866	
31389	1	128	26318	1	32792	
31390	1	128	26319	1	32770	
31391	1	127	26320	1	32788	
31392	1	128	26321	1	32872	
31393	1	128	26322	1	32829	
31394	1	128	26323	1	32838	
31395	1	128	26324	1	32858	
31396	1	128	26325	1	32802	
31397	1	128	26326	1	32824	
31398	1	127	26327	1	32826	
31399	1	128	26328	1	32864	
31400	1	127	26329	1	32784	
31401	1	127	26330	1	32752	
31402	1	127	26331	1	32756	
31403	1	127	26332	1	32792	
31404	1	128	26333	1	32832	
31405	1	128	26334	1	32774	
31406	1	128	26335	1	32839	
31407	1	128	26336	1	32868	
31408	1	128	26337	1	32830	
31409	1	128	26338	1	32886	
31410	1	128	26339	1	32912	
31411	1	128	26340	1	32872	
31412	1	128	26341	1	32748	
31413	1	127	26342	1	32808	
31414	1	128	26343	1	32807	
31415	1	128	26344	1	32786	
31416	1	128	26345	1	32775	
31417	1	128	26346	1	32804	
31418	1	128	26347	1	32775	
31419	1	128	26348	1	32804	
31420	1	128	26349	1	32820	
31421	1	128	26350	1	32798	
31422	1	128	26351	1	32756	
31423	1	128	26352	1	32840	
31424	1	128	26353	1	32784	
31425	1	128	26354	1	32820	
31426	1	128	26355	1	32784	
31427	1	127	26356	1	32786	
31428	1	127	26357	1	32812	
31429	1	127	26358	1	32840	
31430	1	128	26359	1	32804	
31431	1	128	26360	1	32841	
31432	1	128	26361	1	32834	
31433	1	128	26362	1	32764	
31434	1	128	26363	1	32804	
31435	1	128	26364	1	32766	
31436	1	128	26365	1	32743	
31437	1	128	26366	1	32822	
31438	1	128	26367	1	32874	
31439	1	128	26368	1	32798	
31440	1	127	26369	1	32837	
31441	1	127	26370	1	32828	
31442	1	127	26371	1	32762	
31443	1	127	26372	1	32800	
31444	1	128	26373	1	32756	
31445	1	128	26374	1	32816	
31446	1	128	26375	1	32828	
31447	1	128	26376	1	32852	
31448	1	128	26377	1	32841	
31449	1	128	26378	1	32788	
31450	1	128	26379	1	32816	
31451	1	128	26380	1	32806	
31452	1	128	26381	1	32804	
31453	1	128	26382	1	32804	
31454	1	128	26383	1	32828	
31455	1	128	26384	1	32860	
31456	1	128	26385	1	32804	
31457	1	128	26386	1	32775	
31458	1	128	26387	1	32800	
31459	1	127	26388	1	32808	
31460	1	128	26389	1	32804	
31461	1	128	26390	1	32866	
31462	1	127	26391	1	32800	
31463	1	127	26392	1	32844	
31464	1	127	26393	1	32788	
31465	1	128	26394	1	32804	
31466	1	128	26395	1	32732	
31467	1	128	26396	1	32775	
31468	1	128	26397	1	32797	
31469	1	128	26398	1	32745	
31470	1	128	26399	1	32824	
31471	1	128	26400	1	32809	
31472	1	128	26401	1	32748	
31473	1	128	26402	1	32824	
31474	1	128	26403	1	32796	
31475	1	128	26404	1	32792	
31476	1	128	26405	1	32789	
31477	1	128	26406	1	32851	
31478	1	127	26407	1	32788	
31479	1	128	26408	1	32804	
31480	1	128	26409	1	32820	
31481	1	128	26410	1	32798	
31482	1	127	26411	1	32820	
31483	1	128	26412	1	32878	
31484	1	128	26413	1	32872	
31485	1	128	26414	1	32812	
31486	1	128	26415	1	32853	
31487	1	128	26416	1	32800	
31488	1	128	26417	1	32816	
31489	1	128	26418	1	32764	
31490	1	128	26419	1	32775	
31491	1	128	26420	1	32792	
31492	1	128	26421	1	32838	
31493	1	127	26422	1	32799	
31494	1	128	26423	1	32810	
31495	1	127	26424	1	32800	
31496	1	128	26425	1	32760	
31497	1	128	26426	1	32804	
31498	1	127	26427	1	32807	
31499	1	127	26428	1	32820	
31500	1	128	26429	1	32790	
31501	1	127	26430	1	32797	
31502	1	127	26431	1	32796	
31503	1	128	26432	1	32812	
31504	1	127	26433	1	32810	
31505	1	127	26434	1	32816	
31506	1	128	26435	1	32868	
31507	1	128	26436	1	32860	
31508	1	128	26437	1	32873	
31509	1	128	26438	1	32864	
31510	1	128	26439	1	32752	
31511	1	128	26440	1	32784	
31512	1	128	26441	1	32804	
31513	1	128	26442	1	32756	
31514	1	128	26443	1	32786	
31515	1	128	26444	1	32838	
31516	1	127	26445	1	32824	
31517	1	128	26446	1	32752	
31518	1	127	26447	1	32800	
31519	1	128	26448	1	32832	
31520	1	127	26449	1	32768	
31521	1	128	26450	1	32756	
31522	1	128	26451	1	32786	
31523	1	128	26452	1	32804	
31524	1	128	26453	1	32758	
31525	1	128	26454	1	32846	
31526	1	128	26455	1	32868	
31527	1	128	26456	1	32806	
31528	1	128	26457	1	32809	
31529	1	128	26458	1	32808	
31530	1	127	26459	1	32775	
31531	1	127	26460	1	32838	
31532	1	127	26461	1	32730	
31533	1	128	26462	1	32751	
31534	1	128	26463	1	32775	
31535	1	128	26464	1	32760	
31536	1	128	26465	1	32736	
31537	1	128	26466	1	32765	
31538	1	127	26467	1	32848	
31539	1	127	26468	1	32775	
31540	1	127	26469	1	32796	
31541	1	128	26470	1	32846	
31542	1	127	26471	1	32840	
31543	1	127	26472	1	32820	
31544	1	127	26473	1	32800	
31545	1	127	26474	1	32762	
31546	1	128	26475	1	32828	
31547	1	128	26476	1	32844	
31548	1	128	26477	1	32840	
31549	1	127	26478	1	32754	
31550	1	128	26479	1	32829	
31551	1	128	26480	1	32786	
31552	1	128	26481	1	32797	
31553	1	128	26482	1	32864	
31554	1	128	26483	1	32890	
31555	1	128	26484	1	32904	
31556	1	128	26485	1	32880	
31557	1	128	26486	1	32914	
31558	1	128	26487	1	32930	
31559	1	127	26488	1	32903	
31560	1	127	26489	1	32818	
31561	1	127	26490	1	32804	
31562	1	127	26491	1	32775	
31563	1	127	26492	1	32772	
31564	1	128	26493	1	32760	
31565	1	127	26494	1	32737	
31566	1	127	26495	1	32746	
31567	1	128	26496	1	32754	
31568	1	128	26497	1	32814	
31569	1	128	26498	1	32764	
31570	1	128	26499	1	32806	
31571	1	128	26500	1	32792	
31572	1	128	26501	1	32799	
31573	1	128	26502	1	32844	
31574	1	128	26503	1	32816	
31575	1	127	26504	1	32818	
31576	1	128	26505	1	32808	
31577	1	128	26506	1	32740	
31578	1	128	26507	1	32780	
31579	1	127	26508	1	32775	
31580	1	127	26509	1	32808	
31581	1	127	26510	1	32816	
31582	1	127	26511	1	32836	
31583	1	127	26512	1	32804	
31584	1	128	26513	1	32846	
31585	1	128	26514	1	32792	
31586	1	128	26515	1	32828	
31587	1	128	26516	1	32836	
31588	1	127	26517	1	32796	
31589	1	128	26518	1	32904	
31590	1	128	26519	1	32832	
31591	1	128	26520	1	32768	
31592	1	128	26521	1	32826	
31593	1	128	26522	1	32858	
31594	1	128	26523	1	32760	
31595	1	128	26524	1	32821	
31596	1	128	26525	1	32854	
31597	1	128	26526	1	32820	
31598	1	128	26527	1	32777	
31599	1	128	26528	1	32738	
31600	1	127	26529	1	32774	
31601	1	128	26530	1	32775	
31602	1	128	26531	1	32788	
31603	1	128	26532	1	32764	
31604	1	127	26533	1	32842	
31605	1	127	26534	1	32756	
31606	1	128	26535	1	32816	
31607	1	128	26536	1	32808	
31608	1	128	26537	1	32816	
31609	1	128	26538	1	32845	
31610	1	128	26539	1	32804	
31611	1	128	26540	1	32840	
31612	1	128	26541	1	32750	
31613	1	128	26542	1	32804	
31614	1	128	26543	1	32816	
31615	1	128	26544	1	32796	
31616	1	128	26545	1	32806	
31617	1	128	26546	1	32856	
31618	1	128	26547	1	32824	
31619	1	128	26548	1	32837	
31620	1	127	26549	1	32851	
31621	1	127	26550	1	32775	
31622	1	127	26551	1	32786	
31623	1	127	26552	1	32852	
31624	1	127	26553	1	32822	
31625	1	127	26554	1	32796	
31626	1	128	26555	1	32780	
31627	1	128	26556	1	32822	
31628	1	128	26557	1	32807	
31629	1	127	26558	1	32832	
31630	1	128	26559	1	32824	
31631	1	127	26560	1	32786	
31632	1	128	26561	1	32794	
31633	1	128	26562	1	32775	
31634	1	128	26563	1	32808	
31635	1	128	26564	1	32834	
31636	1	128	26565	1	32775	
31637	1	128	26566	1	32775	
31638	1	127	26567	1	32794	
31639	1	128	26568	1	32820	
31640	1	128	26569	1	32792	
31641	1	127	26570	1	32815	
31642	1	128	26571	1	32824	
31643	1	127	26572	1	32852	
31644	1	127	26573	1	32864	
31645	1	128	26574	1	32796	
31646	1	127	26575	1	32812	
31647	1	128	26576	1	32806	
31648	1	128	26577	1	32835	
31649	1	128	26578	1	32829	
31650	1	128	26579	1	32832	
31651	1	127	26580	1	32829	
31652	1	128	26581	1	32728	
31653	1	128	26582	1	32784	
31654	1	127	26583	1	32910	
31655	1	128	26584	1	32818	
31656	1	128	26585	1	32775	
31657	1	128	26586	1	32804	
31658	1	128	26587	1	32792	
31659	1	128	26588	1	32792	
31660	1	127	26589	1	32748	
31661	1	127	26590	1	32814	
31662	1	128	26591	1	32809	
31663	1	127	26592	1	32806	
31664	1	127	26593	1	32878	
31665	1	128	26594	1	32856	
31666	1	128	26595	1	32775	
31667	1	128	26596	1	32802	
31668	1	127	26597	1	32872	
31669	1	128	26598	1	32816	
31670	1	128	26599	1	32874	
31671	1	127	26600	1	32836	
31672	1	128	26601	1	32793	
31673	1	128	26602	1	32832	
31674	1	128	26603	1	32772	
31675	1	128	26604	1	32768	
31676	1	128	26605	1	32788	
31677	1	128	26606	1	32804	
31678	1	128	26607	1	32826	
31679	1	128	26608	1	32832	
31680	1	127	26609	1	32826	
31681	1	127	26610	1	32775	
31682	1	128	26611	1	32832	
31683	1	128	26612	1	32818	
31684	1	128	26613	1	32768	
31685	1	128	26614	1	32792	
31686	1	128	26615	1	32770	
31687	1	128	26616	1	32820	
31688	1	128	26617	1	32872	
31689	1	128	26618	1	32854	
31690	1	128	26619	1	32772	
31691	1	128	26620	1	32773	
31692	1	128	26621	1	32801	
31693	1	128	26622	1	32757	
31694	1	127	26623	1	32868	
31695	1	128	26624	1	32804	
31696	1	127	26625	1	32804	
31697	1	128	26626	1	32773	
31698	1	127	26627	1	32809	
31699	1	127	26628	1	32760	
31700	1	127	26629	1	32724	
31701	1	127	26630	1	32828	
31702	1	127	26631	1	32836	
31703	1	128	26632	1	32770	
31704	1	127	26633	1	32775	
31705	1	127	26634	1	32850	
31706	1	127	26635	1	32842	
31707	1	128	26636	1	32838	
31708	1	128	26637	1	32813	
31709	1	128	26638	1	32838	
31710	1	128	26639	1	32856	
31711	1	128	26640	1	32850	
31712	1	128	26641	1	32770	
31713	1	128	26642	1	32820	
31714	1	128	26643	1	32785	
31715	1	128	26644	1	32801	
31716	1	127	26645	1	32874	
31717	1	127	26646	1	32782	
31718	1	128	26647	1	32856	
31719	1	128	26648	1	32860	
31720	1	127	26649	1	32796	
31721	1	127	26650	1	32808	
31722	1	127	26651	1	32820	
31723	1	127	26652	1	32730	
31724	1	127	26653	1	32808	
31725	1	127	26654	1	32775	
31726	1	128	26655	1	32785	
31727	1	128	26656	1	32788	
31728	1	128	26657	1	32797	
31729	1	128	26658	1	32813	
31730	1	128	26659	1	32840	
31731	1	128	26660	1	32768	
31732	1	128	26661	1	32826	
31733	1	128	26662	1	32838	
31734	1	128	26663	1	32775	
31735	1	128	26664	1	32793	
31736	1	128	26665	1	32832	
31737	1	128	26666	1	32808	
31738	1	127	26667	1	32812	
31739	1	127	26668	1	32775	
31740	1	128	26669	1	32800	
31741	1	127	26670	1	32830	
31742	1	127	26671	1	32852	
31743	1	128	26672	1	32812	
31744	1	127	26673	1	32868	
31745	1	127	26674	1	32884	
31746	1	128	26675	1	32868	
31747	1	128	26676	1	32875	
31748	1	128	26677	1	32838	
31749	1	128	26678	1	32856	
31750	1	128	26679	1	32795	
31751	1	128	26680	1	32728	
31752	1	128	26681	1	32765	
31753	1	127	26682	1	32732	
31754	1	128	26683	1	32769	
31755	1	128	26684	1	32846	
31756	1	127	26685	1	32792	
31757	1	128	26686	1	32801	
31758	1	128	26687	1	32831	
31759	1	128	26688	1	32784	
31760	1	127	26689	1	32760	
31761	1	127	26690	1	32775	
31762	1	128	26691	1	32850	
31763	1	127	26692	1	32848	
31764	1	128	26693	1	32864	
31765	1	127	26694	1	32884	
31766	1	128	26695	1	32860	
31767	1	128	26696	1	32801	
31768	1	128	26697	1	32796	
31769	1	128	26698	1	32836	
31770	1	128	26699	1	32860	
31771	1	128	26700	1	32840	
31772	1	128	26701	1	32852	
31773	1	128	26702	1	32805	
31774	1	127	26703	1	32726	
31775	1	127	26704	1	32748	
31776	1	128	26705	1	32801	
31777	1	128	26706	1	32836	
31778	1	128	26707	1	32768	
31779	1	128	26708	1	32774	
31780	1	128	26709	1	32728	
31781	1	127	26710	1	32775	
31782	1	128	26711	1	32768	
31783	1	127	26712	1	32844	
31784	1	127	26713	1	32804	
31785	1	127	26714	1	32856	
31786	1	128	26715	1	32848	
31787	1	128	26716	1	32800	
31788	1	128	26717	1	32793	
31789	1	128	26718	1	32788	
31790	1	128	26719	1	32795	
31791	1	128	26720	1	32812	
31792	1	128	26721	1	32804	
31793	1	128	26722	1	32764	
31794	1	128	26723	1	32784	
31795	1	128	26724	1	32808	
31796	1	128	26725	1	32826	
31797	1	128	26726	1	32775	
31798	1	128	26727	1	32835	
31799	1	127	26728	1	32810	
31800	1	128	26729	1	32886	
31801	1	128	26730	1	32840	
31802	1	128	26731	1	32890	
31803	1	127	26732	1	32800	
31804	1	127	26733	1	32826	
31805	1	127	26734	1	32794	
31806	1	128	26735	1	32775	
31807	1	128	26736	1	32804	
31808	1	127	26737	1	32820	
31809	1	128	26738	1	32788	
31810	1	128	26739	1	32761	
31811	1	128	26740	1	32728	
31812	1	128	26741	1	32796	
31813	1	128	26742	1	32796	
31814	1	128	26743	1	32844	
31815	1	128	26744	1	32794	
31816	1	128	26745	1	32792	
31817	1	128	26746	1	32808	
31818	1	128	26747	1	32804	
31819	1	128	26748	1	32836	
31820	1	127	26749	1	32804	
31821	1	128	26750	1	32860	
31822	1	127	26751	1	32892	
31823	1	128	26752	1	32888	
31824	1	127	26753	1	32868	
31825	1	128	26754	1	32784	
31826	1	128	26755	1	32880	
31827	1	128	26756	1	32850	
31828	1	128	26757	1	32861	
31829	1	128	26758	1	32802	
31830	1	128	26759	1	32832	
31831	1	128	26760	1	32824	
31832	1	128	26761	1	32771	
31833	1	128	26762	1	32810	
31834	1	127	26763	1	32812	
31835	1	127	26764	1	32764	
31836	1	128	26765	1	32744	
31837	1	128	26766	1	32770	
31838	1	128	26767	1	32775	
31839	1	128	26768	1	32728	
31840	1	127	26769	1	32764	
31841	1	127	26770	1	32793	
31842	1	128	26771	1	32802	
31843	1	127	26772	1	32804	
31844	1	128	26773	1	32786	
31845	1	127	26774	1	32784	
31846	1	128	26775	1	32829	
31847	1	128	26776	1	32796	
31848	1	128	26777	1	32812	
31849	1	128	26778	1	32826	
31850	1	128	26779	1	32839	
31851	1	128	26780	1	32809	
31852	1	128	26781	1	32736	
31853	1	127	26782	1	32836	
31854	1	128	26783	1	32868	
31855	1	128	26784	1	32820	
31856	1	128	26785	1	32796	
31857	1	128	26786	1	32851	
31858	1	128	26787	1	32840	
31859	1	128	26788	1	32756	
31860	1	127	26789	1	32793	
31861	1	127	26790	1	32798	
31862	1	127	26791	1	32773	
31863	1	127	26792	1	32809	
31864	1	128	26793	1	32774	
31865	1	128	26794	1	32802	
31866	1	128	26795	1	32768	
31867	1	127	26796	1	32796	
31868	1	127	26797	1	32808	
31869	1	128	26798	1	32788	
31870	1	128	26799	1	32836	
31871	1	128	26800	1	32856	
31872	1	127	26801	1	32842	
31873	1	128	26802	1	32826	
31874	1	127	26803	1	32768	
31875	1	128	26804	1	32880	
31876	1	128	26805	1	32848	
31877	1	128	26806	1	32798	
31878	1	128	26807	1	32745	
31879	1	128	26808	1	32790	
31880	1	128	26809	1	32790	
31881	1	127	26810	1	32764	
31882	1	127	26811	1	32845	
31883	1	128	26812	1	32816	
31884	1	128	26813	1	32820	
31885	1	128	26814	1	32810	
31886	1	128	26815	1	32840	
31887	1	128	26816	1	32804	
31888	1	127	26817	1	32775	
31889	1	128	26818	1	32744	
31890	1	128	26819	1	32802	
31891	1	128	26820	1	32808	
31892	1	128	26821	1	32866	
31893	1	127	26822	1	32826	
31894	1	128	26823	1	32832	
31895	1	128	26824	1	32775	
31896	1	128	26825	1	32788	
31897	1	128	26826	1	32809	
31898	1	128	26827	1	32816	
31899	1	127	26828	1	32839	
31900	1	128	26829	1	32846	
31901	1	127	26830	1	32876	
31902	1	128	26831	1	32928	
31903	1	127	26832	1	32835	
31904	1	127	26833	1	32822	
31905	1	127	26834	1	32861	
31906	1	128	26835	1	32854	
31907	1	128	26836	1	32800	
31908	1	127	26837	1	32775	
31909	1	128	26838	1	32767	
31910	1	128	26839	1	32784	
31911	1	128	26840	1	32800	
31912	1	128	26841	1	32754	
31913	1	128	26842	1	32784	
31914	1	128	26843	1	32825	
31915	1	127	26844	1	32808	
31916	1	128	26845	1	32775	
31917	1	128	26846	1	32815	
31918	1	127	26847	1	32768	
31919	1	127	26848	1	32767	
31920	1	127	26849	1	32804	
31921	1	128	26850	1	32840	
31922	1	127	26851	1	32808	
31923	1	127	26852	1	32785	
31924	1	128	26853	1	32808	
31925	1	128	26854	1	32808	
31926	1	128	26855	1	32822	
31927	1	128	26856	1	32864	
31928	1	128	26857	1	32800	
31929	1	128	26858	1	32848	
31930	1	128	26859	1	32836	
31931	1	128	26860	1	32804	
31932	1	128	26861	1	32812	
31933	1	128	26862	1	32775	
31934	1	128	26863	1	32775	
31935	1	128	26864	1	32756	
31936	1	128	26865	1	32788	
31937	1	128	26866	1	32804	
31938	1	128	26867	1	32808	
31939	1	128	26868	1	32833	
31940	1	128	26869	1	32772	
31941	1	127	26870	1	32807	
31942	1	128	26871	1	32805	
31943	1	127	26872	1	32768	
31944	1	127	26873	1	32824	
31945	1	128	26874	1	32820	
31946	1	128	26875	1	32886	
31947	1	128	26876	1	32799	
31948	1	128	26877	1	32784	
31949	1	128	26878	1	32784	
31950	1	128	26879	1	32864	
31951	1	128	26880	1	32808	
31952	1	128	26881	1	32839	
31953	1	127	26882	1	32775	
31954	1	127	26883	1	32756	
31955	1	128	26884	1	32828	
31956	1	128	26885	1	32852	
31957	1	128	26886	1	32806	
31958	1	128	26887	1	32860	
31959	1	128	26888	1	32792	
31960	1	127	26889	1	32761	
31961	1	127	26890	1	32742	
31962	1	127	26891	1	32773	
31963	1	127	26892	1	32880	
31964	1	127	26893	1	32812	
31965	1	128	26894	1	32786	
31966	1	127	26895	1	32820	
31967	1	128	26896	1	32805	
31968	1	128	26897	1	32784	
31969	1	128	26898	1	32760	
31970	1	128	26899	1	32799	
31971	1	128	26900	1	32806	
31972	1	128	26901	1	32740	
31973	1	128	26902	1	32842	
31974	1	128	26903	1	32848	
31975	1	128	26904	1	32775	
31976	1	128	26905	1	32834	
31977	1	128	26906	1	32792	
31978	1	128	26907	1	32836	
31979	1	128	26908	1	32801	
31980	1	127	26909	1	32869	
31981	1	127	26910	1	32887	
31982	1	127	26911	1	32840	
31983	1	127	26912	1	32796	
31984	1	128	26913	1	32835	
31985	1	128	26914	1	32760	
31986	1	127	26915	1	32786	
31987	1	127	26916	1	32772	
31988	1	127	26917	1	32845	
31989	1	128	26918	1	32763	
31990	1	127	26919	1	32800	
31991	1	128	26920	1	32842	
31992	1	128	26921	1	32826	
31993	1	128	26922	1	32780	
31994	1	128	26923	1	32810	
31995	1	128	26924	1	32812	
31996	1	128	26925	1	32840	
31997	1	128	26926	1	32832	
31998	1	128	26927	1	32861	
31999	1	127	26928	1	32820	
32000	1	128	26929	1	32845	
32001	1	128	26930	1	32782	
32002	1	127	26931	1	32830	
32003	1	127	26932	1	32805	
32004	1	127	26933	1	32848	
32005	1	127	26934	1	32820	
32006	1	127	26935	1	32868	
32007	1	128	26936	1	32839	
32008	1	128	26937	1	32802	
32009	1	128	26938	1	32818	
32010	1	127	26939	1	32726	
32011	1	128	26940	1	32820	
32012	1	128	26941	1	32790	
32013	1	128	26942	1	32744	
32014	1	128	26943	1	32814	
32015	1	128	26944	1	32808	
32016	1	128	26945	1	32798	
32017	1	128	26946	1	32814	
32018	1	128	26947	1	32850	
32019	1	127	26948	1	32775	
32020	1	127	26949	1	32840	
32021	1	127	26950	1	32834	
32022	1	128	26951	1	32768	
32023	1	128	26952	1	32800	
32024	1	128	26953	1	32805	
32025	1	128	26954	1	32870	
32026	1	127	26955	1	32858	
32027	1	128	26956	1	32852	
32028	1	128	26957	1	32760	
32029	1	128	26958	1	32744	
32030	1	128	26959	1	32750	
32031	1	127	26960	1	32712	
32032	1	128	26961	1	32748	
32033	1	128	26962	1	32812	
32034	1	128	26963	1	32852	
32035	1	128	26964	1	32876	
32036	1	128	26965	1	32852	
32037	1	128	26966	1	32834	
32038	1	128	26967	1	32832	
32039	1	127	26968	1	32813	
32040	1	127	26969	1	32846	
32041	1	127	26970	1	32815	
32042	1	127	26971	1	32794	
32043	1	128	26972	1	32792	
32044	1	128	26973	1	32825	
32045	1	128	26974	1	32890	
32046	1	128	26975	1	32898	
32047	1	128	26976	1	32808	
32048	1	127	26977	1	32761	
32049	1	128	26978	1	32788	
32050	1	128	26979	1	32792	
32051	1	128	26980	1	32764	
32052	1	128	26981	1	32729	
32053	1	128	26982	1	32814	
32054	1	127	26983	1	32829	
32055	1	128	26984	1	32856	
32056	1	128	26985	1	32844	
32057	1	128	26986	1	32820	
32058	1	128	26987	1	32840	
32059	1	128	26988	1	32772	
32060	1	128	26989	1	32808	
32061	1	128	26990	1	32850	
32062	1	127	26991	1	32844	
32063	1	128	26992	1	32884	
32064	1	127	26993	1	32870	
32065	1	127	26994	1	32788	
32066	1	128	26995	1	32808	
32067	1	128	26996	1	32736	
32068	1	128	26997	1	32820	
32069	1	128	26998	1	32812	
32070	1	128	26999	1	32812	
32071	1	128	27000	1	32772	
32072	1	128	27001	1	32738	
32073	1	127	27002	1	32772	
32074	1	127	27003	1	32744	
32075	1	128	27004	1	32806	
32076	1	127	27005	1	32716	
32077	1	127	27006	1	32796	
32078	1	128	27007	1	32772	
32079	1	128	27008	1	32848	
32080	1	127	27009	1	32864	
32081	1	127	27010	1	32860	
32082	1	128	27011	1	32773	
32083	1	127	27012	1	32802	
32084	1	127	27013	1	32874	
32085	1	127	27014	1	32830	
32086	1	128	27015	1	32902	
32087	1	128	27016	1	32844	
32088	1	128	27017	1	32818	
32089	1	128	27018	1	32848	
32090	1	128	27019	1	32760	
32091	1	127	27020	1	32748	
32092	1	128	27021	1	32728	
32093	1	128	27022	1	32775	
32094	1	128	27023	1	32836	
32095	1	128	27024	1	32728	
32096	1	127	27025	1	32802	
32097	1	128	27026	1	32832	
32098	1	128	27027	1	32836	
32099	1	128	27028	1	32792	
32100	1	128	27029	1	32812	
32101	1	127	27030	1	32790	
32102	1	127	27031	1	32804	
32103	1	127	27032	1	32852	
32104	1	127	27033	1	32824	
32105	1	127	27034	1	32775	
32106	1	127	27035	1	32820	
32107	1	128	27036	1	32812	
32108	1	128	27037	1	32863	
32109	1	128	27038	1	32824	
32110	1	128	27039	1	32775	
32111	1	128	27040	1	32832	
32112	1	128	27041	1	32796	
32113	1	128	27042	1	32805	
32114	1	128	27043	1	32834	
32115	1	128	27044	1	32854	
32116	1	128	27045	1	32772	
32117	1	128	27046	1	32814	
32118	1	128	27047	1	32814	
32119	1	128	27048	1	32802	
32120	1	128	27049	1	32802	
32121	1	127	27050	1	32804	
32122	1	128	27051	1	32765	
32123	1	127	27052	1	32866	
32124	1	128	27053	1	32765	
32125	1	128	27054	1	32844	
32126	1	128	27055	1	32805	
32127	1	128	27056	1	32810	
32128	1	128	27057	1	32864	
32129	1	128	27058	1	32790	
32130	1	127	27059	1	32844	
32131	1	128	27060	1	32860	
32132	1	128	27061	1	32792	
32133	1	128	27062	1	32794	
32134	1	128	27063	1	32805	
32135	1	128	27064	1	32774	
32136	1	128	27065	1	32824	
32137	1	128	27066	1	32812	
32138	1	127	27067	1	32874	
32139	1	128	27068	1	32820	
32140	1	127	27069	1	32844	
32141	1	128	27070	1	32870	
32142	1	127	27071	1	32797	
32143	1	127	27072	1	32805	
32144	1	127	27073	1	32824	
32145	1	128	27074	1	32775	
32146	1	128	27075	1	32812	
32147	1	128	27076	1	32794	
32148	1	128	27077	1	32856	
32149	1	128	27078	1	32800	
32150	1	128	27079	1	32750	
32151	1	127	27080	1	32806	
32152	1	128	27081	1	32802	
32153	1	128	27082	1	32854	
32154	1	127	27083	1	32800	
32155	1	128	27084	1	32716	
32156	1	127	27085	1	32764	
32157	1	128	27086	1	32741	
32158	1	128	27087	1	32705	
32159	1	127	27088	1	32864	
32160	1	128	27089	1	32791	
32161	1	128	27090	1	32764	
32162	1	128	27091	1	32836	
32163	1	127	27092	1	32838	
32164	1	128	27093	1	32844	
32165	1	128	27094	1	32870	
32166	1	128	27095	1	32850	
32167	1	128	27096	1	32871	
32168	1	128	27097	1	32893	
32169	1	128	27098	1	32836	
32170	1	128	27099	1	32830	
32171	1	128	27100	1	32845	
32172	1	128	27101	1	32888	
32173	1	128	27102	1	32856	
32174	1	128	27103	1	32838	
32175	1	127	27104	1	32858	
32176	1	128	27105	1	32764	
32177	1	127	27106	1	32730	
32178	1	127	27107	1	32764	
32179	1	127	27108	1	32772	
32180	1	127	27109	1	32797	
32181	1	128	27110	1	32765	
32182	1	127	27111	1	32839	
32183	1	127	27112	1	32850	
32184	1	127	27113	1	32804	
32185	1	128	27114	1	32765	
32186	1	127	27115	1	32832	
32187	1	128	27116	1	32824	
32188	1	128	27117	1	32862	
32189	1	128	27118	1	32832	
32190	1	128	27119	1	32804	
32191	1	128	27120	1	32758	
32192	1	128	27121	1	32800	
32193	1	127	27122	1	32804	
32194	1	128	27123	1	32825	
32195	1	128	27124	1	32763	
32196	1	128	27125	1	32740	
32197	1	128	27126	1	32792	
32198	1	128	27127	1	32797	
32199	1	128	27128	1	32760	
32200	1	127	27129	1	32775	
32201	1	127	27130	1	32792	
32202	1	127	27131	1	32726	
32203	1	127	27132	1	32819	
32204	1	127	27133	1	32790	
32205	1	128	27134	1	32840	
32206	1	128	27135	1	32858	
32207	1	128	27136	1	32868	
32208	1	128	27137	1	32816	
32209	1	128	27138	1	32790	
32210	1	128	27139	1	32822	
32211	1	128	27140	1	32830	
32212	1	128	27141	1	32858	
32213	1	128	27142	1	32808	
32214	1	128	27143	1	32824	
32215	1	127	27144	1	32848	
32216	1	128	27145	1	32806	
32217	1	127	27146	1	32784	
32218	1	128	27147	1	32920	
32219	1	127	27148	1	32837	
32220	1	127	27149	1	32787	
32221	1	128	27150	1	32798	
32222	1	128	27151	1	32821	
32223	1	127	27152	1	32775	
32224	1	127	27153	1	32774	
32225	1	127	27154	1	32808	
32226	1	128	27155	1	32802	
32227	1	128	27156	1	32744	
32228	1	128	27157	1	32760	
32229	1	128	27158	1	32789	
32230	1	128	27159	1	32775	
32231	1	128	27160	1	32783	
32232	1	128	27161	1	32768	
32233	1	127	27162	1	32871	
32234	1	128	27163	1	32845	
32235	1	128	27164	1	32804	
32236	1	128	27165	1	32812	
32237	1	128	27166	1	32822	
32238	1	128	27167	1	32800	
32239	1	128	27168	1	32796	
32240	1	127	27169	1	32844	
32241	1	128	27170	1	32846	
32242	1	128	27171	1	32870	
32243	1	128	27172	1	32882	
32244	1	128	27173	1	32854	
32245	1	128	27174	1	32884	
32246	1	128	27175	1	32820	
32247	1	128	27176	1	32800	
32248	1	128	27177	1	32803	
32249	1	128	27178	1	32775	
32250	1	128	27179	1	32749	
32251	1	128	27180	1	32768	
32252	1	128	27181	1	32802	
32253	1	128	27182	1	32800	
32254	1	127	27183	1	32794	
32255	1	128	27184	1	32794	
32256	1	128	27185	1	32820	
32257	1	128	27186	1	32828	
32258	1	128	27187	1	32828	
32259	1	127	27188	1	32789	
32260	1	127	27189	1	32800	
32261	1	127	27190	1	32812	
32262	1	127	27191	1	32798	
32263	1	128	27192	1	32819	
32264	1	127	27193	1	32769	
32265	1	128	27194	1	32812	
32266	1	128	27195	1	32750	
32267	1	128	27196	1	32786	
32268	1	128	27197	1	32838	
32269	1	128	27198	1	32840	
32270	1	127	27199	1	32828	
32271	1	128	27200	1	32839	
32272	1	128	27201	1	32804	
32273	1	128	27202	1	32796	
32274	1	128	27203	1	32821	
32275	1	128	27204	1	32788	
32276	1	128	27205	1	32814	
32277	1	128	27206	1	32858	
32278	1	127	27207	1	32814	
32279	1	127	27208	1	32784	
32280	1	127	27209	1	32820	
32281	1	127	27210	1	32824	
32282	1	127	27211	1	32836	
32283	1	127	27212	1	32736	
32284	1	127	27213	1	32742	
32285	1	127	27214	1	32744	
32286	1	128	27215	1	32858	
32287	1	128	27216	1	32846	
32288	1	128	27217	1	32908	
32289	1	128	27218	1	32816	
32290	1	128	27219	1	32810	
32291	1	128	27220	1	32812	
32292	1	127	27221	1	32864	
32293	1	128	27222	1	32849	
32294	1	128	27223	1	32884	
32295	1	128	27224	1	32804	
32296	1	128	27225	1	32740	
32297	1	128	27226	1	32736	
32298	1	128	27227	1	32732	
32299	1	128	27228	1	32852	
32300	1	127	27229	1	32770	
32301	1	127	27230	1	32756	
32302	1	127	27231	1	32796	
32303	1	127	27232	1	32768	
32304	1	127	27233	1	32770	
32305	1	128	27234	1	32850	
32306	1	128	27235	1	32784	
32307	1	128	27236	1	32804	
32308	1	128	27237	1	32854	
32309	1	128	27238	1	32790	
32310	1	128	27239	1	32853	
32311	1	128	27240	1	32798	
32312	1	128	27241	1	32874	
32313	1	128	27242	1	32850	
32314	1	128	27243	1	32800	
32315	1	128	27244	1	32838	
32316	1	128	27245	1	32818	
32317	1	128	27246	1	32788	
32318	1	128	27247	1	32802	
32319	1	128	27248	1	32808	
32320	1	127	27249	1	32800	
32321	1	127	27250	1	32820	
32322	1	127	27251	1	32712	
32323	1	127	27252	1	32748	
32324	1	127	27253	1	32820	
32325	1	127	27254	1	32847	
32326	1	128	27255	1	32792	
32327	1	127	27256	1	32775	
32328	1	128	27257	1	32826	
32329	1	128	27258	1	32846	
32330	1	128	27259	1	32786	
32331	1	128	27260	1	32786	
32332	1	128	27261	1	32823	
32333	1	127	27262	1	32844	
32334	1	128	27263	1	32775	
32335	1	128	27264	1	32842	
32336	1	128	27265	1	32812	
32337	1	128	27266	1	32856	
32338	1	128	27267	1	32830	
32339	1	127	27268	1	32881	
32340	1	127	27269	1	32825	
32341	1	127	27270	1	32824	
32342	1	128	27271	1	32826	
32343	1	127	27272	1	32786	
32344	1	127	27273	1	32740	
32345	1	127	27274	1	32832	
32346	1	128	27275	1	32900	
32347	1	128	27276	1	32856	
32348	1	128	27277	1	32809	
32349	1	128	27278	1	32880	
32350	1	128	27279	1	32812	
32351	1	128	27280	1	32810	
32352	1	128	27281	1	32796	
32353	1	127	27282	1	32808	
32354	1	128	27283	1	32784	
32355	1	128	27284	1	32660	
32356	1	128	27285	1	32568	
32357	1	128	27286	1	32666	
32358	1	128	27287	1	32760	
32359	1	128	27288	1	32861	
32360	1	127	27289	1	32816	
32361	1	128	27290	1	32839	
32362	1	128	27291	1	32820	
32363	1	127	27292	1	32850	
32364	1	128	27293	1	32840	
32365	1	128	27294	1	32836	
32366	1	128	27295	1	32838	
32367	1	128	27296	1	32792	
32368	1	128	27297	1	32789	
32369	1	128	27298	1	32774	
32370	1	128	27299	1	32798	
32371	1	128	27300	1	32864	
32372	1	128	27301	1	32820	
32373	1	128	27302	1	32818	
32374	1	128	27303	1	32836	
32375	1	128	27304	1	32876	
32376	1	128	27305	1	32907	
32377	1	128	27306	1	32854	
32378	1	128	27307	1	32845	
32379	1	127	27308	1	32868	
32380	1	127	27309	1	32862	
32381	1	127	27310	1	32840	
32382	1	128	27311	1	32832	
32383	1	127	27312	1	32790	
32384	1	127	27313	1	32775	
32385	1	128	27314	1	32768	
32386	1	128	27315	1	32796	
32387	1	128	27316	1	32764	
32388	1	128	27317	1	32764	
32389	1	128	27318	1	32742	
32390	1	128	27319	1	32754	
32391	1	128	27320	1	32826	
32392	1	128	27321	1	32792	
32393	1	127	27322	1	32796	
32394	1	128	27323	1	32790	
32395	1	127	27324	1	32804	
32396	1	128	27325	1	32806	
32397	1	128	27326	1	32719	
32398	1	128	27327	1	32846	
32399	1	128	27328	1	32836	
32400	1	128	27329	1	32854	
32401	1	128	27330	1	32876	
32402	1	128	27331	1	32916	
32403	1	128	27332	1	32956	
32404	1	128	27333	1	33027	
32405	1	128	27334	1	32936	
32406	1	128	27335	1	32930	
32407	1	128	27336	1	32805	
32408	1	127	27337	1	32774	
32409	1	128	27338	1	32736	
32410	1	128	27339	1	32636	
32411	1	128	27340	1	32621	
32412	1	127	27341	1	32525	
32413	1	127	27342	1	32680	
32414	1	128	27343	1	32796	
32415	1	128	27344	1	32822	
32416	1	128	27345	1	32863	
32417	1	127	27346	1	32858	
32418	1	128	27347	1	32788	
32419	1	127	27348	1	32813	
32420	1	128	27349	1	32818	
32421	1	128	27350	1	32877	
32422	1	128	27351	1	32850	
32423	1	128	27352	1	32808	
32424	1	127	27353	1	32892	
32425	1	128	27354	1	32853	
32426	1	128	27355	1	32876	
32427	1	128	27356	1	32896	
32428	1	128	27357	1	32848	
32429	1	127	27358	1	32775	
32430	1	128	27359	1	32750	
32431	1	128	27360	1	32751	
32432	1	128	27361	1	32646	
32433	1	128	27362	1	32584	
32434	1	128	27363	1	32596	
32435	1	128	27364	1	32764	
32436	1	128	27365	1	32900	
32437	1	128	27366	1	32874	
32438	1	128	27367	1	32852	
32439	1	128	27368	1	32900	
32440	1	127	27369	1	32841	
32441	1	128	27370	1	32854	
32442	1	128	27371	1	32852	
32443	1	127	27372	1	32812	
32444	1	127	27373	1	32789	
32445	1	128	27374	1	32816	
32446	1	127	27375	1	32786	
32447	1	127	27376	1	32782	
32448	1	128	27377	1	32843	
32449	1	128	27378	1	32804	
32450	1	127	27379	1	32818	
32451	1	128	27380	1	32850	
32452	1	128	27381	1	32775	
32453	1	127	27382	1	32820	
32454	1	128	27383	1	32780	
32455	1	127	27384	1	32764	
32456	1	128	27385	1	32771	
32457	1	128	27386	1	32832	
32458	1	128	27387	1	32782	
32459	1	128	27388	1	32804	
32460	1	127	27389	1	32836	
32461	1	127	27390	1	32864	
32462	1	128	27391	1	32856	
32463	1	127	27392	1	32858	
32464	1	128	27393	1	32808	
32465	1	128	27394	1	32798	
32466	1	128	27395	1	32796	
32467	1	128	27396	1	32800	
32468	1	128	27397	1	32804	
32469	1	128	27398	1	32861	
32470	1	128	27399	1	32932	
32471	1	128	27400	1	32848	
32472	1	127	27401	1	32892	
32473	1	127	27402	1	32772	
32474	1	128	27403	1	32722	
32475	1	128	27404	1	32706	
32476	1	128	27405	1	32700	
32477	1	127	27406	1	32675	
32478	1	127	27407	1	32740	
32479	1	127	27408	1	32775	
32480	1	127	27409	1	32784	
32481	1	127	27410	1	32814	
32482	1	128	27411	1	32940	
32483	1	127	27412	1	32970	
32484	1	127	27413	1	32925	
32485	1	127	27414	1	32875	
32486	1	127	27415	1	32804	
32487	1	128	27416	1	32710	
32488	1	128	27417	1	32585	
32489	1	128	27418	1	32674	
32490	1	128	27419	1	32761	
32491	1	128	27420	1	32942	
32492	1	128	27421	1	33021	
32493	1	128	27422	1	32948	
32494	1	127	27423	1	32816	
32495	1	128	27424	1	32775	
32496	1	128	27425	1	32688	
32497	1	127	27426	1	32648	
32498	1	128	27427	1	32586	
32499	1	127	27428	1	32604	
32500	1	127	27429	1	32688	
32501	1	127	27430	1	32764	
32502	1	127	27431	1	32826	
32503	1	127	27432	1	32856	
32504	1	128	27433	1	32874	
32505	1	127	27434	1	32942	
32506	1	128	27435	1	32893	
32507	1	128	27436	1	32980	
32508	1	128	27437	1	33084	
32509	1	129	27438	1	33056	
32510	1	129	27439	1	33019	
32511	1	128	27440	1	32966	
32512	1	128	27441	1	32848	
32513	1	127	27442	1	32856	
32514	1	127	27443	1	32646	
32515	1	127	27444	1	32397	
32516	1	127	27445	1	32406	
32517	1	127	27446	1	32700	
32518	1	127	27447	1	32693	
32519	1	126	27448	1	32626	
32520	1	127	27449	1	32745	
32521	1	127	27450	1	32835	
32522	1	128	27451	1	33000	
32523	1	128	27452	1	33000	
32524	1	128	27453	1	32749	
32525	1	129	27454	1	32676	
32526	1	129	27455	1	32757	
32527	1	128	27456	1	32888	
32528	1	128	27457	1	32848	
32529	1	127	27458	1	32872	
32530	1	127	27459	1	32865	
32531	1	128	27460	1	32842	
32532	1	128	27461	1	32872	
32533	1	127	27462	1	32972	
32534	1	128	27463	1	32882	
32535	1	128	27464	1	32838	
32536	1	128	27465	1	32805	
32537	1	127	27466	1	32767	
32538	1	128	27467	1	32775	
32539	1	128	27468	1	32694	
32540	1	128	27469	1	32736	
32541	1	128	27470	1	32774	
32542	1	128	27471	1	32578	
32543	1	127	27472	1	32620	
32544	1	127	27473	1	32710	
32545	1	126	27474	1	32795	
32546	1	127	27475	1	32950	
32547	1	127	27476	1	33044	
32548	1	127	27477	1	33060	
32549	1	128	27478	1	33100	
32550	1	128	27479	1	32834	
32551	1	128	27480	1	32745	
32552	1	128	27481	1	32775	
32553	1	128	27482	1	32810	
32554	1	128	27483	1	32708	
32555	1	128	27484	1	32735	
32556	1	128	27485	1	32896	
32557	1	128	27486	1	32920	
32558	1	128	27487	1	32912	
32559	1	128	27488	1	32844	
32560	1	127	27489	1	32716	
32561	1	127	27490	1	32654	
32562	1	127	27491	1	32553	
32563	1	127	27492	1	32500	
32564	1	127	27493	1	32496	
32565	1	127	27494	1	32676	
32566	1	128	27495	1	32925	
32567	1	128	27496	1	32976	
32568	1	128	27497	1	32956	
32569	1	128	27498	1	33000	
32570	1	128	27499	1	32912	
32571	1	128	27500	1	32792	
32572	1	128	27501	1	32710	
32573	1	127	27502	1	32754	
32574	1	128	27503	1	32748	
32575	1	128	27504	1	32817	
32576	1	127	27505	1	32834	
32577	1	127	27506	1	32872	
32578	1	127	27507	1	32832	
32579	1	127	27508	1	32830	
32580	1	128	27509	1	32832	
32581	1	128	27510	1	32775	
32582	1	127	27511	1	32680	
32583	1	128	27512	1	32856	
32584	1	128	27513	1	32924	
32585	1	128	27514	1	32801	
32586	1	127	27515	1	32856	
32587	1	128	27516	1	32792	
32588	1	128	27517	1	32825	
32589	1	128	27518	1	32844	
32590	1	128	27519	1	32828	
32591	1	128	27520	1	32840	
32592	1	128	27521	1	32822	
32593	1	128	27522	1	32860	
32594	1	128	27523	1	32784	
32595	1	128	27524	1	32762	
32596	1	128	27525	1	32852	
32597	1	128	27526	1	32804	
32598	1	128	27527	1	32876	
32599	1	127	27528	1	32834	
32600	1	127	27529	1	32800	
32601	1	128	27530	1	32940	
32602	1	127	27531	1	32922	
32603	1	127	27532	1	32850	
32604	1	127	27533	1	32842	
32605	1	127	27534	1	32716	
32606	1	127	27535	1	32572	
32607	1	128	27536	1	32568	
32608	1	128	27537	1	32602	
32609	1	128	27538	1	32826	
32610	1	128	27539	1	32890	
32611	1	128	27540	1	32834	
32612	1	128	27541	1	32808	
32613	1	128	27542	1	32844	
32614	1	128	27543	1	32818	
32615	1	128	27544	1	32838	
32616	1	128	27545	1	32860	
32617	1	128	27546	1	32788	
32618	1	128	27547	1	32801	
32619	1	128	27548	1	32810	
32620	1	127	27549	1	32718	
32621	1	128	27550	1	32800	
32622	1	128	27551	1	32856	
32623	1	128	27552	1	32838	
32624	1	128	27553	1	32832	
32625	1	128	27554	1	32828	
32626	1	128	27555	1	32908	
32627	1	127	27556	1	32976	
32628	1	127	27557	1	32828	
32629	1	127	27558	1	32728	
32630	1	128	27559	1	32954	
32631	1	128	27560	1	32966	
32632	1	128	27561	1	32728	
32633	1	129	27562	1	32708	
32634	1	128	27563	1	32742	
32635	1	128	27564	1	32684	
32636	1	127	27565	1	32596	
32637	1	127	27566	1	32723	
32638	1	127	27567	1	32880	
32639	1	127	27568	1	33136	
32640	1	127	27569	1	33228	
32641	1	128	27570	1	33135	
32642	1	128	27571	1	32885	
32643	1	129	27572	1	32658	
32644	1	129	27573	1	32866	
32645	1	129	27574	1	32966	
32646	1	128	27575	1	32634	
32647	1	126	27576	1	32280	
32648	1	125	27577	1	32032	
32649	1	123	27578	1	32045	
32650	1	124	27579	1	32198	
32651	1	124	27580	1	32420	
32652	1	127	27581	1	32800	
32653	1	129	27582	1	33172	
32654	1	131	27583	1	33216	
32655	1	132	27584	1	33004	
32656	1	132	27585	1	32940	
32657	1	129	27586	1	32950	
32658	1	128	27587	1	32918	
32659	1	127	27588	1	32972	
32660	1	127	27589	1	32976	
32661	1	127	27590	1	33088	
32662	1	128	27591	1	33208	
32663	1	130	27592	1	33116	
32664	1	129	27593	1	32584	
32665	1	128	27594	1	32428	
32666	1	126	27595	1	32434	
32667	1	125	27596	1	32394	
32668	1	124	27597	1	32552	
32669	1	124	27598	1	32728	
32670	1	126	27599	1	33351	
32671	1	126	27600	1	33720	
32672	1	127	27601	1	33634	
32673	1	129	27602	1	33053	
32674	1	131	27603	1	32510	
32675	1	130	27604	1	32274	
32676	1	128	27605	1	32308	
32677	1	128	27606	1	32176	
32678	1	128	27607	1	32408	
32679	1	128	27608	1	32732	
32680	1	127	27609	1	32908	
32681	1	127	27610	1	32932	
32682	1	127	27611	1	32994	
32683	1	127	27612	1	32870	
32684	1	127	27613	1	32864	
32685	1	127	27614	1	32892	
32686	1	127	27615	1	32952	
32687	1	127	27616	1	32886	
32688	1	127	27617	1	32908	
32689	1	128	27618	1	32894	
32690	1	128	27619	1	32888	
32691	1	128	27620	1	32780	
32692	1	128	27621	1	32796	
32693	1	128	27622	1	32840	
32694	1	129	27623	1	32768	
32695	1	130	27624	1	32775	
32696	1	130	27625	1	32714	
32697	1	128	27626	1	32764	
32698	1	126	27627	1	32768	
32699	1	124	27628	1	32818	
32700	1	123	27629	1	32892	
32701	1	124	27630	1	33138	
32702	1	125	27631	1	33296	
32703	1	128	27632	1	33196	
32704	1	130	27633	1	32764	
32705	1	132	27634	1	32414	
32706	1	131	27635	1	32378	
32707	1	128	27636	1	32556	
32708	1	127	27637	1	32624	
32709	1	126	27638	1	32624	
32710	1	127	27639	1	32820	
32711	1	127	27640	1	33040	
32712	1	128	27641	1	32968	
32713	1	129	27642	1	32822	
32714	1	129	27643	1	32760	
32715	1	129	27644	1	32605	
32716	1	128	27645	1	32622	
32717	1	127	27646	1	32808	
32718	1	127	27647	1	32933	
32719	1	127	27648	1	32937	
32720	1	127	27649	1	32940	
32721	1	127	27650	1	32958	
32722	1	128	27651	1	32896	
32723	1	128	27652	1	32620	
32724	1	128	27653	1	32620	
32725	1	127	27654	1	32706	
32726	1	127	27655	1	32814	
32727	1	127	27656	1	32728	
32728	1	127	27657	1	32882	
32729	1	128	27658	1	32840	
32730	1	129	27659	1	32691	
32731	1	129	27660	1	32724	
32732	1	128	27661	1	32802	
32733	1	127	27662	1	32863	
32734	1	126	27663	1	32928	
32735	1	127	27664	1	33158	
32736	1	128	27665	1	33363	
32737	1	127	27666	1	33206	
32738	1	127	27667	1	32903	
32739	1	127	27668	1	32724	
32740	1	129	27669	1	32498	
32741	1	129	27670	1	32288	
32742	1	127	27671	1	32328	
32743	1	127	27672	1	33074	
32744	1	126	27673	1	33488	
32745	1	129	27674	1	33140	
32746	1	130	27675	1	32775	
32747	1	128	27676	1	32522	
32748	1	125	27677	1	32170	
32749	1	123	27678	1	31796	
32750	1	123	27679	1	32132	
32751	1	126	27680	1	33352	
32752	1	128	27681	1	34248	
32753	1	129	27682	1	34311	
32754	1	131	27683	1	33444	
32755	1	133	27684	1	32488	
32756	1	131	27685	1	31764	
32757	1	127	27686	1	31568	
32758	1	124	27687	1	31914	
32759	1	122	27688	1	32159	
32760	1	126	27689	1	32858	
32761	1	128	27690	1	33132	
32762	1	129	27691	1	33100	
32763	1	128	27692	1	32951	
32764	1	128	27693	1	32966	
32765	1	128	27694	1	32752	
32766	1	128	27695	1	32493	
32767	1	128	27696	1	32465	
32768	1	127	27697	1	32584	
32769	1	127	27698	1	32820	
32770	1	127	27699	1	32900	
32771	1	128	27700	1	32884	
32772	1	128	27701	1	32966	
32773	1	128	27702	1	33068	
32774	1	128	27703	1	33028	
32775	1	129	27704	1	32860	
32776	1	129	27705	1	32674	
32777	1	130	27706	1	32431	
32778	1	128	27707	1	32430	
32779	1	126	27708	1	32460	
32780	1	125	27709	1	32676	
32781	1	124	27710	1	33000	
32782	1	124	27711	1	33220	
32783	1	127	27712	1	33410	
32784	1	128	27713	1	33552	
32785	1	129	27714	1	33504	
32786	1	131	27715	1	33434	
32787	1	132	27716	1	33272	
32788	1	129	27717	1	32996	
32789	1	127	27718	1	32810	
32790	1	127	27719	1	32740	
32791	1	128	27720	1	32356	
32792	1	129	27721	1	32350	
32793	1	130	27722	1	32316	
32794	1	129	27723	1	32656	
32795	1	129	27724	1	33063	
32796	1	128	27725	1	33868	
32797	1	126	27726	1	34058	
32798	1	129	27727	1	33112	
32799	1	131	27728	1	30760	
32800	1	136	27729	1	28136	
32801	1	135	27730	1	28472	
32802	1	129	27731	1	29655	
32803	1	123	27732	1	31910	
32804	1	118	27733	1	35808	
32805	1	110	27734	1	37978	
32806	1	109	27735	1	38782	
32807	1	118	27736	1	38336	
32808	1	124	27737	1	36740	
32809	1	132	27738	1	34746	
32810	1	138	27739	1	32669	
32811	1	139	27740	1	31380	
32812	1	141	27741	1	30656	
32813	1	139	27742	1	29416	
32814	1	135	27743	1	30092	
32815	1	127	27744	1	30156	
32816	1	113	27745	1	30021	
32817	1	107	27746	1	31184	
32818	1	112	27747	1	32089	
32819	1	116	27748	1	31770	
32820	1	126	27749	1	31932	
32821	1	137	27750	1	31628	
32822	1	141	27751	1	30124	
32823	1	141	27752	1	30678	
32824	1	138	27753	1	32244	
32825	1	136	27754	1	32646	
32826	1	127	27755	1	33872	
32827	1	127	27756	1	36838	
32828	1	132	27757	1	39076	
32829	1	125	27758	1	38568	
32830	1	120	27759	1	37548	
32831	1	116	27760	1	36195	
32832	1	119	27761	1	33136	
32833	1	117	27762	1	29106	
32834	1	116	27763	1	27397	
32835	1	128	27764	1	29632	
32836	1	141	27765	1	30872	
32837	1	141	27766	1	32084	
32838	1	137	27767	1	33746	
32839	1	133	27768	1	34506	
32840	1	129	27769	1	34372	
32841	1	121	27770	1	33298	
32842	1	123	27771	1	31654	
32843	1	126	27772	1	30834	
32844	1	130	27773	1	30848	
32845	1	132	27774	1	31088	
32846	1	129	27775	1	31484	
32847	1	125	27776	1	32860	
32848	1	121	27777	1	33408	
32849	1	119	27778	1	34648	
32850	1	122	27779	1	35546	
32851	1	135	27780	1	36912	
32852	1	149	27781	1	35309	
32853	1	150	27782	1	31020	
32854	1	144	27783	1	30928	
32855	1	122	27784	1	31864	
32856	1	104	27785	1	32316	
32857	1	98	27786	1	31165	
32858	1	110	27787	1	33234	
32859	1	121	27788	1	32441	
32860	1	137	27789	1	32390	
32861	1	143	27790	1	32683	
32862	1	139	27791	1	31560	
32863	1	129	27792	1	31901	
32864	1	123	27793	1	31032	
32865	1	132	27794	1	31408	
32866	1	144	27795	1	29496	
32867	1	143	27796	1	28164	
32868	1	137	27797	1	28817	
32869	1	121	27798	1	32954	
32870	1	105	27799	1	37456	
32871	1	103	27800	1	39088	
32872	1	124	27801	1	39566	
32873	1	128	27802	1	36352	
32874	1	125	27803	1	32914	
32875	1	135	27804	1	28696	
32876	1	143	27805	1	27013	
32877	1	144	27806	1	30774	
32878	1	133	27807	1	33380	
32879	1	125	27808	1	36804	
32880	1	114	27809	1	41637	
32881	1	107	27810	1	43640	
32882	1	107	27811	1	37640	
32883	1	114	27812	1	32040	
32884	1	122	27813	1	30538	
32885	1	150	27814	1	28090	
32886	1	148	27815	1	28538	
32887	1	141	27816	1	28225	
32888	1	131	27817	1	29810	
32889	1	115	27818	1	31611	
32890	1	101	27819	1	33404	
32891	1	120	27820	1	35439	
32892	1	133	27821	1	34268	
32893	1	142	27822	1	31616	
32894	1	151	27823	1	29624	
32895	1	131	27824	1	29061	
32896	1	115	27825	1	31680	
32897	1	109	27826	1	32660	
32898	1	116	27827	1	33220	
32899	1	126	27828	1	33520	
32900	1	141	27829	1	36512	
32901	1	143	27830	1	35728	
32902	1	132	27831	1	33188	
32903	1	117	27832	1	32432	
32904	1	122	27833	1	31868	
32905	1	121	27834	1	30666	
32906	1	132	27835	1	33438	
32907	1	138	27836	1	34393	
32908	1	128	27837	1	34782	
32909	1	126	27838	1	33308	
32910	1	131	27839	1	31164	
32911	1	133	27840	1	29686	
32912	1	126	27841	1	31632	
32913	1	126	27842	1	33700	
32914	1	128	27843	1	34081	
32915	1	131	27844	1	33049	
32916	1	132	27845	1	32900	
32917	1	130	27846	1	32362	
32918	1	128	27847	1	32116	
32919	1	126	27848	1	33077	
32920	1	129	27849	1	34464	
32921	1	131	27850	1	34484	
32922	1	129	27851	1	34496	
32923	1	128	27852	1	33466	
32924	1	126	27853	1	31680	
32925	1	124	27854	1	31776	
32926	1	124	27855	1	31879	
32927	1	129	27856	1	32302	
32928	1	132	27857	1	32868	
32929	1	131	27858	1	33184	
32930	1	125	27859	1	32400	
32931	1	121	27860	1	32438	
32932	1	118	27861	1	32372	
32933	1	122	27862	1	32020	
32934	1	130	27863	1	31884	
32935	1	133	27864	1	32288	
32936	1	130	27865	1	32668	
32937	1	127	27866	1	32792	
32938	1	125	27867	1	32940	
32939	1	128	27868	1	33664	
32940	1	130	27869	1	33626	
32941	1	130	27870	1	33216	
32942	1	130	27871	1	32846	
32943	1	128	27872	1	32822	
32944	1	126	27873	1	32760	
32945	1	127	27874	1	33044	
32946	1	130	27875	1	33415	
32947	1	131	27876	1	33168	
32948	1	130	27877	1	33042	
32949	1	129	27878	1	32926	
32950	1	126	27879	1	32289	
32951	1	123	27880	1	32237	
32952	1	122	27881	1	32164	
32953	1	126	27882	1	32582	
32954	1	128	27883	1	32750	
32955	1	129	27884	1	32800	
32956	1	129	27885	1	32880	
32957	1	129	27886	1	32986	
32958	1	128	27887	1	32896	
32959	1	127	27888	1	32775	
32960	1	128	27889	1	32900	
32961	1	128	27890	1	32916	
32962	1	128	27891	1	32857	
32963	1	127	27892	1	32844	
32964	1	127	27893	1	32812	
32965	1	128	27894	1	32792	
32966	1	128	27895	1	32818	
32967	1	128	27896	1	32768	
32968	1	128	27897	1	32764	
32969	1	128	27898	1	32809	
32970	1	128	27899	1	32854	
32971	1	128	27900	1	32768	
32972	1	128	27901	1	32734	
32973	1	128	27902	1	32756	
32974	1	127	27903	1	32772	
32975	1	127	27904	1	32792	
32976	1	128	27905	1	32888	
32977	1	128	27906	1	32800	
32978	1	127	27907	1	32860	
32979	1	127	27908	1	32884	
32980	1	128	27909	1	32814	
32981	1	128	27910	1	32824	
32982	1	127	27911	1	32792	
32983	1	127	27912	1	32814	
32984	1	127	27913	1	32766	
32985	1	127	27914	1	32808	
32986	1	127	27915	1	32834	
32987	1	128	27916	1	32824	
32988	1	128	27917	1	32792	
32989	1	128	27918	1	32836	
32990	1	128	27919	1	32806	
32991	1	128	27920	1	32818	
32992	1	127	27921	1	32771	
32993	1	127	27922	1	32807	
32994	1	127	27923	1	32816	
32995	1	128	27924	1	32762	
32996	1	128	27925	1	32790	
32997	1	128	27926	1	32800	
32998	1	127	27927	1	32820	
32999	1	128	27928	1	32800	
33000	1	127	27929	1	32786	
33001	1	127	27930	1	32820	
33002	1	127	27931	1	32804	
33003	1	127	27932	1	32756	
33004	1	127	27933	1	32796	
33005	1	127	27934	1	32788	
33006	1	127	27935	1	32748	
33007	1	128	27936	1	32837	
33008	1	128	27937	1	32784	
33009	1	128	27938	1	32788	
33010	1	128	27939	1	32760	
33011	1	128	27940	1	32799	
33012	1	127	27941	1	32794	
33013	1	128	27942	1	32812	
33014	1	128	27943	1	32880	
33015	1	128	27944	1	32836	
33016	1	128	27945	1	32854	
33017	1	127	27946	1	32800	
33018	1	128	27947	1	32775	
33019	1	127	27948	1	32773	
33020	1	127	27949	1	32774	
33021	1	127	27950	1	32828	
33022	1	127	27951	1	32834	
33023	1	127	27952	1	32804	
33024	1	127	27953	1	32756	
33025	1	128	27954	1	32758	
33026	1	127	27955	1	32762	
33027	1	127	27956	1	32736	
33028	1	127	27957	1	32702	
33029	1	128	27958	1	32730	
33030	1	128	27959	1	32775	
33031	1	127	27960	1	32748	
33032	1	127	27961	1	32760	
33033	1	128	27962	1	32764	
33034	1	128	27963	1	32816	
33035	1	128	27964	1	32866	
33036	1	128	27965	1	32792	
33037	1	128	27966	1	32836	
33038	1	128	27967	1	32888	
33039	1	128	27968	1	32903	
33040	1	127	27969	1	32892	
33041	1	127	27970	1	32868	
33042	1	128	27971	1	32872	
33043	1	128	27972	1	32880	
33044	1	128	27973	1	32856	
33045	1	127	27974	1	32786	
33046	1	128	27975	1	32831	
33047	1	127	27976	1	32720	
33048	1	128	27977	1	32764	
33049	1	128	27978	1	32756	
33050	1	128	27979	1	32809	
33051	1	128	27980	1	32815	
33052	1	127	27981	1	32710	
33053	1	128	27982	1	32692	
33054	1	128	27983	1	32801	
33055	1	128	27984	1	32770	
33056	1	128	27985	1	32786	
33057	1	128	27986	1	32775	
33058	1	128	27987	1	32802	
33059	1	128	27988	1	32772	
33060	1	127	27989	1	32808	
33061	1	127	27990	1	32808	
33062	1	127	27991	1	32738	
33063	1	127	27992	1	32826	
33064	1	127	27993	1	32807	
33065	1	128	27994	1	32765	
33066	1	128	27995	1	32796	
33067	1	128	27996	1	32740	
33068	1	128	27997	1	32792	
33069	1	128	27998	1	32770	
33070	1	128	27999	1	32775	
33071	1	128	28000	1	32804	
33072	1	128	28001	1	32784	
33073	1	127	28002	1	32756	
33074	1	128	28003	1	32797	
33075	1	127	28004	1	32762	
33076	1	127	28005	1	32740	
33077	1	127	28006	1	32775	
33078	1	128	28007	1	32826	
33079	1	128	28008	1	32794	
33080	1	128	28009	1	32740	
33081	1	127	28010	1	32772	
33082	1	127	28011	1	32788	
33083	1	127	28012	1	32792	
33084	1	127	28013	1	32780	
33085	1	128	28014	1	32744	
33086	1	128	28015	1	32801	
33087	1	128	28016	1	32825	
33088	1	128	28017	1	32774	
33089	1	127	28018	1	32788	
33090	1	128	28019	1	32824	
33091	1	128	28020	1	32792	
33092	1	128	28021	1	32824	
33093	1	128	28022	1	32775	
33094	1	128	28023	1	32766	
33095	1	127	28024	1	32840	
33096	1	127	28025	1	32696	
33097	1	128	28026	1	32775	
33098	1	128	28027	1	32773	
33099	1	127	28028	1	32808	
33100	1	127	28029	1	32826	
33101	1	127	28030	1	32808	
33102	1	127	28031	1	32718	
33103	1	127	28032	1	32788	
33104	1	128	28033	1	32775	
33105	1	128	28034	1	32784	
33106	1	128	28035	1	32775	
33107	1	128	28036	1	32745	
33108	1	127	28037	1	32775	
33109	1	127	28038	1	32797	
33110	1	127	28039	1	32715	
33111	1	128	28040	1	32748	
33112	1	128	28041	1	32824	
33113	1	128	28042	1	32794	
33114	1	127	28043	1	32775	
33115	1	128	28044	1	32836	
33116	1	128	28045	1	32768	
33117	1	127	28046	1	32746	
33118	1	128	28047	1	32817	
33119	1	128	28048	1	32915	
33120	1	128	28049	1	32850	
33121	1	128	28050	1	32848	
33122	1	128	28051	1	32840	
33123	1	127	28052	1	32804	
33124	1	127	28053	1	32740	
33125	1	127	28054	1	32726	
33126	1	128	28055	1	32840	
33127	1	128	28056	1	32860	
33128	1	128	28057	1	32764	
33129	1	128	28058	1	32775	
33130	1	128	28059	1	32775	
33131	1	128	28060	1	32796	
33132	1	128	28061	1	32790	
33133	1	127	28062	1	32788	
33134	1	127	28063	1	32768	
33135	1	128	28064	1	32775	
33136	1	128	28065	1	32836	
33137	1	128	28066	1	32836	
33138	1	128	28067	1	32808	
33139	1	128	28068	1	32840	
33140	1	128	28069	1	32848	
33141	1	127	28070	1	32754	
33142	1	127	28071	1	32794	
33143	1	127	28072	1	32874	
33144	1	127	28073	1	32836	
33145	1	128	28074	1	32826	
33146	1	128	28075	1	32828	
33147	1	127	28076	1	32775	
33148	1	128	28077	1	32816	
33149	1	128	28078	1	32877	
33150	1	128	28079	1	32964	
33151	1	128	28080	1	32926	
33152	1	128	28081	1	32856	
33153	1	128	28082	1	32804	
33154	1	128	28083	1	32816	
33155	1	128	28084	1	32842	
33156	1	128	28085	1	32753	
33157	1	128	28086	1	32516	
33158	1	128	28087	1	32526	
33159	1	128	28088	1	32684	
33160	1	127	28089	1	32804	
33161	1	127	28090	1	32946	
33162	1	127	28091	1	32845	
33163	1	127	28092	1	32788	
33164	1	127	28093	1	32832	
33165	1	127	28094	1	32828	
33166	1	128	28095	1	32884	
33167	1	128	28096	1	32784	
33168	1	128	28097	1	32810	
33169	1	128	28098	1	32826	
33170	1	128	28099	1	32786	
33171	1	128	28100	1	32796	
33172	1	128	28101	1	32814	
33173	1	128	28102	1	32826	
33174	1	128	28103	1	32808	
33175	1	128	28104	1	32839	
33176	1	128	28105	1	32858	
33177	1	128	28106	1	32820	
33178	1	128	28107	1	32866	
33179	1	128	28108	1	32886	
33180	1	127	28109	1	32845	
33181	1	128	28110	1	32808	
33182	1	127	28111	1	32743	
33183	1	128	28112	1	32844	
33184	1	128	28113	1	32944	
33185	1	128	28114	1	32802	
33186	1	128	28115	1	32804	
33187	1	128	28116	1	32863	
33188	1	128	28117	1	32804	
33189	1	128	28118	1	32822	
33190	1	128	28119	1	32820	
33191	1	128	28120	1	32736	
33192	1	127	28121	1	32839	
33193	1	128	28122	1	32800	
33194	1	128	28123	1	32844	
33195	1	128	28124	1	32852	
33196	1	128	28125	1	32816	
33197	1	128	28126	1	32848	
33198	1	128	28127	1	32972	
33199	1	128	28128	1	32898	
33200	1	127	28129	1	32882	
33201	1	128	28130	1	32920	
33202	1	127	28131	1	32935	
33203	1	127	28132	1	32760	
33204	1	128	28133	1	32720	
33205	1	128	28134	1	32597	
33206	1	128	28135	1	32538	
33207	1	128	28136	1	32672	
33208	1	128	28137	1	32775	
33209	1	128	28138	1	32836	
33210	1	127	28139	1	32856	
33211	1	128	28140	1	32820	
33212	1	128	28141	1	32832	
33213	1	128	28142	1	32797	
33214	1	128	28143	1	32802	
33215	1	128	28144	1	32832	
33216	1	128	28145	1	32794	
33217	1	128	28146	1	32809	
33218	1	128	28147	1	32856	
33219	1	127	28148	1	32868	
33220	1	128	28149	1	32900	
33221	1	127	28150	1	32848	
33222	1	128	28151	1	32789	
33223	1	127	28152	1	32844	
33224	1	127	28153	1	32798	
33225	1	128	28154	1	32844	
33226	1	128	28155	1	32836	
33227	1	128	28156	1	32832	
33228	1	128	28157	1	32845	
33229	1	127	28158	1	32839	
33230	1	127	28159	1	32879	
33231	1	128	28160	1	32804	
33232	1	128	28161	1	32808	
33233	1	128	28162	1	32839	
33234	1	128	28163	1	32844	
33235	1	127	28164	1	32846	
33236	1	127	28165	1	32848	
33237	1	127	28166	1	32774	
33238	1	128	28167	1	32784	
33239	1	128	28168	1	32834	
33240	1	128	28169	1	32809	
33241	1	127	28170	1	32822	
33242	1	128	28171	1	32804	
33243	1	128	28172	1	32752	
33244	1	128	28173	1	32763	
33245	1	127	28174	1	32739	
33246	1	127	28175	1	32830	
33247	1	127	28176	1	32804	
33248	1	128	28177	1	32806	
33249	1	128	28178	1	32840	
33250	1	128	28179	1	32839	
33251	1	128	28180	1	32817	
33252	1	128	28181	1	32804	
33253	1	127	28182	1	32866	
33254	1	128	28183	1	32900	
33255	1	128	28184	1	32850	
33256	1	128	28185	1	32856	
33257	1	128	28186	1	32886	
33258	1	128	28187	1	32844	
33259	1	127	28188	1	32832	
33260	1	128	28189	1	32740	
33261	1	127	28190	1	32700	
33262	1	128	28191	1	32826	
33263	1	127	28192	1	32740	
33264	1	127	28193	1	32775	
33265	1	128	28194	1	32814	
33266	1	128	28195	1	32842	
33267	1	128	28196	1	32828	
33268	1	128	28197	1	32788	
33269	1	128	28198	1	32793	
33270	1	128	28199	1	32889	
33271	1	128	28200	1	32900	
33272	1	128	28201	1	32848	
33273	1	128	28202	1	32800	
33274	1	127	28203	1	32786	
33275	1	127	28204	1	32808	
33276	1	128	28205	1	32829	
33277	1	128	28206	1	32762	
33278	1	127	28207	1	32738	
33279	1	127	28208	1	32768	
33280	1	127	28209	1	32809	
33281	1	128	28210	1	32801	
33282	1	128	28211	1	32836	
33283	1	127	28212	1	32852	
33284	1	128	28213	1	32862	
33285	1	127	28214	1	32852	
33286	1	127	28215	1	32788	
33287	1	128	28216	1	32839	
33288	1	128	28217	1	32848	
33289	1	128	28218	1	32740	
33290	1	128	28219	1	32570	
33291	1	128	28220	1	32638	
33292	1	128	28221	1	32708	
33293	1	128	28222	1	32770	
33294	1	128	28223	1	32852	
33295	1	128	28224	1	32821	
33296	1	127	28225	1	32838	
33297	1	128	28226	1	32868	
33298	1	128	28227	1	32848	
33299	1	128	28228	1	32810	
33300	1	127	28229	1	32820	
33301	1	127	28230	1	32816	
33302	1	127	28231	1	32790	
33303	1	127	28232	1	32796	
33304	1	128	28233	1	32802	
33305	1	128	28234	1	32864	
33306	1	128	28235	1	32852	
33307	1	128	28236	1	32870	
33308	1	128	28237	1	32837	
33309	1	128	28238	1	32816	
33310	1	128	28239	1	32848	
33311	1	128	28240	1	32867	
33312	1	128	28241	1	32928	
33313	1	128	28242	1	32872	
33314	1	128	28243	1	32792	
33315	1	128	28244	1	32852	
33316	1	128	28245	1	32796	
33317	1	128	28246	1	32800	
33318	1	128	28247	1	32868	
33319	1	128	28248	1	32768	
33320	1	127	28249	1	32762	
33321	1	127	28250	1	32808	
33322	1	128	28251	1	32742	
33323	1	128	28252	1	32824	
33324	1	127	28253	1	32789	
33325	1	128	28254	1	32832	
33326	1	128	28255	1	32804	
33327	1	128	28256	1	32774	
33328	1	128	28257	1	32775	
33329	1	128	28258	1	32768	
33330	1	128	28259	1	32775	
33331	1	128	28260	1	32804	
33332	1	128	28261	1	32780	
33333	1	128	28262	1	32714	
33334	1	127	28263	1	32772	
33335	1	128	28264	1	32866	
33336	1	128	28265	1	32914	
33337	1	128	28266	1	32850	
33338	1	128	28267	1	32872	
33339	1	127	28268	1	32872	
33340	1	127	28269	1	32874	
33341	1	127	28270	1	32832	
33342	1	127	28271	1	32816	
33343	1	127	28272	1	32833	
33344	1	127	28273	1	32775	
33345	1	127	28274	1	32804	
33346	1	128	28275	1	32858	
33347	1	127	28276	1	32810	
33348	1	128	28277	1	32828	
33349	1	128	28278	1	32786	
33350	1	128	28279	1	32810	
33351	1	128	28280	1	32812	
33352	1	128	28281	1	32809	
33353	1	128	28282	1	32824	
33354	1	128	28283	1	32770	
33355	1	128	28284	1	32800	
33356	1	128	28285	1	32815	
33357	1	128	28286	1	32788	
33358	1	128	28287	1	32804	
33359	1	127	28288	1	32749	
33360	1	127	28289	1	32827	
33361	1	127	28290	1	32840	
33362	1	128	28291	1	32820	
33363	1	127	28292	1	32786	
33364	1	127	28293	1	32844	
33365	1	128	28294	1	32775	
33366	1	128	28295	1	32832	
33367	1	128	28296	1	32800	
33368	1	127	28297	1	32810	
33369	1	128	28298	1	32754	
33370	1	128	28299	1	32800	
33371	1	128	28300	1	32840	
33372	1	128	28301	1	32882	
33373	1	128	28302	1	32793	
33374	1	128	28303	1	32742	
33375	1	128	28304	1	32775	
33376	1	128	28305	1	32844	
33377	1	127	28306	1	32870	
33378	1	128	28307	1	32825	
33379	1	128	28308	1	32836	
33380	1	128	28309	1	32826	
33381	1	128	28310	1	32860	
33382	1	127	28311	1	32886	
33383	1	127	28312	1	32847	
33384	1	128	28313	1	32856	
33385	1	128	28314	1	32910	
33386	1	128	28315	1	32772	
33387	1	128	28316	1	32626	
33388	1	128	28317	1	32620	
33389	1	128	28318	1	32775	
33390	1	127	28319	1	32872	
33391	1	128	28320	1	32866	
33392	1	128	28321	1	32866	
33393	1	128	28322	1	32792	
33394	1	128	28323	1	32812	
33395	1	128	28324	1	32837	
33396	1	128	28325	1	32832	
33397	1	128	28326	1	32786	
33398	1	128	28327	1	32808	
33399	1	127	28328	1	32792	
33400	1	128	28329	1	32794	
33401	1	128	28330	1	32751	
33402	1	127	28331	1	32808	
33403	1	128	28332	1	32819	
33404	1	127	28333	1	32792	
33405	1	127	28334	1	32836	
33406	1	128	28335	1	32812	
33407	1	128	28336	1	32812	
33408	1	128	28337	1	32864	
33409	1	127	28338	1	32836	
33410	1	128	28339	1	32784	
33411	1	128	28340	1	32795	
33412	1	128	28341	1	32861	
33413	1	128	28342	1	32812	
33414	1	128	28343	1	32900	
33415	1	128	28344	1	32838	
33416	1	128	28345	1	32769	
33417	1	128	28346	1	32812	
33418	1	128	28347	1	32840	
33419	1	128	28348	1	32793	
33420	1	128	28349	1	32796	
33421	1	127	28350	1	32818	
33422	1	128	28351	1	32806	
33423	1	127	28352	1	32792	
33424	1	127	28353	1	32832	
33425	1	127	28354	1	32775	
33426	1	128	28355	1	32792	
33427	1	128	28356	1	32832	
33428	1	128	28357	1	32762	
33429	1	127	28358	1	32732	
33430	1	127	28359	1	32736	
33431	1	128	28360	1	32786	
33432	1	128	28361	1	32800	
33433	1	128	28362	1	32798	
33434	1	128	28363	1	32796	
33435	1	127	28364	1	32786	
33436	1	128	28365	1	32844	
33437	1	127	28366	1	32850	
33438	1	128	28367	1	32796	
33439	1	127	28368	1	32832	
33440	1	128	28369	1	32820	
33441	1	127	28370	1	32848	
33442	1	127	28371	1	32812	
33443	1	127	28372	1	32856	
33444	1	128	28373	1	32868	
33445	1	127	28374	1	32822	
33446	1	128	28375	1	32786	
33447	1	128	28376	1	32809	
33448	1	128	28377	1	32788	
33449	1	128	28378	1	32756	
33450	1	128	28379	1	32840	
33451	1	128	28380	1	32802	
33452	1	128	28381	1	32780	
33453	1	127	28382	1	32766	
33454	1	128	28383	1	32756	
33455	1	128	28384	1	32808	
33456	1	128	28385	1	32904	
33457	1	128	28386	1	32836	
33458	1	128	28387	1	32814	
33459	1	128	28388	1	32794	
33460	1	127	28389	1	32775	
33461	1	127	28390	1	32754	
33462	1	128	28391	1	32832	
33463	1	127	28392	1	32812	
33464	1	127	28393	1	32760	
33465	1	127	28394	1	32745	
33466	1	128	28395	1	32794	
33467	1	127	28396	1	32838	
33468	1	128	28397	1	32824	
33469	1	128	28398	1	32927	
33470	1	128	28399	1	32940	
33471	1	128	28400	1	32874	
33472	1	128	28401	1	32902	
33473	1	128	28402	1	32798	
33474	1	128	28403	1	32708	
33475	1	128	28404	1	32701	
33476	1	128	28405	1	32680	
33477	1	128	28406	1	32832	
33478	1	128	28407	1	32839	
33479	1	128	28408	1	32834	
33480	1	127	28409	1	32818	
33481	1	127	28410	1	32848	
33482	1	127	28411	1	32810	
33483	1	127	28412	1	32818	
33484	1	127	28413	1	32798	
33485	1	127	28414	1	32796	
33486	1	127	28415	1	32800	
33487	1	127	28416	1	32846	
33488	1	128	28417	1	32759	
33489	1	128	28418	1	32749	
33490	1	128	28419	1	32806	
33491	1	127	28420	1	32792	
33492	1	128	28421	1	32800	
33493	1	128	28422	1	32872	
33494	1	128	28423	1	32896	
33495	1	127	28424	1	32898	
33496	1	128	28425	1	32834	
33497	1	128	28426	1	32844	
33498	1	127	28427	1	32788	
33499	1	127	28428	1	32753	
33500	1	128	28429	1	32764	
33501	1	128	28430	1	32775	
33502	1	128	28431	1	32820	
33503	1	127	28432	1	32826	
33504	1	127	28433	1	32775	
33505	1	127	28434	1	32806	
33506	1	128	28435	1	32832	
33507	1	128	28436	1	32750	
33508	1	128	28437	1	32825	
33509	1	128	28438	1	32788	
33510	1	128	28439	1	32816	
33511	1	128	28440	1	32835	
33512	1	127	28441	1	32824	
33513	1	128	28442	1	32769	
33514	1	127	28443	1	32771	
33515	1	128	28444	1	32770	
33516	1	128	28445	1	32794	
33517	1	128	28446	1	32738	
33518	1	127	28447	1	32766	
33519	1	128	28448	1	32832	
33520	1	128	28449	1	32784	
33521	1	128	28450	1	32775	
33522	1	127	28451	1	32804	
33523	1	127	28452	1	32756	
33524	1	127	28453	1	32828	
33525	1	128	28454	1	32846	
33526	1	128	28455	1	32872	
33527	1	128	28456	1	32884	
33528	1	128	28457	1	32820	
33529	1	128	28458	1	32837	
33530	1	128	28459	1	32876	
33531	1	128	28460	1	32880	
33532	1	127	28461	1	32782	
33533	1	127	28462	1	32820	
33534	1	128	28463	1	32681	
33535	1	127	28464	1	32506	
33536	1	128	28465	1	32532	
33537	1	128	28466	1	32740	
33538	1	128	28467	1	32802	
33539	1	127	28468	1	32880	
33540	1	128	28469	1	32916	
33541	1	128	28470	1	32860	
33542	1	127	28471	1	32880	
33543	1	127	28472	1	32840	
33544	1	127	28473	1	32854	
33545	1	128	28474	1	32812	
33546	1	127	28475	1	32839	
33547	1	128	28476	1	32824	
33548	1	128	28477	1	32932	
33549	1	128	28478	1	32882	
33550	1	128	28479	1	32902	
33551	1	128	28480	1	32812	
33552	1	128	28481	1	32800	
33553	1	128	28482	1	32816	
33554	1	128	28483	1	32749	
33555	1	128	28484	1	32800	
33556	1	128	28485	1	32740	
33557	1	127	28486	1	32796	
33558	1	127	28487	1	32762	
33559	1	127	28488	1	32775	
33560	1	128	28489	1	32806	
33561	1	128	28490	1	32736	
33562	1	127	28491	1	32736	
33563	1	128	28492	1	32822	
33564	1	128	28493	1	32788	
33565	1	128	28494	1	32783	
33566	1	127	28495	1	32844	
33567	1	127	28496	1	32846	
33568	1	128	28497	1	32848	
33569	1	128	28498	1	32884	
33570	1	128	28499	1	32840	
33571	1	128	28500	1	32816	
33572	1	128	28501	1	32772	
33573	1	128	28502	1	32756	
33574	1	128	28503	1	32775	
33575	1	127	28504	1	32805	
33576	1	127	28505	1	32801	
33577	1	128	28506	1	32762	
33578	1	128	28507	1	32827	
33579	1	128	28508	1	32876	
33580	1	128	28509	1	32767	
33581	1	127	28510	1	32775	
33582	1	127	28511	1	32775	
33583	1	127	28512	1	32775	
33584	1	127	28513	1	32775	
33585	1	128	28514	1	32751	
33586	1	128	28515	1	32738	
33587	1	128	28516	1	32756	
33588	1	128	28517	1	32802	
33589	1	128	28518	1	32805	
33590	1	128	28519	1	32848	
33591	1	128	28520	1	32856	
33592	1	128	28521	1	32917	
33593	1	127	28522	1	32844	
33594	1	128	28523	1	32884	
33595	1	128	28524	1	32876	
33596	1	128	28525	1	32840	
33597	1	128	28526	1	32711	
33598	1	128	28527	1	32732	
33599	1	128	28528	1	32804	
33600	1	127	28529	1	32787	
33601	1	128	28530	1	32854	
33602	1	128	28531	1	32856	
33603	1	127	28532	1	32864	
33604	1	127	28533	1	32807	
33605	1	128	28534	1	32804	
33606	1	127	28535	1	32828	
33607	1	127	28536	1	32764	
33608	1	128	28537	1	32740	
33609	1	128	28538	1	32868	
33610	1	127	28539	1	32808	
33611	1	127	28540	1	32818	
33612	1	128	28541	1	32770	
33613	1	128	28542	1	32813	
33614	1	128	28543	1	32844	
33615	1	128	28544	1	32808	
33616	1	128	28545	1	32812	
33617	1	128	28546	1	32800	
33618	1	128	28547	1	32756	
33619	1	128	28548	1	32716	
33620	1	127	28549	1	32833	
33621	1	127	28550	1	32832	
33622	1	127	28551	1	32866	
33623	1	127	28552	1	32862	
33624	1	128	28553	1	32821	
33625	1	128	28554	1	32802	
33626	1	128	28555	1	32820	
33627	1	128	28556	1	32834	
33628	1	128	28557	1	32870	
33629	1	128	28558	1	32756	
33630	1	127	28559	1	32806	
33631	1	127	28560	1	32756	
33632	1	128	28561	1	32820	
33633	1	128	28562	1	32818	
33634	1	128	28563	1	32772	
33635	1	128	28564	1	32800	
33636	1	128	28565	1	32885	
33637	1	128	28566	1	32775	
33638	1	128	28567	1	32784	
33639	1	128	28568	1	32828	
33640	1	127	28569	1	32846	
33641	1	128	28570	1	32816	
33642	1	127	28571	1	32798	
33643	1	127	28572	1	32758	
33644	1	127	28573	1	32787	
33645	1	128	28574	1	32818	
33646	1	127	28575	1	32818	
33647	1	127	28576	1	32812	
33648	1	128	28577	1	32812	
33649	1	128	28578	1	32805	
33650	1	128	28579	1	32890	
33651	1	128	28580	1	32932	
33652	1	128	28581	1	32916	
33653	1	128	28582	1	32932	
33654	1	128	28583	1	32877	
33655	1	127	28584	1	32831	
33656	1	128	28585	1	32861	
33657	1	128	28586	1	32734	
33658	1	128	28587	1	32519	
33659	1	127	28588	1	32491	
33660	1	127	28589	1	32658	
33661	1	128	28590	1	32828	
33662	1	128	28591	1	32848	
33663	1	127	28592	1	32800	
33664	1	127	28593	1	32848	
33665	1	127	28594	1	32857	
33666	1	128	28595	1	32840	
33667	1	128	28596	1	32900	
33668	1	128	28597	1	32880	
33669	1	128	28598	1	32788	
33670	1	128	28599	1	32850	
33671	1	128	28600	1	32882	
33672	1	128	28601	1	32866	
33673	1	128	28602	1	32854	
33674	1	128	28603	1	32818	
33675	1	128	28604	1	32775	
33676	1	128	28605	1	32752	
33677	1	128	28606	1	32808	
33678	1	127	28607	1	32696	
33679	1	127	28608	1	32766	
33680	1	127	28609	1	32860	
33681	1	128	28610	1	32710	
33682	1	128	28611	1	32768	
33683	1	128	28612	1	32884	
33684	1	127	28613	1	32860	
33685	1	127	28614	1	32844	
33686	1	128	28615	1	32836	
33687	1	128	28616	1	32876	
33688	1	128	28617	1	32734	
33689	1	127	28618	1	32736	
33690	1	128	28619	1	32770	
33691	1	128	28620	1	32742	
33692	1	128	28621	1	32808	
33693	1	127	28622	1	32834	
33694	1	128	28623	1	32808	
33695	1	128	28624	1	32828	
33696	1	128	28625	1	32716	
33697	1	128	28626	1	32736	
33698	1	127	28627	1	32775	
33699	1	127	28628	1	32842	
33700	1	127	28629	1	32761	
33701	1	128	28630	1	32786	
33702	1	127	28631	1	32840	
33703	1	127	28632	1	32855	
33704	1	128	28633	1	32748	
33705	1	127	28634	1	32788	
33706	1	128	28635	1	32834	
33707	1	128	28636	1	32902	
33708	1	128	28637	1	32827	
33709	1	128	28638	1	32801	
33710	1	128	28639	1	32798	
33711	1	128	28640	1	32868	
33712	1	127	28641	1	32881	
33713	1	127	28642	1	32876	
33714	1	127	28643	1	32924	
33715	1	128	28644	1	32896	
33716	1	128	28645	1	32910	
33717	1	128	28646	1	32848	
33718	1	128	28647	1	32748	
33719	1	128	28648	1	32568	
33720	1	127	28649	1	32509	
33721	1	127	28650	1	32633	
33722	1	127	28651	1	32736	
33723	1	127	28652	1	32838	
33724	1	127	28653	1	32828	
33725	1	128	28654	1	32816	
33726	1	128	28655	1	32852	
33727	1	128	28656	1	32788	
33728	1	128	28657	1	32813	
33729	1	128	28658	1	32848	
33730	1	127	28659	1	32788	
33731	1	128	28660	1	32855	
33732	1	128	28661	1	32820	
33733	1	128	28662	1	32759	
33734	1	127	28663	1	32862	
33735	1	127	28664	1	32848	
33736	1	128	28665	1	32876	
33737	1	128	28666	1	32852	
33738	1	127	28667	1	32829	
33739	1	128	28668	1	32856	
33740	1	128	28669	1	32828	
33741	1	127	28670	1	32808	
33742	1	127	28671	1	32753	
33743	1	127	28672	1	32832	
33744	1	128	28673	1	32812	
33745	1	128	28674	1	32782	
33746	1	128	28675	1	32737	
33747	1	128	28676	1	32806	
33748	1	128	28677	1	32812	
33749	1	128	28678	1	32806	
33750	1	128	28679	1	32838	
33751	1	128	28680	1	32816	
33752	1	128	28681	1	32762	
33753	1	128	28682	1	32798	
33754	1	127	28683	1	32858	
33755	1	127	28684	1	32904	
33756	1	128	28685	1	32797	
33757	1	128	28686	1	32823	
33758	1	128	28687	1	32780	
33759	1	128	28688	1	32796	
33760	1	128	28689	1	32796	
33761	1	128	28690	1	32794	
33762	1	128	28691	1	32804	
33763	1	127	28692	1	32834	
33764	1	128	28693	1	32830	
33765	1	128	28694	1	32770	
33766	1	128	28695	1	32768	
33767	1	128	28696	1	32800	
33768	1	128	28697	1	32861	
33769	1	128	28698	1	32844	
33770	1	128	28699	1	32829	
33771	1	128	28700	1	32832	
33772	1	128	28701	1	32796	
33773	1	127	28702	1	32732	
33774	1	127	28703	1	32768	
33775	1	127	28704	1	32788	
33776	1	128	28705	1	32804	
33777	1	128	28706	1	32832	
33778	1	128	28707	1	32860	
33779	1	127	28708	1	32772	
33780	1	128	28709	1	32842	
33781	1	127	28710	1	32832	
33782	1	127	28711	1	32807	
33783	1	127	28712	1	32874	
33784	1	127	28713	1	32848	
33785	1	128	28714	1	32872	
33786	1	128	28715	1	32870	
33787	1	128	28716	1	32900	
33788	1	128	28717	1	32800	
33789	1	128	28718	1	32866	
33790	1	128	28719	1	32736	
33791	1	128	28720	1	32544	
33792	1	128	28721	1	32564	
33793	1	128	28722	1	32774	
33794	1	128	28723	1	32809	
33795	1	128	28724	1	32824	
33796	1	127	28725	1	32856	
33797	1	128	28726	1	32756	
33798	1	127	28727	1	32829	
33799	1	127	28728	1	32864	
33800	1	127	28729	1	32820	
33801	1	128	28730	1	32834	
33802	1	127	28731	1	32844	
33803	1	127	28732	1	32847	
33804	1	128	28733	1	32838	
33805	1	128	28734	1	32754	
33806	1	128	28735	1	32853	
33807	1	128	28736	1	32844	
33808	1	128	28737	1	32768	
33809	1	128	28738	1	32784	
33810	1	128	28739	1	32754	
33811	1	128	28740	1	32804	
33812	1	128	28741	1	32872	
33813	1	128	28742	1	32765	
33814	1	127	28743	1	32804	
33815	1	128	28744	1	32800	
33816	1	128	28745	1	32832	
33817	1	128	28746	1	32848	
33818	1	128	28747	1	32840	
33819	1	127	28748	1	32775	
33820	1	127	28749	1	32770	
33821	1	128	28750	1	32775	
33822	1	127	28751	1	32848	
33823	1	127	28752	1	32839	
33824	1	127	28753	1	32821	
33825	1	127	28754	1	32826	
33826	1	128	28755	1	32848	
33827	1	128	28756	1	32828	
33828	1	128	28757	1	32839	
33829	1	128	28758	1	32824	
33830	1	128	28759	1	32772	
33831	1	128	28760	1	32838	
33832	1	128	28761	1	32772	
33833	1	128	28762	1	32840	
33834	1	127	28763	1	32814	
33835	1	127	28764	1	32762	
33836	1	128	28765	1	32792	
33837	1	128	28766	1	32768	
33838	1	128	28767	1	32861	
33839	1	128	28768	1	32880	
33840	1	127	28769	1	32848	
33841	1	127	28770	1	32868	
33842	1	127	28771	1	32832	
33843	1	127	28772	1	32808	
33844	1	127	28773	1	32775	
33845	1	128	28774	1	32800	
33846	1	128	28775	1	32652	
33847	1	128	28776	1	32602	
33848	1	128	28777	1	32668	
33849	1	128	28778	1	32728	
33850	1	128	28779	1	32841	
33851	1	128	28780	1	32854	
33852	1	127	28781	1	32846	
33853	1	128	28782	1	32832	
33854	1	128	28783	1	32848	
33855	1	127	28784	1	32775	
33856	1	128	28785	1	32860	
33857	1	128	28786	1	32832	
33858	1	128	28787	1	32824	
33859	1	128	28788	1	32868	
33860	1	127	28789	1	32816	
33861	1	127	28790	1	32816	
33862	1	127	28791	1	32765	
33863	1	127	28792	1	32828	
33864	1	128	28793	1	32850	
33865	1	127	28794	1	32875	
33866	1	128	28795	1	32823	
33867	1	128	28796	1	32818	
33868	1	128	28797	1	32785	
33869	1	128	28798	1	32831	
33870	1	128	28799	1	32796	
33871	1	128	28800	1	32749	
33872	1	128	28801	1	32788	
33873	1	128	28802	1	32775	
33874	1	128	28803	1	32812	
33875	1	128	28804	1	32827	
33876	1	128	28805	1	32775	
33877	1	128	28806	1	32794	
33878	1	128	28807	1	32786	
33879	1	127	28808	1	32732	
33880	1	127	28809	1	32808	
33881	1	127	28810	1	32829	
33882	1	127	28811	1	32848	
33883	1	127	28812	1	32829	
33884	1	128	28813	1	32807	
33885	1	127	28814	1	32842	
33886	1	128	28815	1	32806	
33887	1	128	28816	1	32794	
33888	1	128	28817	1	32804	
33889	1	127	28818	1	32846	
33890	1	128	28819	1	32824	
33891	1	128	28820	1	32788	
33892	1	128	28821	1	32858	
33893	1	127	28822	1	32802	
33894	1	128	28823	1	32768	
33895	1	128	28824	1	32783	
33896	1	128	28825	1	32793	
33897	1	128	28826	1	32840	
33898	1	128	28827	1	32844	
33899	1	128	28828	1	32775	
33900	1	127	28829	1	32752	
33901	1	127	28830	1	32903	
33902	1	128	28831	1	32903	
33903	1	127	28832	1	32908	
33904	1	127	28833	1	32845	
33905	1	127	28834	1	32870	
33906	1	127	28835	1	32840	
33907	1	128	28836	1	32828	
33908	1	128	28837	1	32694	
33909	1	128	28838	1	32552	
33910	1	128	28839	1	32598	
33911	1	127	28840	1	32728	
33912	1	128	28841	1	32775	
33913	1	128	28842	1	32839	
33914	1	128	28843	1	32792	
33915	1	128	28844	1	32820	
33916	1	128	28845	1	32850	
33917	1	128	28846	1	32858	
33918	1	128	28847	1	32886	
33919	1	128	28848	1	32876	
33920	1	128	28849	1	32892	
33921	1	128	28850	1	32844	
33922	1	128	28851	1	32775	
33923	1	128	28852	1	32806	
33924	1	128	28853	1	32804	
33925	1	127	28854	1	32816	
33926	1	128	28855	1	32770	
33927	1	128	28856	1	32808	
33928	1	128	28857	1	32809	
33929	1	128	28858	1	32844	
33930	1	128	28859	1	32775	
33931	1	128	28860	1	32796	
33932	1	128	28861	1	32798	
33933	1	127	28862	1	32834	
33934	1	128	28863	1	32796	
33935	1	127	28864	1	32784	
33936	1	128	28865	1	32768	
33937	1	128	28866	1	32832	
33938	1	128	28867	1	32804	
33939	1	128	28868	1	32829	
33940	1	127	28869	1	32828	
33941	1	128	28870	1	32792	
33942	1	127	28871	1	32864	
33943	1	127	28872	1	32852	
33944	1	128	28873	1	32798	
33945	1	128	28874	1	32820	
33946	1	127	28875	1	32735	
33947	1	128	28876	1	32879	
33948	1	127	28877	1	32805	
33949	1	128	28878	1	32744	
33950	1	128	28879	1	32794	
33951	1	128	28880	1	32818	
33952	1	128	28881	1	32797	
33953	1	128	28882	1	32784	
33954	1	128	28883	1	32756	
33955	1	128	28884	1	32775	
33956	1	128	28885	1	32824	
33957	1	128	28886	1	32772	
33958	1	128	28887	1	32754	
33959	1	127	28888	1	32816	
33960	1	128	28889	1	32764	
33961	1	127	28890	1	32848	
33962	1	128	28891	1	32832	
33963	1	128	28892	1	32764	
33964	1	128	28893	1	32816	
33965	1	128	28894	1	32804	
33966	1	128	28895	1	32796	
33967	1	128	28896	1	32804	
33968	1	128	28897	1	32775	
33969	1	128	28898	1	32754	
33970	1	128	28899	1	32840	
33971	1	127	28900	1	32869	
33972	1	127	28901	1	32796	
33973	1	128	28902	1	32775	
33974	1	128	28903	1	32827	
33975	1	128	28904	1	32848	
33976	1	128	28905	1	32872	
33977	1	128	28906	1	32846	
33978	1	128	28907	1	32813	
33979	1	128	28908	1	32850	
33980	1	128	28909	1	32858	
33981	1	127	28910	1	32826	
33982	1	128	28911	1	32768	
33983	1	128	28912	1	32770	
33984	1	127	28913	1	32876	
33985	1	127	28914	1	32900	
33986	1	127	28915	1	32888	
33987	1	128	28916	1	32930	
33988	1	128	28917	1	32754	
33989	1	128	28918	1	32634	
33990	1	128	28919	1	32696	
33991	1	128	28920	1	32829	
33992	1	128	28921	1	32868	
33993	1	128	28922	1	32876	
33994	1	128	28923	1	32874	
33995	1	128	28924	1	32844	
33996	1	128	28925	1	32758	
33997	1	128	28926	1	32802	
33998	1	127	28927	1	32822	
33999	1	127	28928	1	32786	
34000	1	127	28929	1	32800	
34001	1	127	28930	1	32809	
34002	1	128	28931	1	32861	
34003	1	127	28932	1	32796	
34004	1	127	28933	1	32844	
34005	1	128	28934	1	32729	
34006	1	127	28935	1	32756	
34007	1	127	28936	1	32756	
34008	1	128	28937	1	32742	
34009	1	128	28938	1	32774	
34010	1	128	28939	1	32789	
34011	1	128	28940	1	32824	
34012	1	128	28941	1	32816	
34013	1	128	28942	1	32760	
34014	1	128	28943	1	32800	
34015	1	128	28944	1	32878	
34016	1	128	28945	1	32844	
34017	1	127	28946	1	32762	
34018	1	128	28947	1	32866	
34019	1	128	28948	1	32740	
34020	1	127	28949	1	32784	
34021	1	128	28950	1	32834	
34022	1	127	28951	1	32866	
34023	1	127	28952	1	32764	
34024	1	128	28953	1	32800	
34025	1	128	28954	1	32840	
34026	1	128	28955	1	32834	
34027	1	128	28956	1	32888	
34028	1	128	28957	1	32888	
34029	1	128	28958	1	32884	
34030	1	128	28959	1	32852	
34031	1	128	28960	1	32836	
34032	1	128	28961	1	32840	
34033	1	128	28962	1	32868	
34034	1	128	28963	1	32775	
34035	1	128	28964	1	32844	
34036	1	128	28965	1	32864	
34037	1	128	28966	1	32730	
34038	1	127	28967	1	32724	
34039	1	128	28968	1	32828	
34040	1	128	28969	1	32802	
34041	1	128	28970	1	32820	
34042	1	127	28971	1	32784	
34043	1	127	28972	1	32847	
34044	1	127	28973	1	32888	
34045	1	127	28974	1	32805	
34046	1	127	28975	1	32820	
34047	1	128	28976	1	32824	
34048	1	128	28977	1	32816	
34049	1	128	28978	1	32658	
34050	1	128	28979	1	32639	
34051	1	128	28980	1	32664	
34052	1	128	28981	1	32786	
34053	1	128	28982	1	32832	
34054	1	128	28983	1	32889	
34055	1	127	28984	1	32802	
34056	1	128	28985	1	32770	
34057	1	127	28986	1	32832	
34058	1	127	28987	1	32840	
34059	1	127	28988	1	32804	
34060	1	127	28989	1	32812	
34061	1	128	28990	1	32808	
34062	1	127	28991	1	32852	
34063	1	128	28992	1	32801	
34064	1	128	28993	1	32832	
34065	1	128	28994	1	32774	
34066	1	127	28995	1	32798	
34067	1	128	28996	1	32848	
34068	1	128	28997	1	32816	
34069	1	127	28998	1	32775	
34070	1	128	28999	1	32794	
34071	1	128	29000	1	32760	
34072	1	128	29001	1	32803	
34073	1	128	29002	1	32735	
34074	1	128	29003	1	32768	
34075	1	128	29004	1	32790	
34076	1	128	29005	1	32836	
34077	1	128	29006	1	32839	
34078	1	128	29007	1	32828	
34079	1	127	29008	1	32844	
34080	1	127	29009	1	32752	
34081	1	127	29010	1	32830	
34082	1	127	29011	1	32888	
34083	1	127	29012	1	32865	
34084	1	128	29013	1	32792	
34085	1	128	29014	1	32858	
34086	1	128	29015	1	32914	
34087	1	127	29016	1	32888	
34088	1	128	29017	1	32898	
34089	1	128	29018	1	32864	
34090	1	127	29019	1	32839	
34091	1	128	29020	1	32720	
34092	1	128	29021	1	32766	
34093	1	128	29022	1	32708	
34094	1	128	29023	1	32786	
34095	1	127	29024	1	32796	
34096	1	128	29025	1	32733	
34097	1	128	29026	1	32756	
34098	1	128	29027	1	32762	
34099	1	128	29028	1	32854	
34100	1	128	29029	1	32728	
34101	1	128	29030	1	32748	
34102	1	127	29031	1	32826	
34103	1	128	29032	1	32912	
34104	1	128	29033	1	32806	
34105	1	128	29034	1	32788	
34106	1	128	29035	1	32832	
34107	1	127	29036	1	32850	
34108	1	127	29037	1	32884	
34109	1	127	29038	1	32882	
34110	1	128	29039	1	32820	
34111	1	128	29040	1	32668	
34112	1	128	29041	1	32588	
34113	1	128	29042	1	32706	
34114	1	128	29043	1	32836	
34115	1	128	29044	1	32824	
34116	1	128	29045	1	32820	
34117	1	128	29046	1	32864	
34118	1	128	29047	1	32808	
34119	1	127	29048	1	32824	
34120	1	127	29049	1	32871	
34121	1	127	29050	1	32831	
34122	1	127	29051	1	32804	
34123	1	127	29052	1	32823	
34124	1	128	29053	1	32815	
34125	1	127	29054	1	32856	
34126	1	127	29055	1	32753	
34127	1	128	29056	1	32857	
34128	1	128	29057	1	32796	
34129	1	128	29058	1	32844	
34130	1	128	29059	1	32848	
34131	1	128	29060	1	32840	
34132	1	128	29061	1	32748	
34133	1	128	29062	1	32792	
34134	1	127	29063	1	32804	
34135	1	128	29064	1	32708	
34136	1	128	29065	1	32756	
34137	1	128	29066	1	32796	
34138	1	128	29067	1	32738	
34139	1	127	29068	1	32800	
34140	1	128	29069	1	32768	
34141	1	128	29070	1	32792	
34142	1	128	29071	1	32792	
34143	1	128	29072	1	32850	
34144	1	127	29073	1	32876	
34145	1	128	29074	1	32797	
34146	1	128	29075	1	32790	
34147	1	128	29076	1	32814	
34148	1	128	29077	1	32829	
34149	1	128	29078	1	32842	
34150	1	128	29079	1	32895	
34151	1	128	29080	1	32886	
34152	1	128	29081	1	32864	
34153	1	128	29082	1	32860	
34154	1	127	29083	1	32804	
34155	1	127	29084	1	32805	
34156	1	128	29085	1	32774	
34157	1	128	29086	1	32824	
34158	1	127	29087	1	32752	
34159	1	128	29088	1	32764	
34160	1	128	29089	1	32772	
34161	1	127	29090	1	32696	
34162	1	127	29091	1	32678	
34163	1	128	29092	1	32784	
34164	1	128	29093	1	32813	
34165	1	127	29094	1	32832	
34166	1	127	29095	1	32862	
34167	1	128	29096	1	32840	
34168	1	128	29097	1	32879	
34169	1	128	29098	1	32908	
34170	1	128	29099	1	32918	
34171	1	128	29100	1	32925	
34172	1	128	29101	1	32848	
34173	1	128	29102	1	32872	
34174	1	128	29103	1	32797	
34175	1	127	29104	1	32800	
34176	1	127	29105	1	32775	
34177	1	128	29106	1	32792	
34178	1	127	29107	1	32804	
34179	1	127	29108	1	32714	
34180	1	127	29109	1	32710	
34181	1	127	29110	1	32766	
34182	1	127	29111	1	32766	
34183	1	127	29112	1	32784	
34184	1	128	29113	1	32800	
34185	1	128	29114	1	32852	
34186	1	127	29115	1	32792	
34187	1	128	29116	1	32760	
34188	1	128	29117	1	32797	
34189	1	128	29118	1	32730	
34190	1	128	29119	1	32804	
34191	1	128	29120	1	32814	
34192	1	128	29121	1	32864	
34193	1	128	29122	1	32926	
34194	1	128	29123	1	32838	
34195	1	127	29124	1	32864	
34196	1	127	29125	1	32872	
34197	1	128	29126	1	32820	
34198	1	127	29127	1	32824	
34199	1	128	29128	1	32775	
34200	1	128	29129	1	32672	
34201	1	128	29130	1	32578	
34202	1	127	29131	1	32652	
34203	1	128	29132	1	32740	
34204	1	127	29133	1	32817	
34205	1	128	29134	1	32816	
34206	1	128	29135	1	32808	
34207	1	127	29136	1	32880	
34208	1	128	29137	1	32852	
34209	1	128	29138	1	32901	
34210	1	128	29139	1	32856	
34211	1	128	29140	1	32832	
34212	1	128	29141	1	32834	
34213	1	128	29142	1	32775	
34214	1	128	29143	1	32842	
34215	1	128	29144	1	32840	
34216	1	128	29145	1	32844	
34217	1	128	29146	1	32892	
34218	1	128	29147	1	32868	
34219	1	128	29148	1	32858	
34220	1	128	29149	1	32816	
34221	1	127	29150	1	32824	
34222	1	128	29151	1	32826	
34223	1	128	29152	1	32764	
34224	1	128	29153	1	32824	
34225	1	127	29154	1	32737	
34226	1	127	29155	1	32816	
34227	1	128	29156	1	32788	
34228	1	128	29157	1	32792	
34229	1	127	29158	1	32775	
34230	1	128	29159	1	32808	
34231	1	128	29160	1	32830	
34232	1	128	29161	1	32848	
34233	1	128	29162	1	32880	
34234	1	128	29163	1	32861	
34235	1	128	29164	1	32894	
34236	1	128	29165	1	32848	
34237	1	128	29166	1	32898	
34238	1	128	29167	1	32814	
34239	1	128	29168	1	32768	
34240	1	128	29169	1	32652	
34241	1	127	29170	1	32594	
34242	1	127	29171	1	32640	
34243	1	127	29172	1	32726	
34244	1	127	29173	1	32760	
34245	1	127	29174	1	32718	
34246	1	128	29175	1	32736	
34247	1	128	29176	1	32805	
34248	1	128	29177	1	32820	
34249	1	127	29178	1	32898	
34250	1	127	29179	1	32796	
34251	1	128	29180	1	32782	
34252	1	127	29181	1	32800	
34253	1	128	29182	1	32802	
34254	1	127	29183	1	32775	
34255	1	128	29184	1	32886	
34256	1	128	29185	1	32868	
34257	1	128	29186	1	32848	
34258	1	128	29187	1	32809	
34259	1	128	29188	1	32817	
34260	1	128	29189	1	32826	
34261	1	127	29190	1	32718	
34262	1	127	29191	1	32789	
34263	1	128	29192	1	32880	
34264	1	127	29193	1	32762	
34265	1	128	29194	1	32804	
34266	1	128	29195	1	32784	
34267	1	127	29196	1	32804	
34268	1	128	29197	1	32826	
34269	1	127	29198	1	32878	
34270	1	128	29199	1	32893	
34271	1	128	29200	1	32884	
34272	1	128	29201	1	32888	
34273	1	128	29202	1	32850	
34274	1	128	29203	1	32876	
34275	1	128	29204	1	32845	
34276	1	128	29205	1	32836	
34277	1	128	29206	1	32770	
34278	1	128	29207	1	32796	
34279	1	127	29208	1	32808	
34280	1	127	29209	1	32809	
34281	1	127	29210	1	32768	
34282	1	127	29211	1	32733	
34283	1	127	29212	1	32784	
34284	1	127	29213	1	32775	
34285	1	127	29214	1	32740	
34286	1	128	29215	1	32752	
34287	1	128	29216	1	32736	
34288	1	127	29217	1	32826	
34289	1	128	29218	1	32796	
34290	1	128	29219	1	32796	
34291	1	128	29220	1	32805	
34292	1	127	29221	1	32880	
34293	1	127	29222	1	32844	
34294	1	128	29223	1	32824	
34295	1	128	29224	1	32790	
34296	1	128	29225	1	32830	
34297	1	128	29226	1	32888	
34298	1	128	29227	1	32882	
34299	1	128	29228	1	32848	
34300	1	127	29229	1	32896	
34301	1	127	29230	1	32914	
34302	1	127	29231	1	32878	
34303	1	127	29232	1	32872	
34304	1	128	29233	1	32713	
34305	1	128	29234	1	32570	
34306	1	128	29235	1	32596	
34307	1	127	29236	1	32746	
34308	1	128	29237	1	32784	
34309	1	128	29238	1	32818	
34310	1	128	29239	1	32848	
34311	1	128	29240	1	32812	
34312	1	128	29241	1	32801	
34313	1	128	29242	1	32775	
34314	1	127	29243	1	32724	
34315	1	128	29244	1	32796	
34316	1	128	29245	1	32817	
34317	1	128	29246	1	32798	
34318	1	128	29247	1	32882	
34319	1	128	29248	1	32837	
34320	1	127	29249	1	32840	
34321	1	127	29250	1	32808	
34322	1	127	29251	1	32806	
34323	1	128	29252	1	32804	
34324	1	127	29253	1	32854	
34325	1	128	29254	1	32852	
34326	1	128	29255	1	32828	
34327	1	128	29256	1	32844	
34328	1	128	29257	1	32740	
34329	1	128	29258	1	32820	
34330	1	128	29259	1	32775	
34331	1	127	29260	1	32786	
34332	1	128	29261	1	32844	
34333	1	128	29262	1	32756	
34334	1	128	29263	1	32736	
34335	1	128	29264	1	32768	
34336	1	127	29265	1	32762	
34337	1	128	29266	1	32774	
34338	1	128	29267	1	32836	
34339	1	127	29268	1	32800	
34340	1	128	29269	1	32813	
34341	1	128	29270	1	32893	
34342	1	127	29271	1	32920	
34343	1	128	29272	1	32924	
34344	1	128	29273	1	32884	
34345	1	128	29274	1	32901	
34346	1	128	29275	1	32814	
34347	1	128	29276	1	32830	
34348	1	128	29277	1	32847	
34349	1	128	29278	1	32852	
34350	1	128	29279	1	32797	
34351	1	128	29280	1	32780	
34352	1	128	29281	1	32840	
34353	1	127	29282	1	32748	
34354	1	127	29283	1	32743	
34355	1	128	29284	1	32760	
34356	1	128	29285	1	32774	
34357	1	128	29286	1	32799	
34358	1	128	29287	1	32787	
34359	1	128	29288	1	32758	
34360	1	128	29289	1	32828	
34361	1	127	29290	1	32784	
34362	1	127	29291	1	32807	
34363	1	127	29292	1	32784	
34364	1	127	29293	1	32775	
34365	1	127	29294	1	32775	
34366	1	128	29295	1	32828	
34367	1	128	29296	1	32856	
34368	1	128	29297	1	32848	
34369	1	128	29298	1	32848	
34370	1	128	29299	1	32862	
34371	1	128	29300	1	32800	
34372	1	128	29301	1	32880	
34373	1	127	29302	1	32824	
34374	1	127	29303	1	32807	
34375	1	127	29304	1	32584	
34376	1	128	29305	1	32581	
34377	1	128	29306	1	32647	
34378	1	128	29307	1	32721	
34379	1	127	29308	1	32796	
34380	1	127	29309	1	32826	
34381	1	127	29310	1	32866	
34382	1	127	29311	1	32890	
34383	1	127	29312	1	32822	
34384	1	128	29313	1	32708	
34385	1	127	29314	1	32838	
34386	1	128	29315	1	32848	
34387	1	128	29316	1	32840	
34388	1	128	29317	1	32804	
34389	1	128	29318	1	32830	
34390	1	128	29319	1	32796	
34391	1	128	29320	1	32775	
34392	1	128	29321	1	32808	
34393	1	128	29322	1	32836	
34394	1	128	29323	1	32766	
34395	1	128	29324	1	32872	
34396	1	128	29325	1	32822	
34397	1	128	29326	1	32828	
34398	1	128	29327	1	32804	
34399	1	127	29328	1	32876	
34400	1	128	29329	1	32770	
34401	1	127	29330	1	32879	
34402	1	127	29331	1	32846	
34403	1	128	29332	1	32852	
34404	1	128	29333	1	32911	
34405	1	128	29334	1	32873	
34406	1	128	29335	1	32809	
34407	1	128	29336	1	32800	
34408	1	127	29337	1	32756	
34409	1	128	29338	1	32826	
34410	1	128	29339	1	32792	
34411	1	128	29340	1	32834	
34412	1	128	29341	1	32804	
34413	1	128	29342	1	32752	
34414	1	128	29343	1	32801	
34415	1	128	29344	1	32792	
34416	1	128	29345	1	32766	
34417	1	128	29346	1	32764	
34418	1	128	29347	1	32833	
34419	1	128	29348	1	32824	
34420	1	127	29349	1	32775	
34421	1	127	29350	1	32850	
34422	1	127	29351	1	32813	
34423	1	127	29352	1	32868	
34424	1	128	29353	1	32798	
34425	1	128	29354	1	32680	
34426	1	128	29355	1	32586	
34427	1	128	29356	1	32642	
34428	1	128	29357	1	32760	
34429	1	128	29358	1	32788	
34430	1	128	29359	1	32872	
34431	1	128	29360	1	32872	
34432	1	128	29361	1	32824	
34433	1	128	29362	1	32872	
34434	1	128	29363	1	32924	
34435	1	128	29364	1	32882	
34436	1	128	29365	1	32836	
34437	1	128	29366	1	32788	
34438	1	127	29367	1	32801	
34439	1	127	29368	1	32792	
34440	1	127	29369	1	32741	
34441	1	128	29370	1	32744	
34442	1	127	29371	1	32789	
34443	1	127	29372	1	32786	
34444	1	127	29373	1	32778	
34445	1	127	29374	1	32814	
34446	1	128	29375	1	32859	
34447	1	127	29376	1	32842	
34448	1	128	29377	1	32760	
34449	1	128	29378	1	32736	
34450	1	128	29379	1	32775	
34451	1	128	29380	1	32809	
34452	1	128	29381	1	32748	
34453	1	128	29382	1	32828	
34454	1	128	29383	1	32846	
34455	1	128	29384	1	32846	
34456	1	128	29385	1	32857	
34457	1	128	29386	1	32836	
34458	1	128	29387	1	32872	
34459	1	128	29388	1	32886	
34460	1	128	29389	1	32846	
34461	1	128	29390	1	32864	
34462	1	128	29391	1	32878	
34463	1	128	29392	1	32822	
34464	1	128	29393	1	32854	
34465	1	127	29394	1	32852	
34466	1	127	29395	1	32833	
34467	1	127	29396	1	32840	
34468	1	128	29397	1	32788	
34469	1	127	29398	1	32749	
34470	1	127	29399	1	32784	
34471	1	128	29400	1	32792	
34472	1	128	29401	1	32708	
34473	1	128	29402	1	32738	
34474	1	128	29403	1	32789	
34475	1	127	29404	1	32792	
34476	1	127	29405	1	32764	
34477	1	128	29406	1	32774	
34478	1	128	29407	1	32744	
34479	1	127	29408	1	32756	
34480	1	128	29409	1	32760	
34481	1	127	29410	1	32796	
34482	1	128	29411	1	32868	
34483	1	127	29412	1	32789	
34484	1	128	29413	1	32822	
34485	1	127	29414	1	32784	
34486	1	127	29415	1	32816	
34487	1	128	29416	1	32887	
34488	1	128	29417	1	32882	
34489	1	128	29418	1	32824	
34490	1	128	29419	1	32826	
34491	1	127	29420	1	32784	
34492	1	128	29421	1	32780	
34493	1	128	29422	1	32804	
34494	1	128	29423	1	32812	
34495	1	127	29424	1	32808	
34496	1	128	29425	1	32890	
34497	1	128	29426	1	32839	
34498	1	128	29427	1	32832	
34499	1	128	29428	1	32850	
34500	1	127	29429	1	32822	
34501	1	128	29430	1	32817	
34502	1	128	29431	1	32824	
34503	1	128	29432	1	32684	
34504	1	127	29433	1	32594	
34505	1	127	29434	1	32470	
34506	1	128	29435	1	32672	
34507	1	128	29436	1	32862	
34508	1	128	29437	1	32855	
34509	1	128	29438	1	32859	
34510	1	128	29439	1	32956	
34511	1	128	29440	1	32925	
34512	1	128	29441	1	32828	
34513	1	128	29442	1	32938	
34514	1	128	29443	1	32868	
34515	1	128	29444	1	32814	
34516	1	128	29445	1	32900	
34517	1	128	29446	1	32852	
34518	1	128	29447	1	32890	
34519	1	127	29448	1	32852	
34520	1	128	29449	1	32860	
34521	1	127	29450	1	32790	
34522	1	128	29451	1	32786	
34523	1	127	29452	1	32770	
34524	1	127	29453	1	32775	
34525	1	127	29454	1	32775	
34526	1	128	29455	1	32798	
34527	1	128	29456	1	32800	
34528	1	128	29457	1	32782	
34529	1	128	29458	1	32788	
34530	1	128	29459	1	32839	
34531	1	128	29460	1	32858	
34532	1	128	29461	1	32786	
34533	1	128	29462	1	32824	
34534	1	128	29463	1	32834	
34535	1	128	29464	1	32790	
34536	1	128	29465	1	32789	
34537	1	128	29466	1	32822	
34538	1	127	29467	1	32775	
34539	1	127	29468	1	32774	
34540	1	127	29469	1	32728	
34541	1	127	29470	1	32819	
34542	1	127	29471	1	32804	
34543	1	127	29472	1	32756	
34544	1	127	29473	1	32766	
34545	1	127	29474	1	32788	
34546	1	128	29475	1	32766	
34547	1	128	29476	1	32774	
34548	1	128	29477	1	32837	
34549	1	128	29478	1	32762	
34550	1	127	29479	1	32801	
34551	1	128	29480	1	32789	
34552	1	128	29481	1	32772	
34553	1	128	29482	1	32758	
34554	1	128	29483	1	32746	
34555	1	128	29484	1	32764	
34556	1	128	29485	1	32846	
34557	1	128	29486	1	32868	
34558	1	127	29487	1	32868	
34559	1	127	29488	1	32858	
34560	1	128	29489	1	32828	
34561	1	128	29490	1	32849	
34562	1	127	29491	1	32968	
34563	1	127	29492	1	32966	
34564	1	128	29493	1	32954	
34565	1	128	29494	1	32892	
34566	1	128	29495	1	32706	
34567	1	128	29496	1	32604	
34568	1	128	29497	1	32658	
34569	1	128	29498	1	32748	
34570	1	128	29499	1	32856	
34571	1	128	29500	1	32786	
34572	1	128	29501	1	32812	
34573	1	128	29502	1	32898	
34574	1	128	29503	1	32848	
34575	1	128	29504	1	32841	
34576	1	128	29505	1	32814	
34577	1	128	29506	1	32814	
34578	1	128	29507	1	32754	
34579	1	128	29508	1	32809	
34580	1	127	29509	1	32814	
34581	1	127	29510	1	32760	
34582	1	127	29511	1	32846	
34583	1	127	29512	1	32852	
34584	1	128	29513	1	32856	
34585	1	128	29514	1	32798	
34586	1	128	29515	1	32775	
34587	1	128	29516	1	32697	
34588	1	128	29517	1	32754	
34589	1	128	29518	1	32816	
34590	1	128	29519	1	32864	
34591	1	128	29520	1	32817	
34592	1	128	29521	1	32791	
34593	1	128	29522	1	32844	
34594	1	127	29523	1	32804	
34595	1	127	29524	1	32834	
34596	1	128	29525	1	32754	
34597	1	128	29526	1	32768	
34598	1	128	29527	1	32679	
34599	1	128	29528	1	32752	
34600	1	128	29529	1	32786	
34601	1	127	29530	1	32780	
34602	1	127	29531	1	32772	
34603	1	127	29532	1	32740	
34604	1	128	29533	1	32740	
34605	1	128	29534	1	32756	
34606	1	128	29535	1	32822	
34607	1	128	29536	1	32856	
34608	1	128	29537	1	32804	
34609	1	127	29538	1	32764	
34610	1	128	29539	1	32814	
34611	1	127	29540	1	32858	
34612	1	128	29541	1	32933	
34613	1	128	29542	1	32936	
34614	1	128	29543	1	32890	
34615	1	127	29544	1	32926	
34616	1	128	29545	1	32928	
34617	1	128	29546	1	32858	
34618	1	128	29547	1	32834	
34619	1	128	29548	1	32818	
34620	1	127	29549	1	32742	
34621	1	128	29550	1	32760	
34622	1	128	29551	1	32786	
34623	1	127	29552	1	32822	
34624	1	127	29553	1	32786	
34625	1	127	29554	1	32772	
34626	1	128	29555	1	32864	
34627	1	128	29556	1	32820	
34628	1	128	29557	1	32775	
34629	1	128	29558	1	32872	
34630	1	127	29559	1	32854	
34631	1	127	29560	1	32807	
34632	1	128	29561	1	32822	
34633	1	128	29562	1	32758	
34634	1	128	29563	1	32594	
34635	1	128	29564	1	32623	
34636	1	128	29565	1	32644	
34637	1	128	29566	1	32805	
34638	1	128	29567	1	32812	
34639	1	128	29568	1	32866	
34640	1	128	29569	1	32840	
34641	1	128	29570	1	32892	
34642	1	127	29571	1	32775	
34643	1	127	29572	1	32844	
34644	1	127	29573	1	32926	
34645	1	128	29574	1	32860	
34646	1	127	29575	1	32772	
34647	1	128	29576	1	32827	
34648	1	128	29577	1	32876	
34649	1	128	29578	1	32775	
34650	1	128	29579	1	32800	
34651	1	128	29580	1	32864	
34652	1	128	29581	1	32836	
34653	1	128	29582	1	32802	
34654	1	128	29583	1	32844	
34655	1	128	29584	1	32768	
34656	1	128	29585	1	32734	
34657	1	128	29586	1	32896	
34658	1	127	29587	1	32838	
34659	1	128	29588	1	32772	
34660	1	127	29589	1	32750	
34661	1	127	29590	1	32775	
34662	1	128	29591	1	32766	
34663	1	128	29592	1	32796	
34664	1	127	29593	1	32764	
34665	1	128	29594	1	32762	
34666	1	128	29595	1	32784	
34667	1	128	29596	1	32794	
34668	1	128	29597	1	32738	
34669	1	128	29598	1	32846	
34670	1	128	29599	1	32932	
34671	1	128	29600	1	32922	
34672	1	128	29601	1	32924	
34673	1	128	29602	1	32940	
34674	1	128	29603	1	32864	
34675	1	127	29604	1	32822	
34676	1	128	29605	1	32788	
34677	1	127	29606	1	32840	
34678	1	127	29607	1	32806	
34679	1	128	29608	1	32826	
34680	1	127	29609	1	32788	
34681	1	128	29610	1	32760	
34682	1	127	29611	1	32740	
34683	1	128	29612	1	32740	
34684	1	127	29613	1	32713	
34685	1	128	29614	1	32762	
34686	1	128	29615	1	32736	
34687	1	128	29616	1	32750	
34688	1	128	29617	1	32793	
34689	1	128	29618	1	32786	
34690	1	128	29619	1	32810	
34691	1	128	29620	1	32822	
34692	1	128	29621	1	32862	
34693	1	128	29622	1	32837	
34694	1	128	29623	1	32888	
34695	1	128	29624	1	32896	
34696	1	128	29625	1	32786	
34697	1	128	29626	1	32692	
34698	1	128	29627	1	32592	
34699	1	127	29628	1	32690	
34700	1	128	29629	1	32737	
34701	1	127	29630	1	32836	
34702	1	127	29631	1	32816	
34703	1	128	29632	1	32822	
34704	1	127	29633	1	32832	
34705	1	127	29634	1	32832	
34706	1	128	29635	1	32838	
34707	1	128	29636	1	32832	
34708	1	128	29637	1	32874	
34709	1	128	29638	1	32852	
34710	1	128	29639	1	32836	
34711	1	128	29640	1	32852	
34712	1	128	29641	1	32902	
34713	1	128	29642	1	32850	
34714	1	128	29643	1	32848	
34715	1	128	29644	1	32848	
34716	1	128	29645	1	32864	
34717	1	128	29646	1	32799	
34718	1	128	29647	1	32840	
34719	1	128	29648	1	32874	
34720	1	128	29649	1	32850	
34721	1	127	29650	1	32838	
34722	1	127	29651	1	32836	
34723	1	127	29652	1	32824	
34724	1	127	29653	1	32758	
34725	1	127	29654	1	32775	
34726	1	128	29655	1	32775	
34727	1	127	29656	1	32688	
34728	1	128	29657	1	32800	
34729	1	128	29658	1	32842	
34730	1	128	29659	1	32832	
34731	1	128	29660	1	32809	
34732	1	127	29661	1	32735	
34733	1	128	29662	1	32808	
34734	1	127	29663	1	32740	
34735	1	127	29664	1	32712	
34736	1	128	29665	1	32758	
34737	1	128	29666	1	32840	
34738	1	127	29667	1	32826	
34739	1	128	29668	1	32832	
34740	1	127	29669	1	32790	
34741	1	127	29670	1	32856	
34742	1	128	29671	1	32828	
34743	1	128	29672	1	32768	
34744	1	127	29673	1	32820	
34745	1	127	29674	1	32804	
34746	1	128	29675	1	32850	
34747	1	127	29676	1	32820	
34748	1	128	29677	1	32799	
34749	1	128	29678	1	32868	
34750	1	128	29679	1	32898	
34751	1	128	29680	1	32876	
34752	1	128	29681	1	32804	
34753	1	128	29682	1	32894	
34754	1	127	29683	1	32826	
34755	1	128	29684	1	32834	
34756	1	128	29685	1	32702	
34757	1	128	29686	1	32624	
34758	1	128	29687	1	32652	
34759	1	128	29688	1	32769	
34760	1	128	29689	1	32752	
34761	1	127	29690	1	32788	
34762	1	127	29691	1	32857	
34763	1	127	29692	1	32868	
34764	1	128	29693	1	32845	
34765	1	127	29694	1	32861	
34766	1	128	29695	1	32840	
34767	1	128	29696	1	32786	
34768	1	128	29697	1	32809	
34769	1	128	29698	1	32830	
34770	1	128	29699	1	32848	
34771	1	128	29700	1	32815	
34772	1	128	29701	1	32840	
34773	1	128	29702	1	32797	
34774	1	128	29703	1	32809	
34775	1	127	29704	1	32820	
34776	1	128	29705	1	32804	
34777	1	128	29706	1	32801	
34778	1	128	29707	1	32816	
34779	1	128	29708	1	32816	
34780	1	128	29709	1	32785	
34781	1	127	29710	1	32764	
34782	1	127	29711	1	32766	
34783	1	127	29712	1	32807	
34784	1	127	29713	1	32786	
34785	1	127	29714	1	32768	
34786	1	128	29715	1	32822	
34787	1	128	29716	1	32880	
34788	1	128	29717	1	32854	
34789	1	128	29718	1	32884	
34790	1	128	29719	1	32876	
34791	1	128	29720	1	32802	
34792	1	128	29721	1	32868	
34793	1	128	29722	1	32836	
34794	1	128	29723	1	32833	
34795	1	128	29724	1	32756	
34796	1	127	29725	1	32756	
34797	1	127	29726	1	32756	
34798	1	128	29727	1	32780	
34799	1	128	29728	1	32809	
34800	1	127	29729	1	32800	
34801	1	127	29730	1	32868	
34802	1	127	29731	1	32768	
34803	1	127	29732	1	32728	
34804	1	127	29733	1	32818	
34805	1	127	29734	1	32749	
34806	1	128	29735	1	32870	
34807	1	128	29736	1	32960	
34808	1	128	29737	1	32896	
34809	1	128	29738	1	32940	
34810	1	128	29739	1	32922	
34811	1	128	29740	1	32930	
34812	1	128	29741	1	32902	
34813	1	128	29742	1	32816	
34814	1	128	29743	1	32684	
34815	1	128	29744	1	32588	
34816	1	128	29745	1	32646	
34817	1	128	29746	1	32692	
34818	1	128	29747	1	32789	
34819	1	128	29748	1	32804	
34820	1	128	29749	1	32812	
34821	1	127	29750	1	32902	
34822	1	127	29751	1	32862	
34823	1	127	29752	1	32794	
34824	1	127	29753	1	32870	
34825	1	127	29754	1	32850	
34826	1	127	29755	1	32832	
34827	1	128	29756	1	32816	
34828	1	128	29757	1	32726	
34829	1	127	29758	1	32743	
34830	1	128	29759	1	32804	
34831	1	128	29760	1	32834	
34832	1	128	29761	1	32808	
34833	1	128	29762	1	32818	
34834	1	128	29763	1	32846	
34835	1	127	29764	1	32788	
34836	1	128	29765	1	32837	
34837	1	128	29766	1	32818	
34838	1	128	29767	1	32869	
34839	1	128	29768	1	32775	
34840	1	128	29769	1	32740	
34841	1	127	29770	1	32740	
34842	1	128	29771	1	32804	
34843	1	127	29772	1	32792	
34844	1	127	29773	1	32754	
34845	1	127	29774	1	32832	
34846	1	128	29775	1	32800	
34847	1	128	29776	1	32782	
34848	1	127	29777	1	32802	
34849	1	128	29778	1	32740	
34850	1	128	29779	1	32733	
34851	1	128	29780	1	32775	
34852	1	128	29781	1	32838	
34853	1	128	29782	1	32821	
34854	1	128	29783	1	32901	
34855	1	128	29784	1	32934	
34856	1	127	29785	1	32906	
34857	1	128	29786	1	32908	
34858	1	128	29787	1	32865	
34859	1	128	29788	1	32953	
34860	1	128	29789	1	32888	
34861	1	128	29790	1	32720	
34862	1	127	29791	1	32590	
34863	1	128	29792	1	32576	
34864	1	128	29793	1	32684	
34865	1	128	29794	1	32788	
34866	1	128	29795	1	32808	
34867	1	128	29796	1	32898	
34868	1	128	29797	1	32848	
34869	1	128	29798	1	32861	
34870	1	128	29799	1	32836	
34871	1	128	29800	1	32798	
34872	1	128	29801	1	32832	
34873	1	128	29802	1	32800	
34874	1	128	29803	1	32834	
34875	1	128	29804	1	32820	
34876	1	128	29805	1	32813	
34877	1	128	29806	1	32856	
34878	1	128	29807	1	32826	
34879	1	128	29808	1	32860	
34880	1	128	29809	1	32858	
34881	1	127	29810	1	32848	
34882	1	127	29811	1	32762	
34883	1	128	29812	1	32720	
34884	1	128	29813	1	32768	
34885	1	127	29814	1	32824	
34886	1	127	29815	1	32775	
34887	1	128	29816	1	32824	
34888	1	128	29817	1	32804	
34889	1	128	29818	1	32775	
34890	1	128	29819	1	32775	
34891	1	128	29820	1	32722	
34892	1	128	29821	1	32757	
34893	1	128	29822	1	32774	
34894	1	128	29823	1	32828	
34895	1	128	29824	1	32863	
34896	1	128	29825	1	32868	
34897	1	128	29826	1	32852	
34898	1	128	29827	1	32896	
34899	1	128	29828	1	32836	
34900	1	128	29829	1	32848	
34901	1	128	29830	1	32980	
34902	1	128	29831	1	32893	
34903	1	127	29832	1	32848	
34904	1	128	29833	1	32872	
34905	1	127	29834	1	32884	
34906	1	128	29835	1	32888	
34907	1	128	29836	1	32846	
34908	1	128	29837	1	32764	
34909	1	128	29838	1	32792	
34910	1	128	29839	1	32816	
34911	1	128	29840	1	32834	
34912	1	128	29841	1	32775	
34913	1	127	29842	1	32668	
34914	1	128	29843	1	32550	
34915	1	127	29844	1	32576	
34916	1	128	29845	1	32775	
34917	1	128	29846	1	32834	
34918	1	128	29847	1	32800	
34919	1	128	29848	1	32822	
34920	1	128	29849	1	32820	
34921	1	128	29850	1	32827	
34922	1	127	29851	1	32856	
34923	1	127	29852	1	32812	
34924	1	127	29853	1	32760	
34925	1	128	29854	1	32762	
34926	1	128	29855	1	32836	
34927	1	128	29856	1	32846	
34928	1	128	29857	1	32794	
34929	1	128	29858	1	32824	
34930	1	128	29859	1	32844	
34931	1	128	29860	1	32798	
34932	1	128	29861	1	32748	
34933	1	128	29862	1	32824	
34934	1	128	29863	1	32764	
34935	1	128	29864	1	32790	
34936	1	128	29865	1	32832	
34937	1	128	29866	1	32830	
34938	1	128	29867	1	32852	
34939	1	127	29868	1	32818	
34940	1	127	29869	1	32876	
34941	1	128	29870	1	32878	
34942	1	127	29871	1	32836	
34943	1	128	29872	1	32794	
34944	1	127	29873	1	32766	
34945	1	127	29874	1	32780	
34946	1	128	29875	1	32834	
34947	1	128	29876	1	32828	
34948	1	128	29877	1	32775	
34949	1	128	29878	1	32772	
34950	1	128	29879	1	32775	
34951	1	128	29880	1	32768	
34952	1	128	29881	1	32804	
34953	1	128	29882	1	32871	
34954	1	128	29883	1	32852	
34955	1	128	29884	1	32852	
34956	1	128	29885	1	32949	
34957	1	128	29886	1	32952	
34958	1	128	29887	1	32920	
34959	1	128	29888	1	32928	
34960	1	128	29889	1	32812	
34961	1	127	29890	1	32646	
34962	1	127	29891	1	32572	
34963	1	128	29892	1	32688	
34964	1	128	29893	1	32748	
34965	1	127	29894	1	32825	
34966	1	127	29895	1	32816	
34967	1	128	29896	1	32914	
34968	1	127	29897	1	32924	
34969	1	128	29898	1	32840	
34970	1	128	29899	1	32824	
34971	1	128	29900	1	32758	
34972	1	127	29901	1	32658	
34973	1	128	29902	1	32660	
34974	1	128	29903	1	32656	
34975	1	128	29904	1	32668	
34976	1	127	29905	1	32706	
34977	1	128	29906	1	32812	
34978	1	127	29907	1	32797	
34979	1	127	29908	1	32775	
34980	1	127	29909	1	32826	
34981	1	127	29910	1	32889	
34982	1	128	29911	1	32812	
34983	1	127	29912	1	32840	
34984	1	128	29913	1	32842	
34985	1	128	29914	1	32854	
34986	1	128	29915	1	32850	
34987	1	127	29916	1	32864	
34988	1	127	29917	1	32870	
34989	1	128	29918	1	32788	
34990	1	128	29919	1	32792	
34991	1	128	29920	1	32842	
34992	1	127	29921	1	32804	
34993	1	128	29922	1	32752	
34994	1	127	29923	1	32774	
34995	1	128	29924	1	32826	
34996	1	128	29925	1	32836	
34997	1	128	29926	1	32876	
34998	1	128	29927	1	32773	
34999	1	128	29928	1	32904	
35000	1	128	29929	1	33006	
35001	1	128	29930	1	33024	
35002	1	128	29931	1	32948	
35003	1	128	29932	1	32940	
35004	1	128	29933	1	32828	
35005	1	128	29934	1	32740	
35006	1	127	29935	1	32680	
35007	1	128	29936	1	32652	
35008	1	129	29937	1	32517	
35009	1	128	29938	1	32364	
35010	1	127	29939	1	32490	
35011	1	127	29940	1	32714	
35012	1	127	29941	1	32922	
35013	1	127	29942	1	33100	
35014	1	127	29943	1	33042	
35015	1	127	29944	1	33088	
35016	1	127	29945	1	33042	
35017	1	128	29946	1	32984	
35018	1	128	29947	1	32710	
35019	1	129	29948	1	32652	
35020	1	129	29949	1	32720	
35021	1	128	29950	1	32800	
35022	1	127	29951	1	32762	
35023	1	127	29952	1	32812	
35024	1	127	29953	1	32796	
35025	1	127	29954	1	32765	
35026	1	127	29955	1	32837	
35027	1	128	29956	1	32820	
35028	1	128	29957	1	32812	
35029	1	127	29958	1	32842	
35030	1	127	29959	1	32770	
35031	1	128	29960	1	32732	
35032	1	127	29961	1	32844	
35033	1	128	29962	1	32892	
35034	1	128	29963	1	32886	
35035	1	127	29964	1	32873	
35036	1	127	29965	1	32840	
35037	1	128	29966	1	32752	
35038	1	128	29967	1	32604	
35039	1	127	29968	1	32662	
35040	1	127	29969	1	32786	
35041	1	128	29970	1	32969	
35042	1	128	29971	1	32916	
35043	1	128	29972	1	32932	
35044	1	128	29973	1	32836	
35045	1	127	29974	1	32704	
35046	1	127	29975	1	32720	
35047	1	126	29976	1	32992	
35048	1	127	29977	1	33007	
35049	1	127	29978	1	33124	
35050	1	129	29979	1	32902	
35051	1	129	29980	1	32500	
35052	1	129	29981	1	32140	
35053	1	127	29982	1	32272	
35054	1	126	29983	1	32460	
35055	1	125	29984	1	32775	
35056	1	126	29985	1	33072	
35057	1	126	29986	1	33200	
35058	1	127	29987	1	33077	
35059	1	128	29988	1	32760	
35060	1	130	29989	1	32564	
35061	1	130	29990	1	32720	
35062	1	129	29991	1	32796	
35063	1	128	29992	1	32878	
35064	1	127	29993	1	32806	
35065	1	127	29994	1	32866	
35066	1	127	29995	1	32903	
35067	1	127	29996	1	32916	
35068	1	127	29997	1	32933	
35069	1	127	29998	1	32837	
35070	1	127	29999	1	32832	
35071	1	128	30000	1	32812	
35072	1	128	30001	1	32840	
35073	1	128	30002	1	32846	
35074	1	127	30003	1	32800	
35075	1	127	30004	1	32797	
35076	1	127	30005	1	32900	
35077	1	127	30006	1	32944	
35078	1	127	30007	1	32954	
35079	1	127	30008	1	32818	
35080	1	128	30009	1	32774	
35081	1	128	30010	1	32636	
35082	1	128	30011	1	32624	
35083	1	128	30012	1	32748	
35084	1	128	30013	1	32803	
35085	1	128	30014	1	32796	
35086	1	128	30015	1	32828	
35087	1	127	30016	1	32798	
35088	1	127	30017	1	32844	
35089	1	128	30018	1	32918	
35090	1	128	30019	1	32898	
35091	1	128	30020	1	32806	
35092	1	128	30021	1	32872	
35093	1	127	30022	1	32948	
