# OpenSignals Text File Format
# {"00:07:80:D8:A8:82": {"sensor": ["XYZ", "XYZ", "XYZ"], "device name": "00:07:80:D8:A8:82", "column": ["nSeq", "DI", "X", "Y", "Z"], "sync interval": 2, "time": "13:55:26.528", "comments": "", "device connection": "BTH00:07:80:D8:A8:82", "channels": [1, 2, 3], "keywords": "", "mode": 0, "digital IO": [0, 1], "firmware version": 773, "device": "biosignalsplux", "position": 0, "sampling rate": 1000, "label": ["X", "Y", "Z"], "resolution": [16, 16, 16], "date": "2019-3-29", "special": [{}, {}, {}]}}
# EndOfHeader
0	0	33012	32659	37954	
1	0	32996	32655	37970	
2	0	32996	32671	37954	
3	0	33004	32663	37976	
4	0	33008	32658	37993	
5	0	33016	32647	37970	
6	0	33016	32647	37970	
7	0	33008	32660	37964	
8	0	33018	32640	37959	
9	0	33016	32647	37974	
10	0	33014	32647	37957	
11	0	33004	32659	37917	
12	0	32993	32647	37935	
13	0	33005	32647	37958	
14	0	32996	32654	37975	
15	0	33004	32660	37942	
16	0	33004	32646	37947	
17	0	33008	32647	37959	
18	0	32996	32647	37959	
19	0	32984	32663	37950	
20	0	33000	32647	37956	
21	0	32993	32647	37971	
22	0	33000	32656	37994	
23	0	33004	32647	37991	
24	0	33008	32647	37980	
25	0	33008	32647	37951	
26	0	32993	32662	37970	
27	0	32996	32660	37974	
28	0	32984	32662	37986	
29	0	32980	32656	37995	
30	0	32997	32644	37967	
31	0	33002	32647	37959	
32	0	33000	32647	37975	
33	0	32993	32647	37964	
34	0	33006	32647	37955	
35	0	33000	32647	37951	
36	0	32989	32658	37968	
37	0	32992	32659	37965	
38	0	32992	32647	37982	
39	0	33012	32647	37966	
40	0	33004	32647	37966	
41	0	32998	32663	37974	
42	0	33002	32663	37986	
43	0	33008	32654	37978	
44	0	33004	32647	37974	
45	0	33012	32662	37957	
46	0	33000	32669	37964	
47	0	33012	32637	37962	
48	0	33028	32631	37965	
49	0	33021	32631	37970	
50	0	33004	32636	37980	
51	0	33004	32643	37984	
52	0	33012	32647	37972	
53	0	33012	32656	37959	
54	0	33018	32641	37968	
55	0	33008	32658	37976	
56	0	33000	32658	37990	
57	0	33005	32646	37976	
58	0	33020	32644	37990	
59	0	33032	32655	37990	
60	0	33042	32655	37988	
61	0	33030	32647	37975	
62	0	33016	32655	37970	
63	0	33022	32647	37942	
64	0	33030	32626	37927	
65	0	33017	32638	37943	
66	0	33016	32647	37940	
67	0	33030	32647	37943	
68	0	33016	32642	37958	
69	0	33013	32639	37970	
70	0	33024	32638	37938	
71	0	33026	32638	37959	
72	0	33014	32647	37949	
73	0	33018	32647	37955	
74	0	33032	32659	37962	
75	0	33022	32663	37978	
76	0	33020	32647	37996	
77	0	33016	32647	37983	
78	0	33024	32655	37996	
79	0	33032	32647	38013	
80	0	33030	32645	37994	
81	0	33020	32646	38007	
82	0	33017	32647	37990	
83	0	33018	32655	37986	
84	0	33032	32645	37959	
85	0	33029	32655	37954	
86	0	33012	32654	37959	
87	0	33016	32647	37974	
88	0	33018	32640	37980	
89	0	33020	32639	37959	
90	0	33016	32646	37970	
91	0	33008	32647	37948	
92	0	33008	32647	37944	
93	0	33020	32642	37955	
94	0	33012	32663	37946	
95	0	33013	32659	37960	
96	0	33020	32659	37983	
97	0	33032	32662	37964	
98	0	33016	32663	37968	
99	0	33026	32660	37980	
100	0	33020	32647	37956	
101	0	33020	32647	37953	
102	0	33000	32662	37959	
103	0	32994	32667	37961	
104	0	33000	32658	37954	
105	0	33020	32659	37932	
106	0	33020	32647	37940	
107	0	33008	32644	37959	
108	0	33008	32644	37984	
109	0	33002	32639	37975	
110	0	33004	32647	37980	
111	0	33002	32665	37981	
112	0	32996	32669	37970	
113	0	33004	32659	37954	
114	0	33004	32647	37959	
115	0	33012	32656	37962	
116	0	33008	32658	37964	
117	0	33012	32647	37977	
118	0	33012	32653	37970	
119	0	33008	32647	37955	
120	0	33008	32647	37958	
121	0	33008	32645	37959	
122	0	33020	32629	37968	
123	0	33024	32626	37979	
124	0	33028	32628	37962	
125	0	33018	32642	37968	
126	0	33000	32647	37970	
127	0	33004	32658	37959	
128	0	33008	32663	37941	
129	0	33018	32647	37959	
130	0	33010	32640	37954	
131	0	33012	32646	37966	
132	0	33000	32655	37965	
133	0	33004	32642	37966	
134	0	32992	32658	37940	
135	0	33000	32647	37970	
136	0	33000	32655	37967	
137	0	33004	32663	37959	
138	0	33003	32647	37952	
139	0	33000	32647	37935	
140	0	32988	32647	37942	
141	0	33008	32647	37930	
142	0	32998	32663	37940	
143	0	33002	32655	37951	
144	0	33005	32647	37949	
145	0	33030	32658	37959	
146	0	33016	32662	37954	
147	0	33004	32669	37942	
148	0	33006	32647	37943	
149	0	33012	32657	37952	
150	0	33008	32656	37975	
151	0	33001	32658	37981	
152	0	33008	32653	37979	
153	0	33012	32655	37974	
154	0	32996	32663	37963	
155	0	32992	32666	37968	
156	0	32996	32656	37974	
157	0	32990	32647	37959	
158	0	32998	32643	37968	
159	0	32996	32647	37959	
160	0	32997	32666	37983	
161	0	32996	32663	37985	
162	0	33004	32658	37972	
163	0	33020	32660	37963	
164	0	33024	32647	37975	
165	0	33024	32656	37951	
166	0	33028	32645	37958	
167	0	33024	32640	37971	
168	0	33020	32647	37959	
169	0	33012	32647	37978	
170	0	33008	32664	37974	
171	0	33006	32644	37957	
172	0	33008	32642	37951	
173	0	33004	32647	37943	
174	0	32996	32647	37955	
175	0	32999	32654	37961	
176	0	32996	32662	37935	
177	0	33004	32656	37954	
178	0	32993	32662	37948	
179	0	33010	32655	37956	
180	0	33017	32656	37951	
181	0	33008	32660	37972	
182	0	32988	32670	37979	
183	0	32986	32667	37959	
184	0	33006	32647	37955	
185	0	33012	32640	37967	
186	0	33009	32646	37952	
187	0	33025	32637	37967	
188	0	33024	32641	37959	
189	0	33008	32657	37954	
190	0	33016	32642	37948	
191	0	33000	32658	37966	
192	0	33025	32647	37966	
193	0	33014	32647	37991	
194	0	33018	32663	37990	
195	0	33010	32667	37984	
196	0	33016	32647	37992	
197	0	33012	32662	37989	
198	0	33012	32662	37968	
199	0	33016	32665	37964	
200	0	33018	32660	37975	
201	0	33026	32661	37959	
202	0	33020	32669	37948	
203	0	33008	32647	37933	
204	0	33012	32647	37959	
205	0	33024	32647	37959	
206	0	33016	32647	37958	
207	0	33016	32660	37920	
208	0	33012	32658	37941	
209	0	33002	32667	37944	
210	0	32997	32663	37951	
211	0	33000	32647	37959	
212	0	33000	32669	37951	
213	0	33008	32647	37968	
214	0	33016	32669	37965	
215	0	33028	32660	37955	
216	0	33030	32660	37937	
217	0	33016	32647	37938	
218	0	33010	32670	37941	
219	0	33008	32674	37939	
220	0	33012	32659	37942	
221	0	33016	32647	37959	
222	0	33012	32647	37970	
223	0	33026	32636	37957	
224	0	33024	32647	37948	
225	0	33018	32655	37962	
226	0	33008	32663	37952	
227	0	33004	32663	37956	
228	0	33008	32666	37986	
229	0	32993	32662	37988	
230	0	33012	32655	37972	
231	0	33021	32647	37976	
232	0	33000	32667	37990	
233	0	33020	32662	37956	
234	0	33022	32666	37959	
235	0	33030	32658	37948	
236	0	33028	32666	37951	
237	0	33018	32674	37956	
238	0	33034	32659	37966	
239	0	33014	32654	37961	
240	0	33016	32638	37952	
241	0	33012	32634	37927	
242	0	33012	32646	37943	
243	0	33004	32647	37951	
244	0	32988	32662	37954	
245	0	33008	32647	37955	
246	0	33026	32639	37940	
247	0	33012	32636	37932	
248	0	33008	32645	37935	
249	0	33016	32646	37954	
250	0	33006	32652	37951	
251	0	33002	32669	37957	
252	0	33020	32646	37945	
253	0	33020	32647	37959	
254	0	33024	32647	37968	
255	0	33026	32656	37991	
256	0	33020	32660	37991	
257	0	33012	32647	37970	
258	0	33005	32655	37967	
259	0	32996	32671	37970	
260	0	33001	32663	37959	
261	0	33004	32656	37957	
262	0	33004	32655	37954	
263	0	33000	32647	37943	
264	0	33010	32647	37933	
265	0	32997	32658	37917	
266	0	32992	32661	37925	
267	0	32996	32667	37949	
268	0	32996	32662	37948	
269	0	32998	32660	37958	
270	0	33014	32655	37951	
271	0	33016	32660	37951	
272	0	33016	32668	37942	
273	0	33013	32663	37956	
274	0	33000	32647	37970	
275	0	32997	32646	37966	
276	0	33004	32647	37975	
277	0	33000	32647	37982	
278	0	33004	32647	37979	
279	0	33028	32642	37988	
280	0	33031	32642	37980	
281	0	33014	32647	37976	
282	0	33008	32643	37983	
283	0	33001	32642	37984	
284	0	32996	32639	37982	
285	0	32998	32642	37985	
286	0	33008	32634	37975	
287	0	33004	32624	37967	
288	0	33024	32623	37967	
289	0	33016	32642	37966	
290	0	32996	32647	37981	
291	0	32997	32647	37964	
292	0	33002	32647	37986	
293	0	33017	32631	37991	
294	0	33012	32653	37991	
295	0	33000	32640	37996	
296	0	33010	32647	37978	
297	0	32993	32659	37959	
298	0	33010	32647	37949	
299	0	32996	32662	37959	
300	0	32980	32672	37975	
301	0	32992	32667	37991	
302	0	33006	32653	37981	
303	0	33016	32647	37959	
304	0	33012	32636	37974	
305	0	32996	32642	37994	
306	0	33000	32639	37980	
307	0	32996	32645	37972	
308	0	32988	32646	37975	
309	0	32998	32643	37980	
310	0	33004	32647	37949	
311	0	32992	32666	37959	
312	0	32996	32647	37964	
313	0	33010	32647	37956	
314	0	33008	32645	37971	
315	0	33008	32639	37950	
316	0	33020	32637	37959	
317	0	33008	32647	37946	
318	0	33012	32658	37971	
319	0	33004	32655	37970	
320	0	33006	32660	37983	
321	0	33008	32647	37959	
322	0	33008	32637	37968	
323	0	32996	32627	37968	
324	0	33008	32631	37988	
325	0	33005	32647	37959	
326	0	33000	32656	37979	
327	0	33000	32673	37959	
328	0	32992	32674	37981	
329	0	33000	32642	37982	
330	0	33010	32644	37974	
331	0	33013	32644	37975	
332	0	33005	32647	37971	
333	0	33004	32669	37955	
334	0	33013	32666	37955	
335	0	33015	32660	37959	
336	0	33018	32662	37959	
337	0	33012	32671	37958	
338	0	33010	32662	37970	
339	0	33017	32669	37986	
340	0	33012	32665	37990	
341	0	33016	32665	38000	
342	0	33008	32663	37991	
343	0	32996	32683	37982	
344	0	32992	32671	37984	
345	0	33000	32673	37984	
346	0	33000	32673	37987	
347	0	33000	32662	37978	
348	0	33008	32658	37953	
349	0	33008	32654	37930	
350	0	33014	32655	37947	
351	0	33018	32647	37943	
352	0	33012	32663	37958	
353	0	33010	32647	37964	
354	0	33008	32661	37952	
355	0	33030	32647	37937	
356	0	33024	32655	37957	
357	0	33016	32655	37966	
358	0	33016	32663	37954	
359	0	33012	32647	37971	
360	0	33024	32655	37990	
361	0	33004	32647	37982	
362	0	33010	32645	37978	
363	0	33024	32643	37964	
364	0	33010	32647	37950	
365	0	32992	32658	37945	
366	0	32996	32656	37959	
367	0	33000	32662	37951	
368	0	33000	32661	37953	
369	0	33004	32663	37944	
370	0	33008	32647	37958	
371	0	32996	32657	37959	
372	0	32988	32670	37953	
373	0	33000	32662	37979	
374	0	33000	32657	37972	
375	0	33020	32656	37970	
376	0	33024	32668	37958	
377	0	33038	32658	37949	
378	0	33020	32658	37942	
379	0	33016	32643	37967	
380	0	33012	32655	37958	
381	0	32996	32655	37959	
382	0	33014	32647	37966	
383	0	33000	32658	37981	
384	0	33008	32647	37959	
385	0	33014	32647	37951	
386	0	33016	32647	37946	
387	0	33008	32662	37959	
388	0	33012	32647	37943	
389	0	33008	32647	37949	
390	0	33004	32646	37967	
391	0	33000	32644	37968	
392	0	33018	32636	37969	
393	0	33010	32647	37967	
394	0	33012	32646	37979	
395	0	33012	32647	37964	
396	0	33020	32642	37982	
397	0	33014	32643	37988	
398	0	33016	32638	37996	
399	0	33009	32647	37997	
400	0	33020	32647	37956	
401	0	33010	32647	37974	
402	0	33010	32647	37956	
403	0	33002	32658	37959	
404	0	33017	32672	37959	
405	0	33016	32661	37959	
406	0	33019	32658	37947	
407	0	33016	32647	37937	
408	0	33034	32646	37935	
409	0	33012	32655	37946	
410	0	33025	32647	37955	
411	0	33012	32647	37968	
412	0	33018	32646	37976	
413	0	33018	32636	37988	
414	0	33016	32631	37990	
415	0	33026	32633	37986	
416	0	33036	32631	37991	
417	0	33022	32644	37979	
418	0	33006	32647	37977	
419	0	33008	32662	37968	
420	0	33016	32673	37959	
421	0	33006	32672	37966	
422	0	33012	32666	37977	
423	0	33020	32668	37959	
424	0	33016	32647	37938	
425	0	33014	32646	37958	
426	0	33022	32642	37946	
427	0	33012	32642	37959	
428	0	33010	32644	37986	
429	0	33016	32644	37991	
430	0	33004	32646	37972	
431	0	33001	32647	37959	
432	0	33012	32655	37981	
433	0	33028	32643	37990	
434	0	33020	32647	37992	
435	0	33020	32659	37991	
436	0	33000	32672	37997	
437	0	33016	32668	37991	
438	0	33034	32655	37988	
439	0	33036	32655	37988	
440	0	33037	32647	37974	
441	0	33016	32663	37987	
442	0	33026	32658	37970	
443	0	33020	32653	37964	
444	0	33016	32672	37968	
445	0	33010	32655	37987	
446	0	33008	32647	37966	
447	0	32986	32647	37971	
448	0	32992	32643	37959	
449	0	33005	32643	37950	
450	0	32996	32647	37949	
451	0	33000	32640	37941	
452	0	33016	32639	37955	
453	0	33024	32627	37959	
454	0	33018	32643	37949	
455	0	33020	32647	37938	
456	0	33028	32638	37942	
457	0	33016	32647	37946	
458	0	33024	32639	37958	
459	0	33024	32639	37993	
460	0	33014	32647	37978	
461	0	33000	32655	37971	
462	0	33004	32647	37963	
463	0	32996	32639	37980	
464	0	32993	32636	37974	
465	0	33001	32639	37980	
466	0	33001	32646	38003	
467	0	32993	32659	37988	
468	0	32998	32647	37981	
469	0	32996	32660	37992	
470	0	32997	32655	37990	
471	0	32997	32656	37991	
472	0	33000	32647	37991	
473	0	33004	32647	37991	
474	0	33018	32641	37995	
475	0	33026	32644	37978	
476	0	32996	32665	37975	
477	0	32996	32675	37959	
478	0	32992	32667	37974	
479	0	32988	32659	37969	
480	0	32972	32672	37957	
481	0	32988	32660	37982	
482	0	32992	32658	37959	
483	0	33000	32655	37981	
484	0	33012	32647	37971	
485	0	33020	32660	37966	
486	0	32998	32669	37959	
487	0	32997	32664	37965	
488	0	32988	32657	37950	
489	0	32988	32662	37967	
490	0	32992	32652	37950	
491	0	33000	32659	37951	
492	0	32997	32662	37942	
493	0	33002	32647	37959	
494	0	33004	32655	37935	
495	0	32996	32658	37936	
496	0	33008	32668	37922	
497	0	33006	32647	37919	
498	0	33004	32660	37926	
499	0	33000	32663	37956	
500	0	32998	32669	37966	
501	0	33014	32658	37996	
502	0	33012	32667	37981	
503	0	33021	32652	37981	
504	0	33012	32666	37976	
505	0	33024	32666	37959	
506	0	33021	32647	37966	
507	0	33004	32656	37963	
508	0	33008	32647	37990	
509	0	33008	32666	37980	
510	0	33000	32658	37967	
511	0	32996	32655	37959	
512	0	32984	32662	37967	
513	0	32989	32661	37964	
514	0	32997	32660	37959	
515	0	32989	32660	37959	
516	0	32992	32658	37988	
517	0	32992	32663	37976	
518	0	32992	32670	37973	
519	0	32984	32665	37988	
520	0	32989	32663	37973	
521	0	32996	32674	37964	
522	0	33004	32678	37954	
523	0	33008	32671	37942	
524	0	33012	32647	37939	
525	0	33012	32656	37959	
526	0	33021	32652	37975	
527	0	33020	32647	37975	
528	0	33003	32646	37968	
529	0	32992	32663	37959	
530	0	32996	32666	37971	
531	0	33013	32662	37959	
532	0	33006	32663	37966	
533	0	33000	32663	37967	
534	0	33008	32663	37959	
535	0	33008	32665	37984	
536	0	33016	32662	37966	
537	0	33016	32654	37974	
538	0	33024	32646	37967	
539	0	33024	32647	37935	
540	0	33018	32659	37939	
541	0	33013	32658	37955	
542	0	33008	32672	37953	
543	0	33004	32668	37980	
544	0	33016	32669	37981	
545	0	33018	32662	37992	
546	0	33010	32647	37998	
547	0	33024	32647	37983	
548	0	33004	32644	37943	
549	0	33001	32647	37953	
550	0	33004	32660	37966	
551	0	33006	32647	37959	
552	0	33008	32656	37979	
553	0	33012	32656	37968	
554	0	33024	32666	37959	
555	0	33020	32665	37983	
556	0	33016	32671	37983	
557	0	33018	32670	37997	
558	0	33006	32662	37972	
559	0	33004	32662	37979	
560	0	33008	32662	37974	
561	0	33025	32646	37990	
562	0	33018	32646	37990	
563	0	33020	32647	37992	
564	0	33020	32655	37976	
565	0	33008	32658	37954	
566	0	33008	32658	37981	
567	0	32992	32656	37971	
568	0	33004	32647	37978	
569	0	32992	32642	37972	
570	0	32992	32647	37958	
571	0	33000	32663	37958	
572	0	33010	32665	37937	
573	0	33022	32643	37947	
574	0	33024	32659	37944	
575	0	33028	32647	37949	
576	0	33018	32655	37976	
577	0	33018	32638	37970	
578	0	33016	32639	37975	
579	0	33020	32639	37984	
580	0	33024	32647	37982	
581	0	33028	32647	37981	
582	0	33026	32643	37972	
583	0	33020	32647	37970	
584	0	33020	32637	37954	
585	0	33028	32628	37977	
586	0	33037	32634	37959	
587	0	33016	32641	37957	
588	0	33024	32639	37974	
589	0	33030	32646	37974	
590	0	33030	32647	37968	
591	0	33030	32651	37957	
592	0	33032	32647	37947	
593	0	33020	32646	37951	
594	0	33016	32647	37947	
595	0	33034	32652	37959	
596	0	33021	32654	37988	
597	0	33016	32663	37991	
598	0	33016	32658	37991	
599	0	33030	32672	37990	
600	0	33008	32663	37992	
601	0	33012	32658	37987	
602	0	33018	32660	37989	
603	0	33016	32654	37976	
604	0	33012	32647	37972	
605	0	33024	32647	37972	
606	0	33032	32639	37970	
607	0	33021	32645	37964	
608	0	33030	32646	37966	
609	0	33020	32631	37955	
610	0	33012	32655	37946	
611	0	33010	32647	37959	
612	0	33006	32657	37965	
613	0	33004	32647	37959	
614	0	33017	32660	37984	
615	0	33010	32666	37986	
616	0	33008	32670	37982	
617	0	33012	32676	37988	
618	0	33004	32666	37988	
619	0	33012	32660	37979	
620	0	33006	32662	37984	
621	0	33004	32663	37974	
622	0	33000	32657	37988	
623	0	33001	32647	37978	
624	0	33004	32659	37988	
625	0	33008	32646	37996	
626	0	32996	32647	37979	
627	0	33020	32646	37966	
628	0	33024	32647	37967	
629	0	33025	32646	37959	
630	0	33016	32647	37948	
631	0	33016	32639	37954	
632	0	33012	32630	37959	
633	0	33013	32642	37968	
634	0	33020	32646	37983	
635	0	33024	32647	37951	
636	0	33024	32647	37930	
637	0	33024	32655	37959	
638	0	33016	32647	37982	
639	0	33012	32647	37976	
640	0	33008	32652	37999	
641	0	33010	32647	38002	
642	0	33024	32660	37985	
643	0	33024	32647	37966	
644	0	33016	32647	37948	
645	0	33009	32661	37959	
646	0	33006	32652	37970	
647	0	33002	32647	37980	
648	0	33000	32662	37980	
649	0	32996	32662	37971	
650	0	32984	32669	37990	
651	0	32988	32662	37986	
652	0	32996	32671	37984	
653	0	33004	32658	37970	
654	0	32989	32655	37974	
655	0	32992	32664	37957	
656	0	32996	32668	37957	
657	0	33002	32647	37981	
658	0	33012	32642	37959	
659	0	33008	32646	37974	
660	0	33010	32647	37977	
661	0	33016	32647	37954	
662	0	33012	32647	37955	
663	0	33010	32647	37948	
664	0	33000	32655	37931	
665	0	33008	32641	37947	
666	0	33000	32643	37949	
667	0	33002	32631	37950	
668	0	33008	32633	37959	
669	0	33008	32639	37942	
670	0	33016	32639	37946	
671	0	33008	32647	37978	
672	0	33024	32637	37983	
673	0	33024	32638	37966	
674	0	33031	32636	37959	
675	0	33020	32647	37974	
676	0	33016	32647	37990	
677	0	33018	32656	37974	
678	0	33022	32647	37951	
679	0	33020	32647	37967	
680	0	33012	32647	37943	
681	0	33017	32640	37935	
682	0	33016	32652	37935	
683	0	33018	32647	37941	
684	0	33008	32640	37959	
685	0	33010	32647	37976	
686	0	33024	32646	37974	
687	0	33018	32655	37979	
688	0	33028	32641	37958	
689	0	33008	32647	37970	
690	0	33010	32658	37969	
691	0	33010	32653	37965	
692	0	32998	32658	37970	
693	0	33002	32644	37975	
694	0	33020	32639	37972	
695	0	33029	32634	37995	
696	0	33020	32647	37970	
697	0	33011	32644	37957	
698	0	33016	32647	37968	
699	0	33022	32643	37996	
700	0	33020	32647	37999	
701	0	32996	32657	37995	
702	0	32998	32654	37981	
703	0	33008	32637	37975	
704	0	33019	32642	37989	
705	0	33012	32647	37975	
706	0	33004	32647	37979	
707	0	33006	32663	37972	
708	0	33013	32666	37974	
709	0	33008	32660	37983	
710	0	33016	32662	37966	
711	0	33004	32667	37956	
712	0	33012	32663	37959	
713	0	33012	32662	37967	
714	0	33026	32662	37982	
715	0	33022	32662	37977	
716	0	33013	32667	37944	
717	0	33016	32656	37949	
718	0	33008	32669	37959	
719	0	33000	32674	37971	
720	0	33004	32671	37954	
721	0	33008	32671	37946	
722	0	33012	32660	37943	
723	0	33010	32666	37967	
724	0	33018	32669	37966	
725	0	33022	32663	37966	
726	0	33033	32658	37975	
727	0	33026	32647	37974	
728	0	33010	32647	37983	
729	0	33010	32647	38004	
730	0	33010	32661	37994	
731	0	33010	32647	37999	
732	0	33001	32647	37990	
733	0	33000	32662	37967	
734	0	33004	32655	37965	
735	0	32997	32663	37948	
736	0	33004	32665	37943	
737	0	32997	32671	37929	
738	0	32996	32677	37952	
739	0	32997	32676	37952	
740	0	32988	32669	37950	
741	0	32990	32647	37970	
742	0	32996	32662	37979	
743	0	33000	32660	37970	
744	0	33000	32653	37959	
745	0	33010	32655	37949	
746	0	33004	32656	37937	
747	0	33014	32653	37950	
748	0	32998	32647	37951	
749	0	33005	32650	37950	
750	0	33016	32647	37945	
751	0	33016	32647	37977	
752	0	33024	32642	37983	
753	0	33026	32662	37967	
754	0	33029	32640	37959	
755	0	33024	32647	37959	
756	0	33004	32663	37983	
757	0	33010	32647	37983	
758	0	33005	32647	37989	
759	0	33008	32646	37969	
760	0	32996	32658	37952	
761	0	32996	32642	37954	
762	0	33018	32640	37959	
763	0	33018	32643	37970	
764	0	33008	32639	37975	
765	0	33012	32639	37966	
766	0	33006	32647	37972	
767	0	32996	32658	37979	
768	0	32996	32653	37981	
769	0	33004	32642	37995	
770	0	32997	32662	37974	
771	0	32992	32660	37984	
772	0	32992	32659	37974	
773	0	33001	32647	37970	
774	0	33000	32647	37975	
775	0	32997	32659	37983	
776	0	32992	32668	37982	
777	0	32999	32666	37990	
778	0	32992	32671	37975	
779	0	32997	32660	37959	
780	0	33000	32662	37970	
781	0	33002	32662	37952	
782	0	33008	32639	37949	
783	0	33003	32638	37934	
784	0	33005	32646	37940	
785	0	33004	32647	37953	
786	0	33001	32630	37956	
787	0	33008	32634	37974	
788	0	32996	32647	37959	
789	0	33000	32647	37946	
790	0	32998	32639	37956	
791	0	33008	32647	37957	
792	0	33012	32647	37949	
793	0	33008	32641	37957	
794	0	33004	32646	37981	
795	0	33008	32631	37957	
796	0	33020	32635	37975	
797	0	33008	32635	37958	
798	0	33016	32631	37940	
799	0	33026	32631	37943	
800	0	33032	32647	37954	
801	0	33024	32655	37953	
802	0	33024	32647	37942	
803	0	33020	32647	37940	
804	0	33017	32644	37975	
805	0	33016	32639	37959	
806	0	32996	32655	37948	
807	0	33008	32656	37935	
808	0	33002	32668	37941	
809	0	32998	32669	37927	
810	0	33008	32674	37942	
811	0	33008	32664	37959	
812	0	32997	32671	37969	
813	0	33007	32658	37956	
814	0	33008	32647	37968	
815	0	33010	32658	37982	
816	0	33034	32636	37991	
817	0	33024	32619	37965	
818	0	33017	32631	37988	
819	0	33020	32647	37992	
820	0	33024	32643	37978	
821	0	33020	32644	37978	
822	0	33010	32642	37972	
823	0	33004	32647	37969	
824	0	33006	32647	37965	
825	0	32997	32647	37947	
826	0	33004	32646	37958	
827	0	33012	32636	37943	
828	0	33000	32644	37951	
829	0	32984	32647	37959	
830	0	33000	32647	37959	
831	0	32996	32647	37969	
832	0	33012	32646	37974	
833	0	33000	32658	37984	
834	0	33008	32660	37975	
835	0	32996	32660	37954	
836	0	32998	32659	37940	
837	0	33012	32647	37937	
838	0	33016	32667	37946	
839	0	33004	32662	37979	
840	0	33008	32662	37968	
841	0	33008	32660	37982	
842	0	33012	32671	38003	
843	0	33020	32654	37993	
844	0	33024	32647	37986	
845	0	33031	32646	37955	
846	0	33044	32647	37941	
847	0	33024	32647	37947	
848	0	33024	32647	37953	
849	0	33008	32659	37945	
850	0	32980	32663	37955	
851	0	32992	32654	37952	
852	0	33000	32653	37968	
853	0	33000	32661	37958	
854	0	32996	32663	37974	
855	0	32992	32658	37974	
856	0	33007	32646	37952	
857	0	33004	32647	37971	
858	0	33000	32647	37952	
859	0	33008	32641	37959	
860	0	33002	32658	37984	
861	0	33004	32647	37987	
862	0	33020	32647	37978	
863	0	33012	32643	37964	
864	0	33016	32646	37956	
865	0	33012	32647	37967	
866	0	33014	32647	37971	
867	0	33016	32647	37952	
868	0	33028	32634	37945	
869	0	33014	32647	37932	
870	0	33012	32642	37948	
871	0	33020	32647	37959	
872	0	33027	32647	37991	
873	0	33016	32647	37966	
874	0	33014	32647	37959	
875	0	33002	32646	37967	
876	0	32992	32653	37956	
877	0	33000	32663	37951	
878	0	33012	32647	37952	
879	0	33016	32659	37949	
880	0	33016	32667	37963	
881	0	33016	32663	37975	
882	0	33014	32658	37980	
883	0	33020	32661	37957	
884	0	33016	32643	37941	
885	0	33008	32644	37944	
886	0	33018	32647	37942	
887	0	33006	32638	37949	
888	0	33004	32647	37951	
889	0	33008	32640	37955	
890	0	33018	32631	37949	
891	0	33014	32636	37959	
892	0	33006	32646	37947	
893	0	33018	32647	37949	
894	0	33016	32645	37959	
895	0	33006	32658	37968	
896	0	33008	32662	37980	
897	0	33000	32662	37972	
898	0	32992	32655	37991	
899	0	33016	32647	37989	
900	0	33016	32644	37956	
901	0	33016	32647	37978	
902	0	33020	32647	37989	
903	0	33028	32642	37956	
904	0	33031	32642	37943	
905	0	33018	32647	37965	
906	0	33008	32642	37949	
907	0	32992	32662	37958	
908	0	33000	32644	37983	
909	0	33004	32634	37983	
910	0	32997	32642	37966	
911	0	33004	32654	37964	
912	0	33020	32647	37967	
913	0	33018	32634	37965	
914	0	33030	32639	37959	
915	0	33016	32631	37963	
916	0	33004	32639	37963	
917	0	32992	32643	37959	
918	0	32988	32647	37964	
919	0	33000	32644	37959	
920	0	33016	32647	37959	
921	0	33000	32647	37970	
922	0	32996	32646	37964	
923	0	32992	32645	37962	
924	0	33001	32658	37946	
925	0	33004	32647	37950	
926	0	33016	32646	37956	
927	0	33005	32647	37944	
928	0	32996	32660	37959	
929	0	33016	32643	37966	
930	0	33001	32662	37972	
931	0	32986	32674	37974	
932	0	32996	32659	37975	
933	0	32999	32669	37950	
934	0	33008	32647	37967	
935	0	33008	32647	37982	
936	0	33000	32654	37993	
937	0	33016	32647	37988	
938	0	33000	32647	37981	
939	0	33006	32658	37972	
940	0	33006	32647	37972	
941	0	33010	32647	37964	
942	0	32997	32639	37940	
943	0	32997	32647	37964	
944	0	32995	32639	37959	
945	0	33008	32641	37959	
946	0	33000	32658	37940	
947	0	32992	32643	37964	
948	0	33010	32645	37945	
949	0	33010	32644	37935	
950	0	33022	32638	37959	
951	0	33016	32647	37954	
952	0	33024	32646	37959	
953	0	33018	32647	37963	
954	0	33012	32663	37970	
955	0	33000	32658	37959	
956	0	33018	32655	37975	
957	0	33028	32647	37971	
958	0	33008	32647	37953	
959	0	33004	32647	37958	
960	0	33008	32647	37950	
961	0	33012	32634	37953	
962	0	32996	32640	37970	
963	0	33030	32636	37974	
964	0	33028	32639	37974	
965	0	33012	32647	37967	
966	0	33034	32647	37939	
967	0	33030	32660	37941	
968	0	33028	32655	37938	
969	0	33012	32645	37938	
970	0	33018	32636	37966	
971	0	33012	32629	37968	
972	0	33022	32635	37959	
973	0	33020	32647	37958	
974	0	33014	32655	37967	
975	0	33012	32647	37964	
976	0	33008	32647	37980	
977	0	33008	32647	37974	
978	0	33010	32647	37968	
979	0	33008	32647	37983	
980	0	33024	32642	37974	
981	0	33028	32639	37978	
982	0	33016	32647	37984	
983	0	33020	32647	37991	
984	0	33030	32643	37959	
985	0	33024	32647	37943	
986	0	33012	32654	37940	
987	0	33016	32647	37948	
988	0	33012	32646	37959	
989	0	33016	32667	37968	
990	0	33008	32642	37967	
991	0	33004	32637	37959	
992	0	33000	32647	37976	
993	0	33000	32639	37981	
994	0	33000	32647	37989	
995	0	33006	32639	37980	
996	0	33001	32647	37971	
997	0	33008	32652	37959	
998	0	33012	32646	37965	
999	0	33030	32642	37977	
1000	0	33020	32653	37983	
1001	0	33028	32663	37959	
1002	0	33020	32663	37972	
1003	0	33007	32674	37965	
1004	0	33016	32658	37963	
1005	0	33019	32660	37958	
1006	0	33014	32670	37973	
1007	0	33016	32663	37991	
1008	0	33020	32660	37983	
1009	0	33026	32647	37979	
1010	0	33026	32653	37959	
1011	0	33025	32647	37965	
1012	0	33018	32658	37967	
1013	0	33020	32644	37956	
1014	0	33016	32639	37959	
1015	0	33028	32631	37949	
1016	0	33032	32643	37959	
1017	0	33036	32647	37956	
1018	0	33028	32639	37948	
1019	0	33026	32639	37955	
1020	0	33012	32647	37944	
1021	0	33008	32647	37947	
1022	0	33013	32631	37955	
1023	0	33005	32641	37948	
1024	0	33012	32646	37947	
1025	0	33012	32631	37941	
1026	0	33014	32644	37934	
1027	0	33020	32637	37937	
1028	0	33024	32630	37937	
1029	0	33028	32628	37927	
1030	0	33033	32647	37935	
1031	0	33008	32647	37932	
1032	0	33012	32658	37965	
1033	0	33008	32643	37959	
1034	0	32997	32658	37968	
1035	0	32996	32663	37995	
1036	0	33004	32647	37959	
1037	0	32996	32657	37955	
1038	0	33012	32664	37946	
1039	0	33004	32674	37951	
1040	0	33002	32665	37957	
1041	0	33006	32675	37950	
1042	0	33000	32662	37959	
1043	0	33004	32656	37959	
1044	0	33008	32660	37954	
1045	0	33012	32658	37955	
1046	0	32992	32666	37949	
1047	0	32996	32668	37971	
1048	0	32978	32674	37944	
1049	0	32992	32667	37954	
1050	0	32992	32675	37946	
1051	0	33000	32657	37947	
1052	0	32996	32663	37970	
1053	0	33000	32647	37969	
1054	0	32992	32644	37968	
1055	0	32996	32647	37972	
1056	0	33001	32658	37951	
1057	0	32996	32647	37948	
1058	0	32996	32647	37959	
1059	0	33006	32644	37959	
1060	0	33012	32646	37974	
1061	0	33016	32655	37966	
1062	0	33010	32659	37952	
1063	0	33008	32663	37954	
1064	0	33012	32668	37941	
1065	0	33004	32671	37945	
1066	0	33016	32666	37958	
1067	0	33018	32660	37949	
1068	0	33016	32647	37959	
1069	0	33008	32658	37967	
1070	0	32997	32647	37959	
1071	0	33004	32647	37965	
1072	0	33026	32644	37977	
1073	0	33006	32647	37952	
1074	0	32996	32647	37935	
1075	0	32988	32634	37959	
1076	0	32996	32639	37959	
1077	0	33004	32629	37959	
1078	0	33010	32639	37970	
1079	0	33044	32637	37986	
1080	0	33032	32630	37963	
1081	0	33014	32647	37955	
1082	0	33000	32647	37954	
1083	0	32994	32658	37947	
1084	0	33000	32663	37969	
1085	0	33012	32662	37988	
1086	0	33018	32660	37983	
1087	0	33018	32642	37983	
1088	0	33020	32640	37982	
1089	0	33024	32646	37980	
1090	0	33024	32646	37990	
1091	0	33028	32643	37961	
1092	0	33036	32642	37956	
1093	0	33042	32631	37948	
1094	0	33032	32621	37959	
1095	0	33020	32630	37968	
1096	0	33020	32642	37990	
1097	0	33008	32644	37975	
1098	0	33004	32647	37971	
1099	0	32998	32647	37968	
1100	0	32986	32660	37959	
1101	0	32996	32642	37951	
1102	0	33001	32640	37959	
1103	0	33014	32647	37965	
1104	0	33010	32665	37968	
1105	0	33008	32647	37959	
1106	0	33016	32658	37962	
1107	0	33020	32647	37983	
1108	0	33024	32632	37972	
1109	0	33012	32643	37966	
1110	0	33016	32663	37960	
1111	0	33009	32667	37996	
1112	0	33024	32665	37972	
1113	0	33028	32647	37980	
1114	0	33029	32647	37957	
1115	0	33018	32644	37944	
1116	0	33021	32647	37959	
1117	0	33005	32647	37962	
1118	0	33012	32647	37983	
1119	0	33016	32647	37986	
1120	0	33008	32655	37956	
1121	0	33007	32658	37972	
1122	0	33008	32662	37959	
1123	0	33014	32639	37954	
1124	0	33016	32647	37945	
1125	0	33004	32661	37948	
1126	0	33012	32658	37959	
1127	0	33014	32660	37959	
1128	0	33018	32647	37983	
1129	0	33016	32647	37980	
1130	0	33020	32657	37973	
1131	0	33021	32655	37975	
1132	0	33039	32647	37972	
1133	0	33030	32656	37977	
1134	0	33036	32654	37946	
1135	0	33025	32647	37949	
1136	0	33020	32647	37985	
1137	0	33033	32630	37974	
1138	0	33017	32637	37975	
1139	0	33024	32639	37985	
1140	0	33024	32645	37984	
1141	0	33024	32634	37970	
1142	0	33024	32641	37974	
1143	0	33024	32647	37975	
1144	0	33016	32647	37950	
1145	0	33012	32647	37964	
1146	0	33012	32647	37959	
1147	0	33026	32638	37962	
1148	0	33024	32638	37953	
1149	0	33024	32637	37959	
1150	0	33012	32663	37970	
1151	0	33002	32662	37959	
1152	0	32996	32658	37959	
1153	0	33011	32653	37970	
1154	0	33022	32654	37954	
1155	0	33012	32666	37933	
1156	0	33014	32644	37952	
1157	0	33008	32647	37957	
1158	0	33018	32635	37957	
1159	0	33008	32642	37946	
1160	0	33008	32642	37959	
1161	0	32998	32647	37966	
1162	0	32988	32646	37958	
1163	0	32992	32647	37964	
1164	0	33000	32647	37966	
1165	0	32998	32647	37976	
1166	0	33008	32655	37974	
1167	0	33012	32664	37980	
1168	0	33024	32661	37976	
1169	0	33036	32647	37952	
1170	0	33032	32658	37972	
1171	0	33040	32647	37954	
1172	0	33020	32660	37958	
1173	0	33008	32665	37968	
1174	0	33010	32666	37964	
1175	0	33013	32662	37959	
1176	0	33017	32646	37975	
1177	0	33020	32645	37970	
1178	0	33028	32647	37967	
1179	0	33018	32652	37955	
1180	0	32997	32663	37956	
1181	0	33008	32663	37990	
1182	0	33006	32658	37969	
1183	0	32994	32647	37973	
1184	0	33008	32647	37954	
1185	0	33016	32647	37938	
1186	0	33012	32647	37968	
1187	0	33020	32654	37971	
1188	0	33012	32659	37983	
1189	0	33004	32662	37971	
1190	0	33016	32642	37974	
1191	0	33017	32643	37988	
1192	0	32992	32659	37949	
1193	0	33008	32647	37956	
1194	0	33016	32640	37947	
1195	0	33020	32647	37949	
1196	0	33012	32658	37942	
1197	0	33015	32647	37952	
1198	0	33020	32657	37972	
1199	0	33014	32660	37964	
1200	0	33029	32652	37959	
1201	0	33012	32665	37990	
1202	0	33001	32659	37994	
1203	0	32997	32658	37996	
1204	0	33000	32659	37979	
1205	0	33016	32655	37995	
1206	0	33024	32655	37999	
1207	0	33027	32644	37998	
1208	0	33031	32654	37981	
1209	0	33024	32643	37972	
1210	0	33024	32655	37959	
1211	0	33024	32656	37947	
1212	0	33016	32663	37951	
1213	0	33010	32647	37944	
1214	0	33008	32647	37935	
1215	0	33024	32638	37935	
1216	0	33022	32657	37935	
1217	0	33020	32658	37942	
1218	0	33020	32643	37954	
1219	0	33028	32634	37968	
1220	0	33010	32645	37988	
1221	0	33028	32629	37968	
1222	0	33010	32647	37966	
1223	0	33000	32658	37984	
1224	0	33008	32647	37959	
1225	0	33010	32658	37970	
1226	0	33016	32659	37974	
1227	0	32999	32682	37951	
1228	0	33006	32663	37974	
1229	0	33004	32647	37968	
1230	0	33012	32656	37985	
1231	0	33004	32666	37975	
1232	0	33012	32647	37986	
1233	0	33013	32647	37976	
1234	0	33022	32647	37979	
1235	0	33016	32647	37991	
1236	0	33008	32645	37988	
1237	0	32998	32635	37986	
1238	0	33006	32642	37991	
1239	0	33010	32642	37998	
1240	0	33024	32631	37984	
1241	0	33026	32645	37959	
1242	0	33020	32647	37972	
1243	0	32996	32647	37988	
1244	0	33008	32647	37972	
1245	0	33014	32646	37975	
1246	0	33000	32647	37959	
1247	0	33023	32647	37944	
1248	0	33016	32639	37966	
1249	0	33021	32642	37956	
1250	0	33020	32631	37938	
1251	0	33010	32632	37932	
1252	0	33020	32634	37933	
1253	0	33013	32647	37928	
1254	0	33018	32639	37953	
1255	0	33010	32647	37968	
1256	0	33010	32644	37975	
1257	0	33020	32637	37959	
1258	0	33016	32646	37947	
1259	0	33018	32643	37943	
1260	0	33008	32647	37953	
1261	0	33016	32656	37964	
1262	0	33024	32642	37974	
1263	0	33018	32639	37988	
1264	0	33028	32633	37983	
1265	0	33016	32637	37986	
1266	0	33010	32646	37959	
1267	0	33004	32647	37968	
1268	0	33012	32661	37970	
1269	0	32996	32647	37980	
1270	0	32997	32647	37989	
1271	0	32992	32660	37966	
1272	0	32997	32647	37951	
1273	0	33008	32646	37938	
1274	0	33004	32647	37927	
1275	0	33014	32645	37937	
1276	0	33026	32647	37943	
1277	0	33016	32642	37965	
1278	0	33012	32646	37945	
1279	0	33013	32642	37949	
1280	0	33004	32655	37940	
1281	0	33004	32654	37948	
1282	0	32997	32647	37954	
1283	0	33001	32647	37974	
1284	0	33004	32647	37969	
1285	0	33008	32646	37967	
1286	0	33007	32647	37956	
1287	0	33018	32647	37928	
1288	0	33020	32642	37942	
1289	0	33016	32660	37961	
1290	0	33024	32646	37959	
1291	0	33012	32647	37974	
1292	0	33010	32647	37964	
1293	0	33024	32647	37959	
1294	0	33018	32647	37956	
1295	0	33010	32644	37946	
1296	0	33008	32647	37951	
1297	0	33002	32647	37959	
1298	0	33004	32647	37959	
1299	0	33012	32647	37989	
1300	0	33004	32647	37964	
1301	0	33004	32646	37970	
1302	0	33012	32662	37955	
1303	0	33024	32647	37959	
1304	0	33020	32647	37967	
1305	0	33024	32647	37953	
1306	0	33024	32647	37959	
1307	0	33020	32647	37943	
1308	0	33016	32634	37942	
1309	0	33021	32627	37941	
1310	0	33028	32639	37947	
1311	0	33036	32628	37959	
1312	0	33028	32641	37950	
1313	0	33026	32646	37958	
1314	0	33017	32646	37950	
1315	0	33014	32657	37968	
1316	0	33004	32656	37972	
1317	0	33016	32667	37981	
1318	0	33032	32647	37992	
1319	0	33016	32663	37983	
1320	0	33026	32658	37983	
1321	0	33016	32669	37983	
1322	0	33020	32671	37993	
1323	0	33018	32660	37983	
1324	0	33016	32654	37959	
1325	0	33012	32655	37938	
1326	0	33020	32647	37948	
1327	0	33030	32647	37936	
1328	0	33041	32647	37947	
1329	0	33018	32656	37932	
1330	0	33040	32644	37949	
1331	0	33026	32663	37926	
1332	0	33010	32657	37933	
1333	0	33007	32655	37948	
1334	0	33024	32644	37931	
1335	0	33021	32636	37940	
1336	0	33016	32647	37966	
1337	0	33028	32647	37985	
1338	0	33030	32647	37999	
1339	0	33012	32656	37997	
1340	0	33012	32647	37989	
1341	0	33004	32659	37975	
1342	0	33008	32662	37959	
1343	0	33004	32663	37959	
1344	0	33014	32647	37971	
1345	0	33004	32647	37967	
1346	0	33016	32647	37990	
1347	0	33008	32656	37999	
1348	0	33012	32647	38011	
1349	0	33018	32647	37990	
1350	0	33008	32655	37989	
1351	0	33000	32658	37966	
1352	0	32996	32647	37965	
1353	0	32992	32661	37976	
1354	0	33004	32661	37981	
1355	0	33012	32647	37968	
1356	0	33018	32654	37959	
1357	0	33012	32647	37955	
1358	0	33022	32647	37956	
1359	0	33017	32647	37974	
1360	0	33004	32655	37990	
1361	0	33000	32669	38016	
1362	0	33008	32667	37985	
1363	0	33022	32665	37976	
1364	0	33000	32679	37959	
1365	0	32992	32679	37970	
1366	0	33000	32658	37991	
1367	0	32992	32663	37991	
1368	0	33000	32647	37988	
1369	0	33000	32647	37991	
1370	0	33000	32663	37984	
1371	0	33008	32660	37972	
1372	0	33014	32658	37954	
1373	0	32996	32668	37951	
1374	0	33012	32658	37937	
1375	0	33012	32666	37940	
1376	0	32996	32664	37943	
1377	0	33000	32654	37959	
1378	0	32992	32647	37960	
1379	0	33004	32647	37975	
1380	0	32992	32647	37957	
1381	0	32996	32647	37951	
1382	0	33000	32640	37952	
1383	0	32988	32657	37928	
1384	0	32992	32656	37940	
1385	0	32989	32663	37946	
1386	0	32982	32678	37970	
1387	0	33012	32658	37959	
1388	0	33012	32668	37959	
1389	0	33016	32657	37947	
1390	0	33008	32647	37935	
1391	0	33014	32647	37941	
1392	0	32998	32647	37959	
1393	0	33005	32642	37948	
1394	0	33008	32639	37950	
1395	0	33008	32642	37956	
1396	0	33028	32639	37970	
1397	0	33016	32634	37972	
1398	0	33036	32634	37959	
1399	0	33020	32631	37942	
1400	0	33028	32639	37937	
1401	0	33024	32633	37951	
1402	0	33012	32647	37954	
1403	0	33012	32641	37981	
1404	0	33016	32645	37959	
1405	0	33012	32647	37959	
1406	0	33013	32669	37958	
1407	0	33018	32658	37951	
1408	0	33014	32657	37953	
1409	0	33016	32659	37935	
1410	0	33000	32658	37944	
1411	0	33004	32659	37958	
1412	0	33002	32658	37960	
1413	0	33000	32647	37973	
1414	0	33000	32643	37972	
1415	0	33008	32639	37975	
1416	0	33008	32639	37970	
1417	0	33004	32647	37983	
1418	0	33004	32645	37977	
1419	0	33006	32642	37968	
1420	0	33008	32647	37964	
1421	0	33000	32647	37963	
1422	0	33012	32640	37955	
1423	0	33012	32647	37941	
1424	0	33010	32647	37952	
1425	0	33020	32647	37963	
1426	0	33010	32666	37964	
1427	0	33016	32669	37970	
1428	0	33012	32669	37971	
1429	0	33018	32662	37974	
1430	0	33000	32668	37949	
1431	0	32992	32663	37956	
1432	0	33006	32654	37952	
1433	0	33004	32655	37974	
1434	0	33018	32647	37978	
1435	0	33004	32659	38011	
1436	0	33000	32663	38002	
1437	0	33001	32670	37991	
1438	0	33004	32671	37980	
1439	0	32999	32654	37998	
1440	0	33004	32647	37974	
1441	0	33004	32658	37975	
1442	0	33006	32663	37991	
1443	0	32993	32658	38004	
1444	0	32996	32657	37971	
1445	0	32994	32659	37951	
1446	0	33007	32669	37959	
1447	0	33010	32662	37983	
1448	0	33008	32669	37990	
1449	0	33016	32657	37987	
1450	0	33024	32647	37989	
1451	0	33018	32647	37975	
1452	0	33010	32660	37974	
1453	0	32996	32678	37988	
1454	0	33000	32679	37969	
1455	0	32998	32673	37973	
1456	0	33004	32681	37978	
1457	0	32988	32679	37980	
1458	0	33008	32675	37974	
1459	0	33028	32667	37956	
1460	0	33024	32668	37952	
1461	0	33036	32659	37959	
1462	0	33032	32655	37938	
1463	0	33024	32655	37937	
1464	0	33014	32656	37949	
1465	0	33004	32655	37972	
1466	0	33004	32654	37979	
1467	0	33005	32647	37973	
1468	0	33004	32656	37972	
1469	0	33008	32656	37990	
1470	0	33008	32659	37982	
1471	0	33000	32655	37980	
1472	0	33008	32655	37991	
1473	0	33020	32647	37975	
1474	0	33016	32647	37970	
1475	0	33010	32647	37953	
1476	0	33006	32647	37958	
1477	0	32996	32671	37945	
1478	0	33004	32662	37959	
1479	0	33010	32662	37943	
1480	0	33012	32647	37949	
1481	0	33020	32661	37970	
1482	0	33016	32660	37964	
1483	0	33031	32652	37978	
1484	0	33028	32647	37990	
1485	0	33032	32659	37966	
1486	0	33021	32646	37959	
1487	0	33021	32647	37968	
1488	0	33012	32644	37959	
1489	0	33004	32655	37956	
1490	0	33008	32645	37965	
1491	0	33004	32647	37967	
1492	0	33012	32653	37947	
1493	0	33014	32662	37953	
1494	0	33017	32655	37959	
1495	0	33020	32647	37956	
1496	0	33020	32647	37947	
1497	0	33015	32647	37940	
1498	0	33032	32647	37941	
1499	0	33016	32655	37941	
1500	0	33004	32642	37926	
1501	0	33013	32641	37933	
1502	0	33005	32643	37952	
1503	0	33004	32655	37956	
1504	0	33022	32637	37970	
1505	0	33016	32641	37959	
1506	0	33004	32658	37970	
1507	0	33000	32647	37970	
1508	0	32996	32658	37976	
1509	0	32996	32642	37959	
1510	0	33012	32647	37978	
1511	0	33004	32647	37990	
1512	0	33020	32639	37986	
1513	0	33025	32645	37966	
1514	0	33016	32654	37959	
1515	0	33017	32647	37975	
1516	0	33016	32634	37988	
1517	0	33020	32638	37974	
1518	0	33028	32638	37980	
1519	0	33024	32626	37985	
1520	0	33024	32635	37986	
1521	0	33024	32631	37953	
1522	0	33016	32646	37953	
1523	0	33030	32635	37955	
1524	0	33008	32647	37949	
1525	0	33022	32634	37949	
1526	0	33016	32637	37953	
1527	0	33008	32642	37951	
1528	0	33012	32630	37954	
1529	0	33008	32647	37954	
1530	0	33000	32647	37953	
1531	0	33004	32657	37943	
1532	0	33004	32662	37926	
1533	0	33020	32647	37943	
1534	0	33012	32642	37945	
1535	0	33028	32647	37955	
1536	0	33021	32642	37959	
1537	0	33036	32647	37959	
1538	0	33028	32647	37952	
1539	0	33020	32647	37946	
1540	0	33004	32657	37957	
1541	0	33000	32671	37986	
1542	0	32996	32658	37972	
1543	0	33000	32660	37977	
1544	0	33012	32647	37959	
1545	0	33006	32639	37965	
1546	0	33001	32647	37959	
1547	0	33012	32638	37936	
1548	0	33008	32647	37946	
1549	0	33012	32657	37932	
1550	0	33004	32655	37959	
1551	0	33008	32657	37988	
1552	0	33016	32646	37974	
1553	0	33004	32647	37972	
1554	0	33004	32656	37995	
1555	0	33000	32654	37978	
1556	0	32996	32663	37975	
1557	0	33006	32663	37946	
1558	0	32996	32658	37967	
1559	0	33006	32647	37988	
1560	0	33016	32647	37981	
1561	0	32996	32658	37991	
1562	0	33000	32665	37984	
1563	0	33010	32644	37974	
1564	0	33004	32645	37951	
1565	0	33005	32658	37948	
1566	0	32992	32665	37938	
1567	0	33008	32647	37944	
1568	0	33004	32640	37955	
1569	0	33016	32647	37959	
1570	0	33020	32645	37971	
1571	0	33016	32642	37959	
1572	0	33008	32644	37959	
1573	0	33004	32642	37935	
1574	0	32997	32646	37942	
1575	0	32996	32659	37942	
1576	0	33008	32654	37947	
1577	0	33014	32647	37959	
1578	0	33017	32647	37965	
1579	0	33016	32668	37959	
1580	0	33004	32671	37948	
1581	0	33012	32658	37943	
1582	0	33008	32671	37959	
1583	0	33010	32672	37946	
1584	0	33012	32666	37954	
1585	0	33018	32656	37967	
1586	0	33019	32647	37959	
1587	0	33018	32646	37937	
1588	0	33008	32647	37956	
1589	0	33008	32647	37959	
1590	0	33034	32634	37949	
1591	0	33028	32644	37939	
1592	0	33024	32644	37933	
1593	0	33024	32656	37935	
1594	0	33012	32658	37959	
1595	0	33026	32660	37977	
1596	0	33024	32647	37990	
1597	0	33028	32639	37959	
1598	0	33020	32662	37959	
1599	0	33010	32658	37945	
1600	0	33009	32663	37958	
1601	0	33028	32642	37973	
1602	0	33030	32646	37968	
1603	0	33031	32644	37980	
1604	0	33025	32645	37986	
1605	0	33021	32655	37970	
1606	0	33036	32647	37967	
1607	0	33035	32647	37975	
1608	0	33028	32662	37958	
1609	0	33028	32647	37944	
1610	0	33024	32642	37952	
1611	0	33032	32642	37950	
1612	0	33028	32647	37947	
1613	0	33028	32640	37941	
1614	0	33024	32645	37941	
1615	0	33020	32647	37947	
1616	0	33018	32637	37947	
1617	0	33018	32636	37953	
1618	0	33004	32654	37956	
1619	0	33016	32660	37982	
1620	0	33020	32659	37959	
1621	0	33024	32653	37980	
1622	0	33001	32675	37966	
1623	0	32992	32674	37970	
1624	0	33008	32669	37991	
1625	0	33014	32647	37978	
1626	0	33013	32658	37968	
1627	0	33013	32665	37990	
1628	0	33028	32647	38000	
1629	0	33028	32660	38006	
1630	0	33012	32660	37997	
1631	0	33028	32645	37988	
1632	0	33024	32647	37958	
1633	0	33028	32647	37952	
1634	0	33032	32658	37970	
1635	0	33016	32663	37983	
1636	0	33012	32668	37991	
1637	0	33018	32663	37986	
1638	0	33013	32663	37988	
1639	0	33018	32647	37986	
1640	0	33014	32647	38005	
1641	0	33012	32647	37978	
1642	0	33012	32658	37980	
1643	0	33014	32655	37971	
1644	0	33012	32647	37972	
1645	0	33012	32655	37983	
1646	0	33012	32647	37957	
1647	0	33012	32660	37968	
1648	0	33024	32641	37958	
1649	0	33028	32646	37957	
1650	0	33012	32647	37952	
1651	0	33012	32639	37946	
1652	0	33012	32645	37959	
1653	0	33006	32647	37967	
1654	0	33006	32647	37974	
1655	0	33004	32647	37970	
1656	0	33001	32656	37990	
1657	0	33006	32647	38000	
1658	0	33018	32632	37999	
1659	0	33009	32647	38006	
1660	0	33016	32638	37996	
1661	0	33016	32637	37991	
1662	0	33007	32641	37978	
1663	0	33004	32654	37957	
1664	0	33018	32647	37972	
1665	0	33012	32647	37974	
1666	0	33005	32647	37959	
1667	0	33008	32655	37946	
1668	0	33004	32647	37928	
1669	0	33010	32658	37936	
1670	0	33028	32666	37940	
1671	0	33010	32647	37938	
1672	0	33034	32646	37948	
1673	0	33024	32634	37946	
1674	0	33020	32629	37959	
1675	0	33008	32639	37955	
1676	0	33010	32642	37967	
1677	0	32996	32645	37980	
1678	0	33012	32642	37955	
1679	0	33008	32646	37943	
1680	0	33016	32646	37951	
1681	0	33012	32640	37934	
1682	0	33004	32647	37926	
1683	0	33004	32647	37947	
1684	0	33008	32647	37940	
1685	0	33004	32655	37933	
1686	0	32984	32669	37916	
1687	0	33008	32647	37942	
1688	0	33004	32662	37945	
1689	0	33020	32659	37959	
1690	0	33012	32645	37981	
1691	0	33008	32647	37981	
1692	0	33012	32637	37970	
1693	0	33014	32658	37983	
1694	0	33004	32662	37977	
1695	0	33004	32647	37981	
1696	0	32984	32656	37970	
1697	0	33000	32657	37981	
1698	0	33005	32647	37964	
1699	0	33014	32661	37964	
1700	0	33020	32647	37959	
1701	0	33010	32634	37972	
1702	0	33016	32629	37970	
1703	0	33024	32624	37959	
1704	0	33024	32640	37967	
1705	0	33018	32647	37967	
1706	0	33012	32655	37946	
1707	0	33016	32647	37927	
1708	0	33008	32645	37915	
1709	0	33004	32634	37941	
1710	0	33017	32633	37929	
1711	0	33024	32647	37959	
1712	0	33028	32647	37972	
1713	0	33035	32631	37974	
1714	0	33024	32646	37979	
1715	0	33016	32644	37976	
1716	0	33010	32647	37987	
1717	0	33004	32647	37977	
1718	0	33008	32647	37967	
1719	0	33020	32647	37959	
1720	0	33016	32647	37977	
1721	0	33028	32647	37967	
1722	0	33018	32655	37959	
1723	0	33010	32658	37972	
1724	0	33018	32657	37943	
1725	0	33020	32647	37958	
1726	0	33012	32655	37943	
1727	0	33018	32666	37941	
1728	0	33033	32647	37954	
1729	0	33024	32644	37943	
1730	0	33010	32641	37954	
1731	0	33008	32644	37988	
1732	0	32992	32655	37997	
1733	0	33000	32647	37982	
1734	0	33016	32647	37998	
1735	0	33014	32637	37976	
1736	0	33020	32642	37985	
1737	0	33020	32646	37978	
1738	0	33020	32647	37996	
1739	0	33016	32647	37967	
1740	0	33016	32647	37959	
1741	0	33018	32647	37948	
1742	0	33006	32647	37949	
1743	0	33004	32662	37956	
1744	0	33016	32660	37959	
1745	0	33021	32655	37958	
1746	0	33016	32663	37966	
1747	0	33028	32654	37956	
1748	0	33024	32660	37975	
1749	0	33012	32647	37964	
1750	0	33016	32644	37974	
1751	0	33006	32665	37946	
1752	0	33012	32653	37966	
1753	0	33024	32638	37949	
1754	0	33025	32637	37964	
1755	0	33016	32641	37951	
1756	0	33006	32654	37953	
1757	0	32998	32647	37957	
1758	0	33012	32640	37955	
1759	0	33004	32658	37941	
1760	0	33016	32655	37956	
1761	0	33017	32661	37956	
1762	0	33022	32647	37956	
1763	0	33016	32638	37951	
1764	0	33024	32642	37959	
1765	0	33012	32643	37980	
1766	0	33024	32634	37956	
1767	0	33010	32642	37959	
1768	0	33008	32642	37971	
1769	0	33014	32628	37988	
1770	0	33008	32634	37993	
1771	0	33020	32634	37972	
1772	0	33014	32647	37936	
1773	0	33024	32643	37951	
1774	0	33028	32635	37953	
1775	0	33020	32647	37954	
1776	0	33026	32647	37955	
1777	0	33012	32652	37958	
1778	0	33018	32647	37978	
1779	0	33010	32659	37996	
1780	0	33013	32647	37977	
1781	0	33005	32647	37970	
1782	0	33004	32658	37979	
1783	0	33020	32658	37983	
1784	0	33012	32663	37942	
1785	0	33022	32658	37953	
1786	0	33024	32647	37959	
1787	0	33020	32637	37959	
1788	0	33010	32638	37959	
1789	0	32996	32647	37943	
1790	0	33004	32646	37955	
1791	0	33026	32638	37947	
1792	0	33020	32645	37944	
1793	0	33028	32638	37952	
1794	0	33028	32619	37959	
1795	0	33016	32635	37959	
1796	0	33012	32641	37967	
1797	0	33027	32647	37955	
1798	0	33032	32647	37959	
1799	0	33025	32659	37953	
1800	0	33028	32656	37958	
1801	0	33021	32658	37968	
1802	0	33026	32658	37962	
1803	0	33024	32660	37977	
1804	0	33012	32658	37962	
1805	0	33008	32644	37951	
1806	0	33008	32655	37958	
1807	0	33016	32655	37980	
1808	0	33012	32658	37985	
1809	0	33016	32658	37988	
1810	0	33020	32647	37991	
1811	0	33026	32638	37976	
1812	0	33020	32647	37979	
1813	0	33017	32640	37981	
1814	0	33022	32647	37959	
1815	0	33016	32647	37949	
1816	0	33034	32642	37952	
1817	0	33033	32638	37953	
1818	0	33018	32647	37934	
1819	0	33024	32647	37943	
1820	0	33012	32647	37943	
1821	0	33022	32647	37943	
1822	0	33030	32657	37947	
1823	0	33026	32647	37948	
1824	0	33016	32647	37954	
1825	0	33008	32647	37981	
1826	0	33012	32647	37967	
1827	0	33016	32644	37959	
1828	0	33014	32647	37956	
1829	0	33010	32647	37990	
1830	0	33016	32637	37959	
1831	0	33012	32638	37957	
1832	0	33000	32639	37965	
1833	0	33012	32635	37959	
1834	0	33016	32647	37954	
1835	0	33002	32656	37954	
1836	0	33000	32659	37954	
1837	0	33012	32665	37970	
1838	0	33012	32671	37974	
1839	0	33028	32671	37951	
1840	0	33016	32674	37957	
1841	0	33030	32677	37962	
1842	0	33016	32675	37959	
1843	0	33001	32671	37974	
1844	0	33004	32671	37975	
1845	0	33020	32646	37983	
1846	0	33016	32647	37959	
1847	0	33020	32647	37973	
1848	0	33008	32661	37980	
1849	0	32996	32660	37966	
1850	0	33010	32647	37967	
1851	0	33017	32639	37978	
1852	0	33008	32647	37978	
1853	0	33010	32643	37951	
1854	0	33020	32626	37937	
1855	0	33019	32636	37941	
1856	0	33005	32639	37950	
1857	0	33016	32644	37974	
1858	0	33017	32641	37972	
1859	0	33038	32632	37973	
1860	0	33024	32644	37945	
1861	0	33021	32639	37959	
1862	0	33013	32642	37949	
1863	0	33008	32658	37949	
1864	0	33006	32663	37950	
1865	0	33020	32647	37964	
1866	0	33008	32638	37974	
1867	0	33016	32635	37970	
1868	0	33024	32639	37981	
1869	0	33028	32637	37982	
1870	0	33026	32647	37959	
1871	0	33021	32647	37955	
1872	0	33028	32655	37966	
1873	0	33005	32647	37941	
1874	0	33004	32642	37965	
1875	0	33004	32644	37968	
1876	0	32993	32652	37967	
1877	0	32992	32647	37971	
1878	0	33008	32637	37991	
1879	0	33012	32642	37974	
1880	0	33008	32637	37959	
1881	0	33000	32647	37947	
1882	0	33000	32663	37959	
1883	0	33004	32664	37972	
1884	0	33000	32667	37974	
1885	0	33012	32667	37953	
1886	0	33016	32647	37954	
1887	0	33002	32656	37948	
1888	0	33016	32647	37951	
1889	0	33020	32646	37959	
1890	0	33006	32655	37970	
1891	0	33000	32647	37959	
1892	0	33022	32644	37959	
1893	0	33008	32644	37967	
1894	0	33005	32637	37948	
1895	0	33006	32635	37970	
1896	0	33016	32626	37956	
1897	0	33008	32640	37972	
1898	0	33008	32657	37965	
1899	0	33004	32654	37977	
1900	0	33020	32647	37963	
1901	0	33018	32639	37971	
1902	0	33004	32646	37970	
1903	0	33012	32647	37959	
1904	0	33008	32639	37958	
1905	0	32992	32647	37959	
1906	0	32993	32647	37958	
1907	0	33000	32660	37988	
1908	0	33008	32639	37954	
1909	0	33015	32645	37959	
1910	0	33016	32642	37959	
1911	0	33004	32637	37971	
1912	0	33012	32634	37977	
1913	0	33007	32647	37959	
1914	0	33004	32630	37972	
1915	0	33008	32641	37989	
1916	0	33012	32641	37983	
1917	0	33010	32647	37983	
1918	0	33006	32647	37968	
1919	0	33004	32646	37969	
1920	0	33000	32647	37988	
1921	0	33012	32646	37983	
1922	0	33021	32633	37981	
1923	0	33018	32647	37974	
1924	0	33026	32642	37972	
1925	0	33030	32624	37984	
1926	0	33028	32634	37972	
1927	0	33024	32639	37968	
1928	0	33024	32628	37981	
1929	0	33032	32625	37988	
1930	0	33024	32645	37975	
1931	0	33028	32630	37986	
1932	0	33030	32634	37964	
1933	0	33026	32630	37966	
1934	0	33040	32620	37974	
1935	0	33028	32630	37991	
1936	0	33032	32640	37986	
1937	0	33032	32646	37997	
1938	0	33024	32647	37999	
1939	0	33036	32625	37975	
1940	0	33039	32631	37964	
1941	0	33020	32639	37959	
1942	0	33024	32632	37981	
1943	0	33016	32638	37990	
1944	0	33000	32647	37980	
1945	0	33010	32655	37966	
1946	0	33008	32664	37965	
1947	0	33022	32662	37959	
1948	0	33028	32647	37959	
1949	0	33014	32647	37951	
1950	0	32988	32670	37956	
1951	0	32992	32679	37966	
1952	0	32992	32672	37959	
1953	0	33000	32662	37959	
1954	0	33008	32647	37959	
1955	0	33014	32660	37956	
1956	0	33000	32658	37936	
1957	0	32996	32664	37959	
1958	0	33004	32671	37943	
1959	0	33000	32679	37967	
1960	0	33008	32676	37959	
1961	0	33025	32667	37974	
1962	0	33012	32678	37980	
1963	0	33012	32670	37959	
1964	0	32998	32674	37953	
1965	0	33000	32658	37964	
1966	0	33004	32659	37970	
1967	0	32998	32666	37991	
1968	0	33006	32663	37959	
1969	0	33006	32655	37945	
1970	0	33010	32665	37959	
1971	0	33010	32679	37956	
1972	0	33007	32666	37979	
1973	0	33006	32663	37985	
1974	0	33018	32647	37967	
1975	0	33024	32647	37949	
1976	0	33024	32660	37956	
1977	0	33016	32662	37959	
1978	0	33030	32658	37959	
1979	0	33022	32670	37932	
1980	0	33022	32670	37927	
1981	0	33016	32671	37923	
1982	0	33010	32663	37962	
1983	0	33006	32666	37968	
1984	0	33008	32658	37978	
1985	0	33018	32640	37950	
1986	0	33024	32655	37939	
1987	0	33016	32658	37959	
1988	0	33023	32647	37959	
1989	0	33024	32647	37971	
1990	0	33012	32647	38002	
1991	0	33020	32638	37986	
1992	0	33024	32644	37983	
1993	0	33028	32647	37990	
1994	0	33032	32647	37990	
1995	0	33040	32647	37962	
1996	0	33042	32647	37972	
1997	0	33037	32647	37965	
1998	0	33026	32662	37963	
1999	0	33024	32658	37971	
2000	0	33010	32663	37990	
2001	0	33024	32647	37991	
2002	0	33016	32646	38005	
2003	0	33012	32647	37990	
2004	0	33010	32642	37986	
2005	0	33016	32647	37959	
2006	0	33018	32642	37991	
2007	0	33004	32647	37979	
2008	0	32997	32647	37965	
2009	0	33013	32632	37953	
2010	0	33026	32638	37958	
2011	0	33016	32647	37970	
2012	0	33030	32646	37971	
2013	0	33028	32642	37994	
2014	0	33036	32634	37979	
2015	0	33014	32647	37959	
2016	0	33004	32667	37959	
2017	0	33002	32647	37972	
2018	0	33004	32641	38006	
2019	0	33016	32637	37988	
2020	0	33028	32632	37989	
2021	0	33020	32644	37990	
2022	0	33024	32646	37974	
2023	0	33016	32645	37975	
2024	0	33020	32647	37975	
2025	0	33012	32638	37980	
2026	0	33006	32640	37970	
2027	0	33000	32642	37955	
2028	0	33013	32636	37935	
2029	0	33004	32647	37957	
2030	0	33018	32647	37970	
2031	0	33016	32641	37975	
2032	0	33010	32658	37968	
2033	0	33008	32662	37970	
2034	0	33012	32647	37984	
2035	0	33011	32662	37991	
2036	0	33020	32647	37978	
2037	0	33018	32639	37957	
2038	0	33021	32637	37959	
2039	0	33012	32647	37958	
2040	0	33016	32647	37946	
2041	0	33008	32647	37953	
2042	0	33004	32659	37964	
2043	0	33018	32647	37965	
2044	0	33024	32647	37949	
2045	0	33024	32647	37959	
2046	0	33024	32636	37975	
2047	0	33028	32638	37970	
2048	0	33040	32632	37967	
2049	0	33036	32645	37951	
2050	0	33012	32644	37949	
2051	0	33005	32647	37951	
2052	0	32992	32645	37959	
2053	0	33012	32637	37958	
2054	0	32996	32647	37951	
2055	0	33004	32647	37978	
2056	0	33016	32656	37975	
2057	0	33014	32654	37960	
2058	0	33008	32654	37943	
2059	0	33024	32667	37916	
2060	0	33021	32666	37949	
2061	0	33016	32659	37968	
2062	0	33018	32647	37984	
2063	0	33024	32663	37979	
2064	0	33016	32671	37978	
2065	0	33026	32670	37958	
2066	0	33032	32675	37964	
2067	0	33028	32655	37968	
2068	0	33016	32679	37972	
2069	0	33024	32664	37991	
2070	0	33012	32672	37968	
2071	0	33012	32671	37959	
2072	0	32996	32679	37974	
2073	0	32996	32671	37959	
2074	0	33014	32663	37956	
2075	0	33000	32670	37952	
2076	0	33004	32671	37970	
2077	0	33014	32663	37976	
2078	0	33014	32662	37953	
2079	0	33013	32641	37980	
2080	0	33020	32647	37976	
2081	0	33021	32654	37968	
2082	0	33030	32655	37956	
2083	0	33028	32665	37975	
2084	0	33026	32663	37974	
2085	0	33012	32667	37959	
2086	0	33020	32666	37968	
2087	0	33008	32662	37964	
2088	0	33016	32655	37970	
2089	0	33018	32660	37959	
2090	0	33013	32660	37975	
2091	0	33024	32674	37970	
2092	0	33020	32666	37974	
2093	0	33021	32668	37976	
2094	0	33020	32676	37991	
2095	0	33008	32662	37970	
2096	0	33010	32660	37956	
2097	0	33016	32658	37974	
2098	0	33028	32647	37982	
2099	0	33024	32647	37959	
2100	0	33040	32655	37975	
2101	0	33024	32663	37948	
2102	0	33018	32660	37968	
2103	0	33022	32652	37981	
2104	0	33005	32658	37992	
2105	0	33016	32656	37998	
2106	0	33012	32662	38006	
2107	0	33014	32666	37988	
2108	0	33000	32662	37959	
2109	0	32997	32671	37970	
2110	0	33018	32660	37970	
2111	0	33004	32658	37972	
2112	0	33000	32647	37975	
2113	0	33006	32647	37968	
2114	0	33012	32662	37955	
2115	0	33026	32647	37959	
2116	0	33013	32663	37946	
2117	0	33008	32671	37937	
2118	0	33016	32669	37946	
2119	0	33018	32655	37944	
2120	0	33021	32647	37943	
2121	0	33016	32652	37946	
2122	0	33012	32645	37975	
2123	0	33016	32663	37968	
2124	0	33020	32645	37980	
2125	0	33014	32647	37999	
2126	0	33032	32658	37986	
2127	0	33032	32670	37968	
2128	0	33028	32669	37965	
2129	0	33037	32647	37959	
2130	0	33024	32666	37972	
2131	0	33016	32657	37972	
2132	0	33010	32655	37957	
2133	0	33002	32647	37938	
2134	0	33024	32640	37934	
2135	0	33030	32644	37949	
2136	0	33020	32647	37959	
2137	0	33024	32647	37967	
2138	0	33028	32662	37975	
2139	0	33020	32663	37963	
2140	0	33026	32662	37956	
2141	0	33026	32647	37958	
2142	0	33020	32647	37958	
2143	0	33001	32669	37964	
2144	0	33008	32663	37952	
2145	0	33010	32658	37959	
2146	0	33008	32655	37959	
2147	0	33024	32641	37974	
2148	0	33021	32644	37962	
2149	0	33024	32647	37968	
2150	0	33024	32656	37970	
2151	0	33020	32653	37956	
2152	0	33016	32659	37959	
2153	0	33018	32658	37958	
2154	0	33024	32642	37954	
2155	0	33016	32658	37951	
2156	0	33020	32644	37956	
2157	0	33026	32639	37953	
2158	0	33032	32638	37956	
2159	0	33022	32647	37953	
2160	0	33018	32642	37943	
2161	0	33024	32642	37946	
2162	0	33026	32639	37957	
2163	0	33024	32644	37968	
2164	0	33030	32647	37982	
2165	0	33024	32647	37969	
2166	0	33028	32643	37954	
2167	0	33022	32641	37959	
2168	0	33020	32642	37959	
2169	0	33018	32647	37967	
2170	0	33016	32662	37989	
2171	0	33016	32656	37968	
2172	0	33020	32663	37978	
2173	0	33000	32669	37959	
2174	0	33006	32663	37972	
2175	0	33012	32660	37975	
2176	0	33020	32647	37952	
2177	0	33008	32646	37959	
2178	0	32992	32652	37974	
2179	0	33002	32647	37956	
2180	0	33016	32656	37967	
2181	0	33024	32647	37968	
2182	0	33024	32669	37977	
2183	0	33020	32662	37967	
2184	0	33012	32647	37951	
2185	0	33008	32662	37959	
2186	0	33030	32638	37958	
2187	0	33008	32663	37960	
2188	0	33024	32671	37970	
2189	0	33016	32662	37974	
2190	0	33028	32647	37964	
2191	0	33024	32647	37941	
2192	0	33008	32647	37959	
2193	0	33005	32647	37958	
2194	0	33014	32647	37968	
2195	0	33018	32647	37958	
2196	0	33010	32632	37971	
2197	0	33002	32647	37966	
2198	0	32996	32655	37951	
2199	0	33000	32636	37959	
2200	0	33010	32624	37959	
2201	0	33006	32639	37951	
2202	0	33010	32638	37966	
2203	0	33020	32647	37992	
2204	0	33020	32638	37967	
2205	0	33020	32637	37957	
2206	0	33024	32631	37958	
2207	0	33024	32638	37959	
2208	0	33020	32631	37944	
2209	0	33016	32634	37951	
2210	0	33012	32639	37949	
2211	0	33028	32631	37938	
2212	0	33028	32626	37935	
2213	0	33022	32630	37948	
2214	0	33018	32630	37938	
2215	0	33008	32639	37959	
2216	0	33008	32647	37974	
2217	0	33018	32643	37954	
2218	0	33012	32647	37962	
2219	0	33001	32656	37975	
2220	0	33009	32647	37976	
2221	0	33001	32658	37974	
2222	0	33000	32655	37970	
2223	0	33022	32639	37980	
2224	0	33016	32642	37970	
2225	0	33014	32641	37972	
2226	0	33008	32644	37974	
2227	0	33008	32647	37987	
2228	0	33016	32647	37959	
2229	0	33012	32647	37955	
2230	0	33010	32644	37959	
2231	0	32999	32647	37968	
2232	0	33008	32658	37977	
2233	0	33034	32638	37971	
2234	0	33024	32642	37975	
2235	0	33024	32643	37943	
2236	0	33025	32647	37946	
2237	0	33018	32647	37964	
2238	0	33021	32658	37961	
2239	0	33021	32661	37954	
2240	0	33022	32656	37973	
2241	0	33030	32663	37988	
2242	0	33021	32674	37998	
2243	0	33020	32660	37986	
2244	0	33047	32647	37965	
2245	0	33020	32663	37953	
2246	0	33024	32671	37960	
2247	0	33016	32662	37959	
2248	0	33000	32669	37955	
2249	0	33000	32679	37955	
2250	0	32997	32679	37974	
2251	0	33008	32683	37999	
2252	0	33017	32679	37990	
2253	0	33040	32671	37967	
2254	0	33029	32669	37951	
2255	0	33018	32674	37974	
2256	0	33010	32662	37954	
2257	0	33014	32676	37959	
2258	0	33016	32676	37964	
2259	0	33000	32681	37975	
2260	0	33016	32679	37981	
2261	0	33012	32671	37980	
2262	0	33018	32679	37972	
2263	0	33016	32668	37959	
2264	0	33016	32672	37958	
2265	0	33016	32667	37976	
2266	0	33000	32683	37963	
2267	0	32999	32663	37974	
2268	0	33016	32675	37976	
2269	0	33024	32672	37977	
2270	0	33020	32669	37971	
2271	0	33020	32669	37959	
2272	0	33018	32679	37958	
2273	0	33024	32668	37958	
2274	0	33001	32673	37959	
2275	0	33006	32676	37968	
2276	0	33012	32675	37967	
2277	0	33020	32666	37954	
2278	0	33016	32669	37964	
2279	0	33039	32672	37938	
2280	0	33026	32676	37975	
2281	0	33018	32678	37970	
2282	0	33010	32676	37967	
2283	0	33024	32663	37963	
2284	0	33016	32657	37968	
2285	0	33029	32656	37969	
2286	0	33025	32656	37982	
2287	0	33036	32647	37970	
2288	0	33036	32646	37953	
2289	0	33038	32646	37940	
2290	0	33040	32647	37956	
2291	0	33031	32647	37955	
2292	0	33038	32636	37959	
2293	0	33030	32638	37972	
2294	0	33036	32647	37974	
2295	0	33030	32655	37968	
2296	0	33016	32647	37981	
2297	0	33032	32647	37981	
2298	0	33028	32642	37983	
2299	0	33030	32647	37959	
2300	0	33034	32647	37968	
2301	0	33034	32625	37967	
2302	0	33030	32631	37972	
2303	0	33028	32627	37981	
2304	0	33020	32630	37988	
2305	0	33016	32623	37981	
2306	0	33024	32637	37968	
2307	0	33024	32635	37951	
2308	0	33026	32638	37940	
2309	0	33030	32636	37942	
2310	0	33014	32638	37955	
2311	0	33012	32639	37956	
2312	0	33010	32632	37980	
2313	0	33012	32646	37972	
2314	0	33016	32647	37990	
2315	0	33014	32647	37986	
2316	0	33016	32655	37978	
2317	0	33004	32647	37974	
2318	0	33010	32647	37981	
2319	0	33030	32647	37983	
2320	0	33016	32640	37978	
2321	0	33014	32646	37975	
2322	0	33012	32644	37971	
2323	0	33002	32647	37958	
2324	0	33010	32640	37959	
2325	0	33012	32644	37932	
2326	0	33018	32659	37920	
2327	0	33020	32663	37912	
2328	0	33018	32665	37943	
2329	0	33016	32650	37956	
2330	0	33025	32639	37954	
2331	0	33024	32642	37972	
2332	0	33032	32619	37980	
2333	0	33020	32618	37998	
2334	0	33021	32631	37996	
2335	0	33024	32630	37967	
2336	0	33025	32626	37959	
2337	0	33008	32631	37983	
2338	0	33004	32637	37975	
2339	0	33008	32644	37966	
2340	0	33016	32646	37963	
2341	0	33014	32647	37959	
2342	0	33008	32666	37984	
2343	0	33021	32647	37979	
2344	0	33020	32647	37968	
2345	0	33016	32640	37978	
2346	0	33020	32645	37959	
2347	0	33026	32652	37944	
2348	0	33021	32647	37927	
2349	0	33017	32652	37935	
2350	0	33030	32637	37949	
2351	0	33038	32647	37967	
2352	0	33024	32644	37972	
2353	0	33016	32647	37964	
2354	0	33016	32647	37972	
2355	0	33012	32647	37959	
2356	0	33016	32642	37983	
2357	0	33004	32647	37966	
2358	0	32996	32647	37976	
2359	0	33000	32661	37990	
2360	0	33025	32647	37999	
2361	0	33032	32647	37979	
2362	0	33020	32647	37968	
2363	0	33024	32642	37982	
2364	0	33022	32644	37975	
2365	0	33024	32639	37988	
2366	0	33026	32633	37983	
2367	0	33020	32646	37973	
2368	0	33024	32647	37958	
2369	0	33022	32636	37959	
2370	0	33018	32647	37966	
2371	0	33030	32643	37957	
2372	0	33029	32666	37959	
2373	0	33028	32674	37970	
2374	0	33026	32661	37960	
2375	0	33020	32658	37959	
2376	0	33010	32662	37956	
2377	0	33012	32660	37959	
2378	0	33016	32663	37981	
2379	0	33006	32665	37981	
2380	0	33012	32667	37968	
2381	0	33036	32656	37954	
2382	0	33031	32653	37939	
2383	0	33026	32649	37950	
2384	0	33024	32663	37951	
2385	0	33028	32662	37959	
2386	0	33024	32663	37959	
2387	0	33037	32662	37983	
2388	0	33040	32647	37968	
2389	0	33033	32662	37968	
2390	0	33028	32653	37975	
2391	0	33024	32647	37978	
2392	0	33016	32655	37958	
2393	0	33018	32647	37967	
2394	0	33030	32647	37962	
2395	0	33030	32647	37951	
2396	0	33036	32661	37970	
2397	0	33036	32647	37980	
2398	0	33024	32653	37957	
2399	0	33020	32660	37951	
2400	0	33026	32675	37953	
2401	0	33014	32679	37958	
2402	0	33016	32672	37968	
2403	0	33024	32673	37959	
2404	0	33030	32647	37978	
2405	0	33032	32642	37991	
2406	0	33016	32647	37979	
2407	0	33028	32647	37967	
2408	0	33024	32662	37958	
2409	0	33017	32647	37946	
2410	0	33024	32647	37943	
2411	0	33032	32647	37937	
2412	0	33032	32640	37952	
2413	0	33024	32647	37959	
2414	0	33018	32659	37970	
2415	0	33028	32661	37975	
2416	0	33020	32664	37968	
2417	0	33031	32664	37983	
2418	0	33028	32667	37959	
2419	0	33012	32670	37971	
2420	0	33025	32671	37975	
2421	0	33036	32647	37959	
2422	0	33020	32654	37990	
2423	0	33028	32647	37995	
2424	0	33032	32647	37990	
2425	0	33020	32647	37999	
2426	0	33030	32639	37982	
2427	0	33039	32647	37974	
2428	0	33036	32653	37959	
2429	0	33024	32661	37945	
2430	0	33021	32663	37956	
2431	0	33020	32663	37945	
2432	0	33004	32666	37959	
2433	0	33010	32666	37954	
2434	0	33021	32663	37964	
2435	0	33020	32663	37969	
2436	0	33021	32663	37978	
2437	0	33028	32658	37975	
2438	0	33020	32655	37987	
2439	0	33006	32677	37972	
2440	0	33000	32685	37967	
2441	0	33004	32665	37967	
2442	0	33012	32645	37954	
2443	0	33012	32647	37959	
2444	0	33012	32661	37974	
2445	0	33020	32647	37959	
2446	0	33008	32662	37971	
2447	0	33008	32658	37979	
2448	0	33004	32658	37980	
2449	0	33008	32660	37986	
2450	0	33008	32647	37991	
2451	0	32996	32665	37981	
2452	0	32997	32655	37967	
2453	0	33004	32647	37977	
2454	0	33020	32647	37971	
2455	0	33012	32663	37959	
2456	0	33012	32665	37974	
2457	0	33016	32656	37977	
2458	0	33000	32647	37983	
2459	0	33012	32659	37968	
2460	0	33016	32669	37972	
2461	0	33014	32677	37959	
2462	0	33002	32662	37970	
2463	0	33000	32666	37974	
2464	0	32996	32661	37969	
2465	0	33017	32647	37959	
2466	0	33004	32662	37969	
2467	0	33004	32662	37971	
2468	0	33008	32663	37988	
2469	0	33012	32647	37990	
2470	0	33028	32647	37979	
2471	0	33016	32647	37997	
2472	0	33032	32647	37975	
2473	0	33017	32644	37970	
2474	0	33010	32647	37956	
2475	0	33012	32647	37948	
2476	0	33020	32647	37939	
2477	0	33016	32663	37946	
2478	0	33021	32647	37958	
2479	0	33024	32655	37959	
2480	0	33032	32647	37975	
2481	0	33032	32647	37963	
2482	0	33028	32647	37983	
2483	0	33016	32663	37968	
2484	0	33016	32667	37969	
2485	0	33008	32663	37972	
2486	0	33000	32647	37974	
2487	0	33008	32666	37966	
2488	0	33008	32659	37983	
2489	0	33012	32657	37991	
2490	0	33021	32663	37965	
2491	0	33012	32672	37976	
2492	0	33021	32667	37956	
2493	0	33020	32659	37952	
2494	0	33024	32658	37936	
2495	0	33016	32647	37934	
2496	0	33016	32642	37929	
2497	0	33012	32655	37959	
2498	0	33021	32644	37959	
2499	0	33024	32635	37974	
2500	0	33018	32647	37995	
2501	0	33010	32656	37990	
2502	0	33026	32647	37993	
2503	0	33021	32644	38002	
2504	0	33024	32647	37996	
2505	0	33020	32662	37968	
2506	0	33024	32647	37984	
2507	0	33034	32642	37993	
2508	0	33040	32635	37986	
2509	0	33036	32635	37959	
2510	0	33008	32647	37964	
2511	0	33014	32653	37974	
2512	0	33020	32670	37968	
2513	0	33010	32652	37970	
2514	0	33012	32629	37983	
2515	0	33016	32639	37978	
2516	0	33014	32632	37947	
2517	0	33024	32638	37957	
2518	0	33024	32639	37955	
2519	0	33024	32639	37927	
2520	0	33016	32647	37933	
2521	0	33016	32643	37926	
2522	0	33016	32647	37959	
2523	0	33020	32644	37965	
2524	0	33040	32638	37970	
2525	0	33040	32639	37977	
2526	0	33042	32642	37959	
2527	0	33032	32641	37959	
2528	0	33024	32647	37948	
2529	0	33024	32658	37943	
2530	0	33030	32642	37956	
2531	0	33025	32642	37959	
2532	0	33040	32637	37986	
2533	0	33032	32637	37994	
2534	0	33024	32639	37977	
2535	0	33024	32639	37990	
2536	0	33033	32647	37989	
2537	0	33028	32647	37974	
2538	0	33024	32646	37968	
2539	0	33031	32636	37984	
2540	0	33024	32646	37964	
2541	0	33016	32647	37980	
2542	0	33008	32647	37979	
2543	0	32999	32647	37980	
2544	0	32997	32669	37970	
2545	0	32996	32662	37955	
2546	0	33000	32655	37952	
2547	0	33010	32647	37977	
2548	0	33006	32655	37968	
2549	0	33027	32647	37959	
2550	0	33033	32655	37954	
2551	0	33035	32647	37959	
2552	0	33028	32644	37981	
2553	0	33016	32647	37978	
2554	0	33020	32647	37974	
2555	0	33004	32669	37972	
2556	0	33022	32662	37998	
2557	0	33022	32674	38003	
2558	0	33032	32667	37984	
2559	0	33024	32664	37989	
2560	0	33014	32676	37979	
2561	0	33012	32674	37962	
2562	0	33018	32676	37968	
2563	0	33012	32654	37945	
2564	0	33010	32658	37945	
2565	0	33016	32666	37965	
2566	0	33021	32655	37970	
2567	0	33016	32663	37977	
2568	0	33010	32647	37992	
2569	0	33018	32658	37972	
2570	0	33026	32647	37974	
2571	0	33042	32647	37982	
2572	0	33026	32658	37992	
2573	0	33032	32647	37982	
2574	0	33014	32655	37966	
2575	0	33030	32658	37956	
2576	0	33020	32671	37946	
2577	0	33018	32662	37959	
2578	0	33000	32667	37970	
2579	0	32992	32674	37979	
2580	0	32996	32676	37984	
2581	0	32996	32677	37984	
2582	0	33010	32655	37980	
2583	0	33006	32662	37981	
2584	0	33016	32670	37981	
2585	0	33010	32655	37983	
2586	0	33026	32655	37972	
2587	0	33026	32664	37963	
2588	0	33016	32664	37976	
2589	0	32996	32647	37974	
2590	0	33007	32647	37975	
2591	0	33012	32655	37959	
2592	0	33008	32655	37961	
2593	0	33016	32660	37975	
2594	0	33020	32657	37980	
2595	0	33032	32647	37988	
2596	0	33022	32645	37982	
2597	0	33021	32647	37989	
2598	0	33014	32663	37993	
2599	0	33018	32660	37991	
2600	0	33016	32663	37974	
2601	0	33019	32652	37968	
2602	0	33020	32646	37964	
2603	0	33022	32640	37980	
2604	0	33024	32643	37972	
2605	0	33024	32647	37974	
2606	0	33016	32645	37956	
2607	0	33020	32641	37952	
2608	0	33026	32654	37955	
2609	0	33006	32662	37942	
2610	0	32986	32668	37956	
2611	0	32996	32663	37948	
2612	0	33020	32659	37941	
2613	0	33020	32647	37954	
2614	0	33028	32647	37955	
2615	0	33014	32662	37953	
2616	0	33012	32658	37931	
2617	0	33014	32662	37959	
2618	0	33021	32647	37959	
2619	0	33016	32647	37974	
2620	0	33024	32647	37967	
2621	0	33028	32646	37962	
2622	0	33030	32647	37950	
2623	0	33008	32647	37949	
2624	0	33013	32647	37941	
2625	0	33014	32655	37956	
2626	0	33006	32647	37959	
2627	0	33008	32655	37980	
2628	0	33008	32654	37986	
2629	0	33006	32654	37974	
2630	0	33012	32655	37966	
2631	0	33016	32655	37959	
2632	0	33012	32667	37959	
2633	0	33020	32655	37960	
2634	0	33020	32647	37984	
2635	0	33024	32639	37980	
2636	0	33033	32647	37968	
2637	0	33024	32639	37951	
2638	0	33036	32639	37956	
2639	0	33026	32647	37959	
2640	0	33030	32647	37954	
2641	0	33032	32644	37956	
2642	0	33032	32638	37959	
2643	0	33020	32635	37981	
2644	0	33032	32621	37967	
2645	0	33031	32630	37974	
2646	0	33028	32642	37971	
2647	0	33021	32641	37968	
2648	0	33030	32636	37951	
2649	0	33020	32642	37959	
2650	0	33020	32646	37967	
2651	0	33018	32646	37959	
2652	0	33017	32646	37957	
2653	0	33022	32656	37964	
2654	0	33004	32662	37970	
2655	0	33012	32658	37980	
2656	0	33016	32655	37983	
2657	0	33014	32660	37972	
2658	0	33010	32660	37970	
2659	0	33016	32647	37975	
2660	0	33010	32654	37948	
2661	0	33023	32655	37949	
2662	0	33012	32647	37959	
2663	0	33016	32662	37956	
2664	0	33038	32647	37946	
2665	0	33032	32647	37946	
2666	0	33032	32658	37957	
2667	0	33028	32647	37959	
2668	0	33024	32640	37950	
2669	0	33012	32647	37959	
2670	0	33019	32661	37962	
2671	0	33016	32647	37987	
2672	0	33006	32647	37970	
2673	0	33014	32647	37986	
2674	0	33021	32647	37958	
2675	0	33020	32647	37959	
2676	0	33024	32647	37962	
2677	0	33028	32647	37970	
2678	0	33030	32644	37974	
2679	0	33026	32638	37981	
2680	0	33032	32662	37966	
2681	0	33044	32656	37964	
2682	0	33042	32661	37981	
2683	0	33040	32660	37986	
2684	0	33028	32666	37991	
2685	0	33020	32654	37976	
2686	0	33012	32668	37970	
2687	0	33004	32667	37991	
2688	0	33008	32674	37984	
2689	0	33004	32662	37959	
2690	0	33016	32658	37956	
2691	0	33000	32669	37952	
2692	0	33010	32660	37959	
2693	0	33008	32655	37981	
2694	0	33020	32662	37959	
2695	0	33016	32657	37966	
2696	0	33023	32659	37966	
2697	0	33016	32647	37962	
2698	0	33001	32646	37975	
2699	0	33022	32646	37984	
2700	0	33008	32647	37999	
2701	0	33014	32647	37999	
2702	0	33018	32655	37962	
2703	0	33024	32647	37946	
2704	0	33024	32639	37957	
2705	0	33024	32637	37974	
2706	0	33026	32647	37967	
2707	0	33012	32645	37996	
2708	0	33010	32658	37999	
2709	0	33010	32647	37986	
2710	0	32997	32647	37973	
2711	0	32994	32663	37970	
2712	0	32997	32674	37949	
2713	0	32996	32658	37944	
2714	0	32996	32647	37947	
2715	0	33001	32647	37926	
2716	0	32997	32658	37927	
2717	0	33024	32647	37940	
2718	0	33022	32656	37924	
2719	0	33029	32643	37949	
2720	0	33026	32633	37959	
2721	0	33020	32647	37965	
2722	0	33020	32647	37974	
2723	0	33028	32658	37966	
2724	0	33034	32647	37956	
2725	0	33018	32639	37970	
2726	0	33028	32639	37948	
2727	0	33022	32647	37959	
2728	0	33016	32659	37946	
2729	0	33020	32647	37967	
2730	0	33034	32644	37975	
2731	0	33018	32647	37951	
2732	0	33021	32652	37939	
2733	0	33024	32647	37948	
2734	0	33024	32653	37956	
2735	0	33024	32647	37959	
2736	0	33038	32669	37959	
2737	0	33032	32647	37950	
2738	0	33026	32647	37968	
2739	0	33020	32655	37978	
2740	0	33028	32642	37950	
2741	0	33016	32642	37994	
2742	0	33017	32655	37987	
2743	0	33008	32644	37978	
2744	0	33008	32647	37967	
2745	0	32996	32656	37977	
2746	0	32996	32670	37956	
2747	0	32996	32679	37949	
2748	0	33024	32666	37935	
2749	0	33020	32669	37943	
2750	0	33020	32672	37959	
2751	0	33024	32673	37980	
2752	0	33028	32661	37975	
2753	0	33012	32659	37993	
2754	0	33014	32669	37998	
2755	0	33012	32662	37974	
2756	0	33021	32658	37969	
2757	0	33026	32660	37959	
2758	0	33013	32658	37959	
2759	0	33000	32669	37958	
2760	0	33008	32667	37956	
2761	0	33012	32663	37959	
2762	0	33018	32647	37967	
2763	0	33024	32647	37963	
2764	0	33026	32658	37959	
2765	0	33026	32647	37968	
2766	0	33030	32662	37941	
2767	0	33044	32647	37938	
2768	0	33041	32660	37958	
2769	0	33030	32653	37969	
2770	0	33035	32645	37959	
2771	0	33002	32662	37945	
2772	0	33000	32659	37958	
2773	0	33024	32671	37964	
2774	0	33018	32667	37974	
2775	0	33020	32663	37959	
2776	0	33032	32665	37950	
2777	0	33030	32663	37954	
2778	0	33040	32661	37951	
2779	0	33044	32658	37966	
2780	0	33036	32663	37954	
2781	0	33040	32663	37955	
2782	0	33036	32660	37964	
2783	0	33028	32658	37966	
2784	0	33024	32667	37968	
2785	0	33032	32671	37966	
2786	0	33028	32671	37974	
2787	0	33032	32660	37980	
2788	0	33038	32660	37973	
2789	0	33040	32657	37968	
2790	0	33032	32659	37971	
2791	0	33026	32673	37964	
2792	0	33018	32668	37959	
2793	0	33026	32666	37959	
2794	0	33032	32654	37966	
2795	0	33022	32646	37959	
2796	0	33020	32645	37968	
2797	0	33030	32623	37997	
2798	0	33021	32626	37988	
2799	0	33037	32617	37977	
2800	0	33042	32624	37983	
2801	0	33044	32626	37984	
2802	0	33031	32638	37963	
2803	0	33032	32642	37967	
2804	0	33035	32634	37972	
2805	0	33020	32637	37951	
2806	0	33026	32634	37956	
2807	0	33030	32628	37958	
2808	0	33026	32626	37967	
2809	0	33046	32627	37959	
2810	0	33042	32638	37943	
2811	0	33052	32638	37959	
2812	0	33056	32626	37968	
2813	0	33046	32638	37980	
2814	0	33030	32644	37979	
2815	0	33020	32647	37952	
2816	0	33021	32647	37957	
2817	0	33030	32646	37968	
2818	0	33024	32647	37959	
2819	0	33016	32647	37973	
2820	0	33000	32647	37989	
2821	0	33002	32658	37976	
2822	0	32997	32669	37973	
2823	0	32999	32662	37956	
2824	0	33012	32668	37949	
2825	0	33020	32656	37953	
2826	0	33012	32663	37940	
2827	0	33026	32660	37947	
2828	0	33032	32647	37956	
2829	0	33032	32646	37970	
2830	0	33026	32662	37953	
2831	0	33014	32674	37989	
2832	0	33021	32660	37980	
2833	0	33024	32647	37956	
2834	0	33010	32647	37944	
2835	0	33004	32665	37953	
2836	0	33012	32654	37945	
2837	0	33018	32645	37974	
2838	0	33010	32654	37974	
2839	0	33020	32671	37950	
2840	0	33017	32658	37930	
2841	0	33028	32647	37937	
2842	0	33028	32656	37948	
2843	0	33032	32646	37958	
2844	0	33016	32642	37948	
2845	0	33016	32658	37972	
2846	0	33000	32657	37984	
2847	0	33008	32663	37970	
2848	0	33014	32647	37948	
2849	0	33012	32658	37951	
2850	0	33026	32647	37935	
2851	0	33012	32659	37924	
2852	0	33016	32647	37959	
2853	0	33016	32660	37967	
2854	0	33030	32647	37952	
2855	0	33008	32660	37974	
2856	0	33010	32663	37967	
2857	0	33014	32658	37952	
2858	0	33018	32646	37953	
2859	0	33026	32658	37939	
2860	0	33031	32656	37953	
2861	0	33021	32656	37959	
2862	0	33028	32647	37963	
2863	0	33016	32646	37983	
2864	0	33016	32647	37989	
2865	0	33018	32647	37991	
2866	0	33016	32647	37986	
2867	0	33020	32663	37967	
2868	0	33025	32667	37959	
2869	0	33040	32658	37959	
2870	0	33016	32658	37970	
2871	0	33028	32655	37964	
2872	0	33038	32653	37970	
2873	0	33024	32647	37959	
2874	0	32997	32667	37948	
2875	0	33008	32664	37954	
2876	0	33005	32671	37959	
2877	0	33014	32647	37951	
2878	0	33008	32658	37947	
2879	0	33028	32638	37968	
2880	0	33026	32647	37948	
2881	0	33024	32647	37951	
2882	0	33018	32660	37961	
2883	0	33024	32654	37968	
2884	0	33020	32655	37978	
2885	0	33020	32663	37985	
2886	0	33037	32647	37954	
2887	0	33036	32634	37951	
2888	0	33028	32647	37940	
2889	0	33040	32642	37928	
2890	0	33020	32647	37959	
2891	0	33012	32647	37970	
2892	0	33016	32670	37966	
2893	0	33021	32668	37968	
2894	0	33018	32679	37975	
2895	0	33018	32668	37990	
2896	0	33012	32683	37996	
2897	0	33010	32676	37980	
2898	0	33021	32679	37983	
2899	0	33008	32678	37979	
2900	0	33016	32677	37967	
2901	0	33018	32665	37977	
2902	0	33008	32669	37966	
2903	0	33030	32668	37951	
2904	0	33008	32674	37964	
2905	0	33004	32671	37970	
2906	0	33014	32672	37968	
2907	0	33008	32679	37959	
2908	0	33020	32668	37948	
2909	0	33025	32669	37956	
2910	0	33030	32666	37986	
2911	0	33024	32679	37971	
2912	0	33012	32678	37968	
2913	0	33002	32689	37940	
2914	0	33000	32683	37946	
2915	0	33016	32668	37939	
2916	0	33026	32665	37962	
2917	0	33028	32665	37964	
2918	0	33028	32671	37976	
2919	0	33039	32658	37971	
2920	0	33036	32647	37967	
2921	0	33036	32647	37976	
2922	0	33032	32647	37954	
2923	0	33048	32647	37954	
2924	0	33032	32678	37974	
2925	0	33026	32685	37986	
2926	0	33020	32682	37953	
2927	0	33030	32668	37945	
2928	0	33021	32672	37959	
2929	0	33026	32663	37955	
2930	0	33042	32665	37959	
2931	0	33048	32647	37980	
2932	0	33045	32647	37971	
2933	0	33040	32642	37981	
2934	0	33040	32642	37982	
2935	0	33032	32647	37967	
2936	0	33040	32647	37959	
2937	0	33032	32654	37959	
2938	0	33037	32658	37964	
2939	0	33028	32657	37959	
2940	0	33024	32647	37974	
2941	0	33028	32647	37974	
2942	0	33018	32655	37952	
2943	0	33028	32663	37958	
2944	0	33032	32647	37951	
2945	0	33020	32658	37977	
2946	0	33039	32665	37981	
2947	0	33040	32658	37959	
2948	0	33033	32652	37956	
2949	0	33020	32646	37954	
2950	0	33018	32662	37962	
2951	0	33026	32652	37974	
2952	0	33044	32647	37964	
2953	0	33030	32671	37939	
2954	0	33028	32667	37936	
2955	0	33022	32671	37966	
2956	0	33024	32662	37958	
2957	0	33034	32647	37936	
2958	0	33018	32643	37959	
2959	0	33014	32632	37955	
2960	0	33028	32646	37941	
2961	0	33021	32645	37951	
2962	0	33036	32634	37958	
2963	0	33028	32645	37933	
2964	0	33024	32643	37943	
2965	0	33008	32647	37928	
2966	0	33010	32647	37959	
2967	0	33000	32658	37958	
2968	0	33020	32643	37970	
2969	0	33026	32647	37978	
2970	0	33020	32652	37959	
2971	0	33026	32658	37968	
2972	0	33024	32658	37970	
2973	0	33010	32674	37991	
2974	0	33013	32674	38007	
2975	0	33018	32660	37998	
2976	0	32999	32667	37990	
2977	0	33000	32662	37975	
2978	0	33012	32662	37974	
2979	0	33008	32655	37974	
2980	0	33004	32655	37976	
2981	0	32992	32662	37978	
2982	0	33002	32647	37957	
2983	0	33001	32647	37959	
2984	0	33000	32673	37972	
2985	0	33024	32658	37967	
2986	0	33030	32642	37969	
2987	0	33038	32639	37959	
2988	0	33040	32644	37981	
2989	0	33044	32639	38006	
2990	0	33036	32645	37990	
2991	0	33032	32646	37972	
2992	0	33032	32647	37981	
2993	0	33031	32647	37976	
2994	0	33040	32629	37981	
2995	0	33028	32643	37959	
2996	0	33036	32635	37959	
2997	0	33020	32639	37954	
2998	0	33021	32647	37968	
2999	0	33016	32658	37966	
3000	0	33020	32669	37961	
3001	0	33010	32664	37966	
3002	0	33024	32658	37976	
3003	0	33017	32657	37951	
3004	0	33012	32641	37958	
3005	0	33028	32637	37937	
3006	0	33016	32647	37947	
3007	0	33036	32644	37957	
3008	0	33024	32647	37959	
3009	0	33032	32647	37959	
3010	0	33024	32647	37988	
3011	0	33036	32642	38001	
3012	0	33016	32667	37996	
3013	0	33010	32668	37979	
3014	0	33004	32670	37958	
3015	0	33012	32674	37966	
3016	0	33024	32674	37970	
3017	0	33020	32663	37956	
3018	0	33028	32647	37948	
3019	0	33016	32647	37959	
3020	0	33020	32658	37976	
3021	0	33008	32671	37991	
3022	0	33020	32658	38008	
3023	0	33028	32652	37995	
3024	0	33021	32661	37978	
3025	0	33028	32647	37988	
3026	0	33032	32647	37976	
3027	0	33024	32647	37970	
3028	0	33016	32663	37974	
3029	0	33024	32659	37998	
3030	0	33024	32647	37986	
3031	0	33016	32659	37991	
3032	0	33020	32636	37981	
3033	0	33026	32637	37994	
3034	0	33032	32644	37982	
3035	0	33036	32646	37986	
3036	0	33036	32646	37965	
3037	0	33024	32640	37968	
3038	0	33007	32657	37971	
3039	0	33012	32645	37971	
3040	0	33013	32647	37978	
3041	0	33016	32647	37996	
3042	0	33012	32655	38004	
3043	0	33010	32646	37974	
3044	0	33021	32647	37970	
3045	0	33014	32659	37979	
3046	0	33017	32647	37979	
3047	0	33020	32644	37972	
3048	0	33020	32644	37966	
3049	0	33012	32657	37940	
3050	0	33016	32659	37947	
3051	0	33016	32658	37973	
3052	0	33020	32662	37959	
3053	0	33016	32663	37965	
3054	0	33008	32667	37968	
3055	0	33020	32655	37956	
3056	0	33010	32663	37940	
3057	0	33014	32668	37950	
3058	0	33008	32668	37946	
3059	0	33024	32658	37949	
3060	0	33014	32666	37957	
3061	0	33020	32663	37964	
3062	0	33008	32654	37971	
3063	0	33012	32654	37974	
3064	0	33016	32639	37990	
3065	0	33020	32647	37996	
3066	0	33027	32644	37983	
3067	0	33020	32647	37959	
3068	0	33012	32652	37952	
3069	0	33020	32658	37956	
3070	0	33018	32659	37959	
3071	0	33012	32647	37980	
3072	0	33016	32647	37979	
3073	0	33012	32656	37991	
3074	0	33020	32658	37970	
3075	0	33020	32658	37972	
3076	0	33028	32647	38003	
3077	0	33032	32640	37991	
3078	0	33036	32647	38008	
3079	0	33040	32655	37975	
3080	0	33044	32647	37974	
3081	0	33034	32640	37958	
3082	0	33040	32640	37934	
3083	0	33044	32646	37958	
3084	0	33020	32647	37934	
3085	0	33016	32647	37944	
3086	0	33019	32655	37943	
3087	0	33028	32647	37946	
3088	0	33040	32639	37949	
3089	0	33040	32642	37946	
3090	0	33040	32661	37938	
3091	0	33049	32656	37939	
3092	0	33044	32654	37950	
3093	0	33042	32656	37958	
3094	0	33040	32665	37983	
3095	0	33040	32660	37983	
3096	0	33036	32669	37970	
3097	0	33040	32671	37970	
3098	0	33038	32666	37974	
3099	0	33024	32679	37975	
3100	0	33026	32674	37979	
3101	0	33008	32671	37959	
3102	0	33018	32662	37952	
3103	0	33023	32658	37959	
3104	0	33028	32658	37959	
3105	0	33020	32660	37970	
3106	0	33020	32663	37959	
3107	0	33010	32669	37971	
3108	0	33024	32662	37959	
3109	0	33034	32646	37939	
3110	0	33044	32647	37959	
3111	0	33044	32647	37975	
3112	0	33045	32656	37982	
3113	0	33037	32655	37986	
3114	0	33040	32662	37988	
3115	0	33026	32658	37997	
3116	0	33026	32661	37969	
3117	0	33016	32655	37972	
3118	0	33024	32647	37959	
3119	0	33028	32639	37966	
3120	0	33030	32647	37966	
3121	0	33031	32647	37968	
3122	0	33032	32645	37970	
3123	0	33028	32640	37958	
3124	0	33028	32643	37975	
3125	0	33040	32640	37956	
3126	0	33030	32647	37955	
3127	0	33020	32647	37958	
3128	0	33032	32639	37959	
3129	0	33024	32635	37958	
3130	0	33040	32634	37967	
3131	0	33020	32643	37999	
3132	0	33020	32647	37976	
3133	0	33012	32642	37982	
3134	0	33006	32663	37974	
3135	0	33009	32667	37968	
3136	0	33020	32647	37947	
3137	0	33040	32661	37948	
3138	0	33026	32670	37959	
3139	0	33024	32664	37942	
3140	0	33018	32672	37930	
3141	0	33018	32657	37971	
3142	0	33008	32659	37967	
3143	0	33016	32660	37975	
3144	0	33024	32647	37977	
3145	0	33024	32647	37955	
3146	0	33030	32636	37951	
3147	0	33026	32639	37959	
3148	0	33040	32628	37959	
3149	0	33034	32633	37946	
3150	0	33033	32647	37958	
3151	0	33039	32646	37943	
3152	0	33024	32661	37951	
3153	0	33024	32667	37943	
3154	0	33020	32678	37954	
3155	0	33028	32666	37941	
3156	0	33024	32655	37959	
3157	0	33029	32647	37959	
3158	0	33036	32640	37974	
3159	0	33040	32635	37970	
3160	0	33045	32628	37989	
3161	0	33032	32631	37975	
3162	0	33040	32642	37974	
3163	0	33024	32645	37971	
3164	0	33037	32647	37959	
3165	0	33042	32647	37959	
3166	0	33012	32658	37959	
3167	0	33008	32664	37954	
3168	0	33020	32663	37942	
3169	0	33032	32663	37985	
3170	0	33010	32666	37972	
3171	0	33010	32663	37974	
3172	0	33021	32660	37975	
3173	0	33020	32655	37974	
3174	0	33028	32658	37962	
3175	0	33028	32658	37964	
3176	0	33034	32658	37984	
3177	0	33042	32642	37973	
3178	0	33032	32643	37975	
3179	0	33028	32647	37959	
3180	0	33024	32647	37948	
3181	0	33016	32647	37967	
3182	0	33028	32647	37967	
3183	0	33018	32655	37997	
3184	0	33020	32647	37974	
3185	0	33028	32647	37959	
3186	0	33020	32646	37954	
3187	0	33024	32662	37954	
3188	0	33030	32665	37958	
3189	0	33026	32664	37959	
3190	0	33006	32668	37958	
3191	0	33008	32658	37954	
3192	0	33026	32659	37948	
3193	0	33032	32657	37954	
3194	0	33030	32647	37926	
3195	0	33021	32658	37943	
3196	0	33018	32659	37969	
3197	0	33024	32663	37951	
3198	0	33021	32666	37960	
3199	0	33021	32658	37974	
3200	0	33024	32645	37993	
3201	0	33030	32656	37974	
3202	0	33028	32658	37959	
3203	0	33016	32663	37968	
3204	0	33026	32662	37959	
3205	0	33021	32669	37943	
3206	0	33028	32669	37957	
3207	0	33030	32665	37950	
3208	0	33024	32647	37937	
3209	0	33024	32653	37949	
3210	0	33028	32663	37949	
3211	0	33024	32671	37942	
3212	0	33034	32647	37943	
3213	0	33028	32658	37959	
3214	0	33024	32660	37959	
3215	0	33024	32655	37952	
3216	0	33028	32644	37958	
3217	0	33024	32647	37978	
3218	0	33020	32647	37956	
3219	0	33016	32647	37977	
3220	0	33012	32659	37996	
3221	0	33016	32657	37995	
3222	0	33014	32663	37979	
3223	0	33014	32662	37983	
3224	0	33028	32647	37970	
3225	0	33032	32647	37964	
3226	0	33024	32647	37968	
3227	0	33020	32643	37957	
3228	0	33034	32644	37970	
3229	0	33032	32631	37988	
3230	0	33028	32634	37965	
3231	0	33034	32633	37951	
3232	0	33024	32639	37955	
3233	0	33016	32646	37951	
3234	0	33024	32647	37959	
3235	0	33020	32658	37959	
3236	0	33016	32658	37980	
3237	0	33032	32658	37988	
3238	0	33044	32661	37991	
3239	0	33052	32655	37996	
3240	0	33032	32655	37990	
3241	0	33016	32662	37975	
3242	0	33034	32637	37959	
3243	0	33026	32646	37959	
3244	0	33030	32647	37974	
3245	0	33031	32639	37990	
3246	0	33022	32635	37983	
3247	0	33026	32634	37974	
3248	0	33021	32641	37975	
3249	0	33036	32637	37959	
3250	0	33026	32643	37972	
3251	0	33028	32634	37961	
3252	0	33036	32638	37988	
3253	0	33044	32632	37988	
3254	0	33044	32639	37997	
3255	0	33056	32637	37977	
3256	0	33044	32647	37959	
3257	0	33024	32647	37959	
3258	0	33020	32660	37968	
3259	0	33018	32661	37949	
3260	0	33008	32647	37941	
3261	0	33028	32639	37959	
3262	0	33012	32637	37972	
3263	0	33004	32647	37959	
3264	0	33020	32647	37966	
3265	0	33024	32644	37971	
3266	0	33040	32645	37978	
3267	0	33040	32639	37982	
3268	0	33034	32636	37990	
3269	0	33025	32645	37974	
3270	0	33028	32644	37968	
3271	0	33023	32645	37968	
3272	0	33024	32645	37964	
3273	0	33031	32642	37983	
3274	0	33024	32644	37968	
3275	0	33020	32647	37977	
3276	0	33004	32666	37988	
3277	0	33022	32658	37970	
3278	0	33028	32660	37949	
3279	0	33030	32667	37959	
3280	0	33036	32654	37970	
3281	0	33032	32641	37996	
3282	0	33046	32646	37986	
3283	0	33036	32632	37981	
3284	0	33028	32647	37959	
3285	0	33036	32646	37959	
3286	0	33024	32647	37970	
3287	0	33012	32647	37951	
3288	0	33008	32659	37952	
3289	0	33008	32663	37943	
3290	0	33016	32662	37959	
3291	0	33016	32675	37971	
3292	0	33017	32671	37966	
3293	0	33018	32681	37964	
3294	0	33016	32665	37954	
3295	0	33020	32654	37955	
3296	0	32998	32671	37978	
3297	0	33006	32662	38002	
3298	0	33008	32672	37998	
3299	0	33008	32683	38002	
3300	0	33004	32684	38006	
3301	0	33005	32703	37995	
3302	0	32999	32679	37998	
3303	0	33002	32668	37991	
3304	0	33004	32669	37988	
3305	0	33004	32647	37979	
3306	0	33016	32658	37978	
3307	0	33010	32655	37986	
3308	0	33012	32668	37971	
3309	0	33020	32662	37974	
3310	0	33013	32654	37958	
3311	0	33010	32658	37951	
3312	0	33026	32647	37966	
3313	0	33026	32631	37966	
3314	0	33032	32634	37991	
3315	0	33026	32659	37972	
3316	0	33016	32662	37975	
3317	0	33018	32662	37980	
3318	0	33016	32647	37968	
3319	0	33016	32655	37959	
3320	0	33013	32659	37999	
3321	0	33028	32647	37974	
3322	0	33024	32656	37939	
3323	0	33032	32647	37959	
3324	0	33024	32647	37968	
3325	0	33028	32638	37968	
3326	0	33012	32647	37993	
3327	0	33012	32647	37991	
3328	0	33004	32655	37980	
3329	0	33010	32667	37959	
3330	0	33022	32647	37934	
3331	0	33020	32647	37972	
3332	0	33018	32647	37959	
3333	0	33020	32658	37959	
3334	0	33028	32653	37969	
3335	0	33021	32647	37971	
3336	0	33024	32647	37978	
3337	0	33022	32663	37978	
3338	0	33008	32672	37980	
3339	0	33004	32675	37990	
3340	0	33012	32686	37972	
3341	0	33000	32678	37955	
3342	0	33004	32680	37959	
3343	0	33016	32671	37963	
3344	0	33024	32663	37968	
3345	0	33021	32666	37959	
3346	0	33040	32669	37959	
3347	0	33039	32655	37946	
3348	0	33040	32645	37935	
3349	0	33052	32642	37934	
3350	0	33042	32642	37936	
3351	0	33040	32641	37967	
3352	0	33040	32647	37971	
3353	0	33026	32647	37972	
3354	0	33024	32658	37990	
3355	0	33024	32647	37983	
3356	0	33012	32662	37984	
3357	0	33024	32652	37987	
3358	0	33024	32659	37989	
3359	0	33016	32662	38002	
3360	0	33020	32654	37986	
3361	0	33032	32655	37958	
3362	0	33031	32657	37944	
3363	0	33020	32667	37940	
3364	0	33024	32668	37955	
3365	0	33028	32654	37959	
3366	0	33013	32662	37974	
3367	0	33023	32671	37983	
3368	0	33018	32663	38007	
3369	0	33008	32647	37983	
3370	0	33000	32647	37966	
3371	0	33000	32645	37994	
3372	0	33002	32647	37997	
3373	0	33021	32631	37957	
3374	0	33021	32639	37954	
3375	0	32998	32647	37938	
3376	0	32992	32647	37937	
3377	0	32996	32647	37942	
3378	0	32992	32663	37981	
3379	0	33004	32647	37991	
3380	0	33006	32646	37993	
3381	0	33008	32647	37987	
3382	0	33016	32639	37997	
3383	0	33002	32639	37987	
3384	0	33008	32645	37991	
3385	0	33010	32647	37959	
3386	0	33008	32646	37959	
3387	0	33017	32645	37948	
3388	0	33026	32644	37971	
3389	0	33028	32647	37959	
3390	0	33032	32647	37957	
3391	0	33017	32672	37956	
3392	0	33024	32663	37932	
3393	0	33035	32641	37942	
3394	0	33018	32647	37928	
3395	0	33016	32647	37957	
3396	0	33024	32647	37956	
3397	0	33024	32647	37968	
3398	0	33032	32638	37975	
3399	0	33026	32647	37964	
3400	0	33010	32639	37980	
3401	0	33018	32647	37976	
3402	0	33014	32659	37974	
3403	0	33012	32647	37979	
3404	0	33014	32655	37979	
3405	0	33016	32662	37981	
3406	0	33016	32662	37970	
3407	0	33024	32667	37979	
3408	0	33036	32658	37978	
3409	0	33031	32660	37971	
3410	0	33028	32660	37967	
3411	0	33018	32663	37949	
3412	0	33028	32665	37946	
3413	0	33032	32657	37954	
3414	0	33044	32659	37933	
3415	0	33034	32666	37932	
3416	0	33022	32663	37956	
3417	0	33022	32647	37984	
3418	0	33008	32652	37983	
3419	0	32996	32660	38001	
3420	0	33014	32659	37986	
3421	0	33020	32647	37991	
3422	0	33024	32656	37991	
3423	0	33033	32642	37995	
3424	0	33024	32647	37974	
3425	0	33020	32643	37958	
3426	0	33028	32633	37953	
3427	0	33022	32647	37948	
3428	0	33016	32647	37943	
3429	0	33016	32647	37954	
3430	0	33024	32646	37945	
3431	0	33020	32647	37943	
3432	0	33030	32639	37952	
3433	0	33024	32646	37944	
3434	0	33032	32642	37955	
3435	0	33024	32642	37952	
3436	0	33032	32630	37954	
3437	0	33038	32634	37959	
3438	0	33052	32635	37946	
3439	0	33048	32622	37953	
3440	0	33037	32633	37948	
3441	0	33045	32644	37959	
3442	0	33029	32647	37980	
3443	0	33022	32663	37970	
3444	0	33024	32665	37951	
3445	0	33030	32647	37959	
3446	0	33032	32654	37971	
3447	0	33010	32659	37970	
3448	0	33026	32654	37959	
3449	0	33020	32654	37954	
3450	0	33016	32647	37978	
3451	0	33020	32659	37962	
3452	0	33020	32647	37959	
3453	0	33012	32658	37959	
3454	0	33010	32655	37959	
3455	0	33006	32657	37944	
3456	0	32996	32663	37959	
3457	0	33002	32658	37955	
3458	0	33004	32659	37937	
3459	0	33018	32647	37944	
3460	0	33024	32647	37970	
3461	0	33020	32661	37987	
3462	0	33001	32664	37962	
3463	0	33012	32658	37949	
3464	0	33016	32644	37959	
3465	0	33024	32642	37963	
3466	0	33020	32642	37959	
3467	0	33008	32645	37988	
3468	0	33002	32647	37981	
3469	0	33010	32660	37967	
3470	0	32996	32647	37959	
3471	0	33002	32662	37949	
3472	0	33005	32647	37958	
3473	0	33014	32640	37967	
3474	0	33023	32647	37959	
3475	0	33024	32644	37971	
3476	0	33026	32633	37980	
3477	0	33024	32646	37995	
3478	0	33010	32656	38006	
3479	0	33017	32647	38019	
3480	0	33012	32646	38007	
3481	0	33009	32647	38004	
3482	0	33021	32633	37979	
3483	0	33018	32643	37986	
3484	0	33028	32641	37964	
3485	0	33030	32647	37960	
3486	0	33016	32638	37974	
3487	0	33031	32635	37965	
3488	0	33012	32647	37968	
3489	0	33004	32647	37974	
3490	0	33001	32636	37950	
3491	0	33016	32635	37970	
3492	0	33016	32637	37958	
3493	0	33020	32639	37959	
3494	0	33016	32636	37959	
3495	0	33024	32631	37959	
3496	0	33028	32622	37955	
3497	0	33005	32631	37959	
3498	0	33012	32634	37940	
3499	0	33012	32644	37948	
3500	0	33004	32663	37975	
3501	0	33020	32658	37959	
3502	0	33028	32642	37959	
3503	0	33024	32647	37958	
3504	0	33016	32647	37953	
3505	0	33020	32660	37967	
3506	0	33000	32668	37959	
3507	0	33008	32666	37973	
3508	0	33000	32662	37967	
3509	0	32993	32660	37978	
3510	0	33004	32662	38001	
3511	0	33012	32655	37990	
3512	0	33005	32645	38002	
3513	0	33012	32647	37996	
3514	0	33026	32645	37989	
3515	0	33024	32639	38001	
3516	0	33021	32646	37989	
3517	0	33030	32636	37990	
3518	0	33030	32642	37972	
3519	0	33031	32647	37952	
3520	0	33026	32658	37954	
3521	0	33026	32657	37959	
3522	0	33022	32660	37975	
3523	0	33030	32660	37944	
3524	0	33016	32647	37943	
3525	0	33017	32644	37927	
3526	0	33004	32647	37948	
3527	0	33020	32642	37975	
3528	0	33028	32647	37959	
3529	0	33020	32661	37988	
3530	0	33020	32647	37983	
3531	0	33031	32647	37993	
3532	0	33022	32647	37972	
3533	0	33029	32647	37959	
3534	0	33017	32647	37959	
3535	0	33030	32647	37970	
3536	0	33042	32647	37952	
3537	0	33033	32647	37958	
3538	0	33032	32647	37956	
3539	0	33030	32660	37959	
3540	0	33008	32663	37946	
3541	0	33020	32660	37970	
3542	0	33039	32657	37984	
3543	0	33048	32641	37982	
3544	0	33040	32654	37952	
3545	0	33029	32659	37942	
3546	0	33026	32678	37943	
3547	0	33032	32676	37940	
3548	0	33026	32679	37940	
3549	0	33016	32662	37977	
3550	0	33036	32647	37971	
3551	0	33033	32647	37976	
3552	0	33020	32647	37977	
3553	0	33040	32647	37970	
3554	0	33036	32647	37979	
3555	0	33045	32646	37975	
3556	0	33060	32647	37965	
3557	0	33052	32647	37974	
3558	0	33048	32658	37970	
3559	0	33039	32654	37964	
3560	0	33042	32647	37971	
3561	0	33028	32647	37974	
3562	0	33007	32662	37983	
3563	0	33008	32667	37963	
3564	0	33006	32671	37971	
3565	0	33005	32678	37959	
3566	0	33018	32671	37949	
3567	0	33020	32670	37935	
3568	0	33018	32671	37932	
3569	0	33016	32647	37951	
3570	0	33018	32647	37957	
3571	0	33044	32640	37966	
3572	0	33036	32639	37959	
3573	0	33036	32638	37984	
3574	0	33026	32639	37970	
3575	0	33022	32647	37990	
3576	0	33028	32654	37981	
3577	0	33040	32636	37964	
3578	0	33026	32643	37959	
3579	0	33016	32646	37965	
3580	0	33008	32653	37959	
3581	0	33004	32654	37967	
3582	0	32996	32634	37965	
3583	0	33000	32629	37980	
3584	0	32996	32620	37971	
3585	0	33008	32623	37965	
3586	0	33010	32629	37951	
3587	0	33024	32623	37972	
3588	0	33022	32629	37953	
3589	0	33016	32627	37959	
3590	0	33018	32635	37954	
3591	0	33002	32626	37957	
3592	0	33008	32643	37952	
3593	0	33016	32633	37943	
3594	0	33010	32637	37953	
3595	0	33018	32632	37958	
3596	0	33004	32647	37943	
3597	0	33004	32620	37959	
3598	0	33004	32627	37967	
3599	0	33028	32634	37959	
3600	0	33002	32647	37976	
3601	0	33016	32627	37959	
3602	0	33017	32632	37984	
3603	0	33017	32637	38010	
3604	0	33008	32644	37983	
3605	0	32996	32643	37970	
3606	0	33010	32645	37959	
3607	0	33014	32645	37945	
3608	0	33012	32647	37945	
3609	0	33004	32647	37952	
3610	0	33002	32647	37946	
3611	0	33030	32644	37932	
3612	0	33028	32638	37938	
3613	0	33036	32622	37952	
3614	0	33036	32631	37964	
3615	0	33024	32631	37967	
3616	0	33016	32646	37972	
3617	0	33028	32645	37999	
3618	0	33021	32663	37980	
3619	0	33020	32639	37988	
3620	0	33008	32643	37970	
3621	0	33008	32640	37959	
3622	0	33020	32639	37964	
3623	0	33018	32647	37953	
3624	0	33032	32631	37949	
3625	0	33020	32626	37948	
3626	0	33012	32617	37934	
3627	0	33010	32619	37940	
3628	0	32996	32626	37952	
3629	0	32992	32626	37929	
3630	0	33000	32638	37938	
3631	0	33002	32642	37959	
3632	0	33004	32631	37984	
3633	0	33005	32623	37973	
3634	0	33016	32616	37953	
3635	0	33016	32615	37968	
3636	0	33030	32608	37964	
3637	0	33020	32612	37962	
3638	0	33014	32620	37950	
3639	0	33020	32613	37966	
3640	0	33016	32615	37959	
3641	0	33024	32614	37950	
3642	0	32996	32633	37968	
3643	0	33004	32631	37959	
3644	0	33001	32635	37970	
3645	0	32997	32631	37974	
3646	0	33000	32635	37940	
3647	0	32998	32639	37945	
3648	0	32992	32635	37951	
3649	0	32993	32639	37951	
3650	0	32996	32639	37950	
3651	0	33016	32642	37937	
3652	0	33018	32637	37951	
3653	0	33008	32636	37972	
3654	0	33000	32644	37958	
3655	0	33004	32647	37972	
3656	0	33002	32647	37965	
3657	0	33002	32654	37947	
3658	0	33028	32646	37936	
3659	0	33016	32653	37948	
3660	0	33008	32662	37954	
3661	0	33006	32672	37957	
3662	0	32996	32679	37959	
3663	0	32996	32674	37959	
3664	0	33016	32660	37959	
3665	0	33010	32656	37953	
3666	0	33004	32671	37957	
3667	0	32992	32665	37959	
3668	0	33008	32658	37964	
3669	0	32992	32663	37979	
3670	0	33000	32662	37959	
3671	0	32998	32663	37962	
3672	0	32986	32671	37950	
3673	0	32980	32683	37954	
3674	0	32984	32674	37954	
3675	0	32992	32675	37951	
3676	0	32993	32671	37938	
3677	0	32980	32679	37946	
3678	0	32984	32679	37941	
3679	0	32996	32681	37942	
3680	0	32985	32687	37952	
3681	0	32992	32690	37959	
3682	0	32997	32688	37959	
3683	0	33000	32688	37942	
3684	0	33000	32689	37940	
3685	0	33001	32680	37959	
3686	0	32997	32669	37959	
3687	0	32997	32663	37943	
3688	0	33001	32664	37946	
3689	0	32988	32683	37959	
3690	0	32970	32682	37983	
3691	0	32972	32663	37994	
3692	0	32970	32675	37979	
3693	0	32984	32667	37991	
3694	0	32996	32655	37999	
3695	0	33004	32642	37994	
3696	0	33008	32639	37985	
3697	0	33008	32639	37978	
3698	0	33001	32653	37984	
3699	0	33012	32644	37970	
3700	0	33010	32647	37956	
3701	0	33026	32656	37941	
3702	0	33020	32647	37956	
3703	0	33014	32658	37956	
3704	0	33008	32661	37927	
3705	0	33020	32659	37947	
3706	0	33024	32655	37976	
3707	0	33024	32659	37956	
3708	0	33030	32656	37959	
3709	0	33022	32660	37935	
3710	0	33024	32662	37936	
3711	0	33016	32653	37951	
3712	0	33012	32647	37948	
3713	0	33014	32661	37969	
3714	0	33018	32656	37992	
3715	0	33010	32646	37979	
3716	0	33016	32647	37956	
3717	0	33004	32645	37940	
3718	0	33010	32638	37958	
3719	0	33002	32630	37990	
3720	0	33000	32639	37994	
3721	0	33012	32643	37994	
3722	0	33010	32647	37981	
3723	0	33005	32652	37978	
3724	0	33012	32647	37977	
3725	0	33006	32647	37978	
3726	0	33000	32647	37959	
3727	0	33006	32646	37958	
3728	0	33010	32639	37964	
3729	0	33012	32631	37958	
3730	0	32999	32638	37954	
3731	0	33014	32613	37959	
3732	0	33000	32627	37976	
3733	0	33012	32619	37959	
3734	0	33022	32613	37936	
3735	0	33034	32619	37940	
3736	0	33018	32620	37947	
3737	0	33018	32615	37928	
3738	0	33020	32619	37959	
3739	0	33012	32621	37959	
3740	0	33012	32627	37959	
3741	0	33012	32624	37971	
3742	0	33004	32637	37962	
3743	0	33004	32639	37948	
3744	0	32996	32647	37933	
3745	0	33000	32647	37959	
3746	0	33004	32658	37964	
3747	0	33000	32660	37975	
3748	0	33010	32646	37966	
3749	0	33010	32645	37966	
3750	0	33024	32631	37974	
3751	0	33002	32632	37949	
3752	0	33000	32641	37954	
3753	0	33016	32634	37965	
3754	0	33001	32623	37971	
3755	0	33004	32635	37954	
3756	0	32997	32639	37959	
3757	0	33001	32642	37984	
3758	0	32992	32644	37971	
3759	0	32984	32634	37959	
3760	0	33000	32644	37953	
3761	0	33008	32647	37950	
3762	0	33004	32647	37946	
3763	0	33000	32647	37960	
3764	0	32990	32645	37959	
3765	0	32988	32658	37980	
3766	0	32980	32659	37974	
3767	0	32976	32657	37952	
3768	0	32992	32663	37959	
3769	0	32996	32647	37979	
3770	0	33004	32634	37985	
3771	0	33008	32635	38019	
3772	0	33002	32645	38002	
3773	0	33012	32645	37984	
3774	0	33002	32640	37983	
3775	0	33002	32636	37959	
3776	0	32992	32634	37975	
3777	0	33008	32629	37955	
3778	0	33008	32623	37959	
3779	0	33020	32621	37959	
3780	0	33016	32626	37988	
3781	0	33012	32623	37956	
3782	0	33020	32636	37933	
3783	0	33016	32636	37936	
3784	0	33024	32630	37944	
3785	0	33024	32636	37941	
3786	0	33008	32643	37956	
3787	0	33008	32659	37968	
3788	0	33026	32639	38006	
3789	0	33004	32647	37987	
3790	0	33006	32640	37991	
3791	0	33005	32647	37975	
3792	0	33001	32639	37971	
3793	0	32993	32647	37970	
3794	0	33001	32647	37968	
3795	0	33012	32642	37952	
3796	0	32997	32646	37977	
3797	0	32988	32662	37981	
3798	0	32985	32655	37991	
3799	0	32978	32663	37993	
3800	0	33000	32661	37959	
3801	0	33004	32671	37975	
3802	0	32999	32664	37967	
3803	0	33008	32655	37929	
3804	0	33008	32642	37947	
3805	0	33000	32647	37944	
3806	0	32993	32647	37949	
3807	0	32990	32655	37968	
3808	0	33002	32645	37958	
3809	0	32993	32638	37957	
3810	0	33002	32647	37954	
3811	0	32996	32647	37959	
3812	0	32996	32644	37983	
3813	0	32984	32647	37990	
3814	0	32984	32663	37989	
3815	0	32992	32659	37976	
3816	0	32998	32661	37967	
3817	0	33000	32660	37943	
3818	0	32989	32669	37972	
3819	0	33004	32673	37962	
3820	0	32997	32678	37965	
3821	0	33012	32671	37979	
3822	0	33008	32656	37983	
3823	0	33004	32647	37970	
3824	0	33008	32654	37988	
3825	0	33004	32647	37991	
3826	0	33000	32647	37992	
3827	0	33005	32639	37980	
3828	0	33000	32656	37991	
3829	0	33004	32647	37996	
3830	0	33000	32647	37998	
3831	0	32997	32638	37978	
3832	0	33000	32642	37949	
3833	0	33010	32647	37947	
3834	0	33017	32639	37954	
3835	0	33020	32645	37958	
3836	0	33030	32637	37959	
3837	0	33008	32647	37977	
3838	0	33006	32658	37984	
3839	0	33010	32647	37959	
3840	0	33016	32647	37970	
3841	0	33006	32642	37980	
3842	0	33000	32642	37970	
3843	0	32992	32639	37964	
3844	0	32984	32656	37974	
3845	0	32988	32655	37974	
3846	0	32982	32661	37953	
3847	0	32985	32669	37940	
3848	0	32992	32664	37970	
3849	0	32996	32666	37967	
3850	0	32997	32663	37965	
3851	0	33000	32654	37991	
3852	0	33004	32663	37975	
3853	0	33008	32663	37959	
3854	0	33002	32647	37964	
3855	0	33016	32654	37985	
3856	0	33008	32668	37984	
3857	0	32996	32667	37986	
3858	0	33007	32669	37971	
3859	0	32996	32660	37974	
3860	0	33010	32647	37973	
3861	0	33004	32655	37980	
3862	0	33021	32647	37975	
3863	0	33008	32662	37988	
3864	0	33008	32647	37981	
3865	0	33016	32655	37988	
3866	0	33004	32647	37986	
3867	0	32996	32642	37967	
3868	0	32994	32642	37959	
3869	0	33004	32634	37955	
3870	0	33004	32633	37979	
3871	0	32991	32655	37959	
3872	0	32998	32647	37970	
3873	0	33021	32630	37986	
3874	0	33016	32644	37964	
3875	0	33020	32647	37974	
3876	0	33022	32647	37980	
3877	0	33032	32646	37959	
3878	0	33016	32634	37974	
3879	0	33016	32629	37959	
3880	0	33016	32631	37954	
3881	0	33010	32644	37942	
3882	0	32988	32647	37959	
3883	0	32994	32642	37943	
3884	0	32996	32647	37958	
3885	0	33005	32647	37956	
3886	0	33010	32641	37959	
3887	0	33001	32641	37934	
3888	0	33016	32635	37925	
3889	0	33024	32629	37956	
3890	0	33030	32626	37983	
3891	0	33014	32647	37996	
3892	0	33010	32642	37995	
3893	0	33012	32647	37985	
3894	0	33008	32647	37959	
3895	0	33000	32644	37959	
3896	0	32996	32631	37959	
3897	0	33006	32642	37956	
3898	0	33000	32638	37971	
3899	0	32968	32647	37968	
3900	0	32992	32645	37974	
3901	0	32993	32647	37954	
3902	0	32996	32652	37965	
3903	0	33004	32663	37971	
3904	0	33000	32659	37980	
3905	0	33014	32656	37975	
3906	0	33008	32647	37976	
3907	0	33006	32647	37995	
3908	0	33000	32647	38002	
3909	0	32993	32646	37979	
3910	0	33000	32629	37982	
3911	0	32980	32623	37997	
3912	0	32984	32619	37994	
3913	0	32973	32624	37992	
3914	0	32992	32627	37988	
3915	0	32996	32615	37952	
3916	0	32996	32617	37959	
3917	0	33008	32628	37968	
3918	0	33016	32623	37943	
3919	0	33019	32627	37943	
3920	0	33030	32618	37954	
3921	0	33012	32636	37952	
3922	0	32997	32643	37952	
3923	0	32997	32642	37959	
3924	0	32972	32662	37970	
3925	0	32968	32654	37972	
3926	0	32982	32636	37954	
3927	0	32984	32633	37959	
3928	0	32984	32643	37969	
3929	0	33000	32639	37949	
3930	0	32992	32647	37959	
3931	0	32996	32647	37967	
3932	0	33000	32647	37957	
3933	0	33012	32647	37968	
3934	0	33010	32647	37952	
3935	0	33012	32647	37950	
3936	0	33016	32663	37935	
3937	0	33024	32647	37936	
3938	0	33040	32631	37926	
3939	0	33052	32637	37948	
3940	0	33045	32631	37946	
3941	0	33040	32639	37959	
3942	0	33032	32641	37970	
3943	0	33028	32644	37981	
3944	0	33024	32635	37979	
3945	0	33014	32623	37959	
3946	0	33005	32633	37979	
3947	0	33008	32642	37977	
3948	0	32984	32656	37959	
3949	0	32988	32664	37945	
3950	0	32998	32663	37959	
3951	0	32992	32660	37934	
3952	0	33002	32659	37946	
3953	0	33016	32642	37950	
3954	0	33020	32641	37959	
3955	0	33004	32658	37970	
3956	0	33010	32641	37980	
3957	0	33020	32639	37974	
3958	0	33020	32639	37968	
3959	0	32998	32636	37988	
3960	0	32999	32647	37966	
3961	0	32994	32659	37967	
3962	0	32996	32631	37966	
3963	0	32992	32647	37951	
3964	0	32997	32647	37943	
3965	0	32996	32647	37939	
3966	0	32999	32647	37948	
3967	0	32996	32658	37959	
3968	0	33002	32654	37974	
3969	0	32988	32647	37959	
3970	0	32990	32640	37999	
3971	0	32980	32657	37982	
3972	0	32996	32660	37958	
3973	0	32992	32659	37971	
3974	0	32982	32655	37959	
3975	0	32996	32647	37958	
3976	0	32984	32655	37951	
3977	0	32988	32660	37947	
3978	0	32989	32674	37955	
3979	0	32988	32671	37962	
3980	0	32996	32668	37969	
3981	0	33001	32658	37973	
3982	0	33001	32653	37983	
3983	0	32985	32671	37994	
3984	0	32984	32661	37991	
3985	0	32992	32647	37991	
3986	0	32996	32647	37974	
3987	0	32996	32670	37975	
3988	0	32984	32663	37959	
3989	0	32984	32647	37958	
3990	0	33009	32647	37954	
3991	0	33000	32644	37955	
3992	0	33000	32647	37958	
3993	0	33010	32647	37968	
3994	0	33004	32640	37972	
3995	0	32996	32647	37970	
3996	0	33008	32643	37974	
3997	0	33012	32647	37971	
3998	0	33002	32639	37966	
3999	0	33008	32634	37959	
4000	0	33016	32647	37952	
4001	0	32992	32668	37944	
4002	0	32985	32665	37951	
4003	0	32996	32674	37936	
4004	0	32998	32672	37933	
4005	0	32996	32666	37922	
4006	0	32996	32670	37935	
4007	0	33004	32655	37948	
4008	0	33014	32654	37944	
4009	0	33008	32647	37948	
4010	0	33008	32647	37975	
4011	0	33006	32646	37959	
4012	0	32980	32659	37975	
4013	0	33005	32667	37965	
4014	0	33000	32663	37986	
4015	0	33000	32679	37970	
4016	0	32996	32666	37959	
4017	0	33012	32666	37959	
4018	0	33000	32655	37961	
4019	0	33014	32644	37959	
4020	0	33020	32647	37947	
4021	0	33020	32647	37959	
4022	0	33023	32663	37967	
4023	0	33032	32647	37959	
4024	0	33026	32647	37959	
4025	0	33016	32655	37984	
4026	0	33016	32639	37991	
4027	0	33012	32633	37986	
4028	0	32996	32644	37974	
4029	0	33002	32647	37970	
4030	0	32996	32647	37970	
4031	0	32994	32647	37965	
4032	0	32996	32644	37968	
4033	0	33012	32647	37959	
4034	0	33010	32662	37954	
4035	0	33012	32666	37935	
4036	0	33010	32647	37949	
4037	0	33011	32647	37937	
4038	0	33012	32643	37939	
4039	0	33004	32641	37959	
4040	0	33016	32645	37983	
4041	0	33020	32647	37986	
4042	0	33012	32659	37966	
4043	0	33012	32647	37981	
4044	0	33004	32647	37948	
4045	0	33016	32629	37954	
4046	0	33012	32624	37949	
4047	0	33002	32639	37968	
4048	0	32998	32643	37977	
4049	0	32992	32647	37963	
4050	0	32999	32647	37959	
4051	0	32996	32647	37959	
4052	0	32996	32644	37984	
4053	0	32981	32644	37981	
4054	0	32988	32647	37968	
4055	0	32996	32642	37962	
4056	0	32986	32629	37974	
4057	0	33001	32641	37970	
4058	0	32992	32642	37959	
4059	0	32984	32647	37970	
4060	0	32978	32647	37975	
4061	0	32988	32647	38004	
4062	0	32992	32642	37999	
4063	0	32991	32658	37998	
4064	0	32998	32647	37978	
4065	0	32997	32647	37974	
4066	0	32996	32647	37988	
4067	0	33012	32644	37980	
4068	0	32996	32647	37981	
4069	0	33000	32656	37974	
4070	0	33010	32647	37986	
4071	0	33002	32647	37981	
4072	0	32988	32654	37972	
4073	0	32989	32647	37958	
4074	0	32999	32647	37967	
4075	0	32999	32646	37983	
4076	0	33018	32647	37998	
4077	0	33004	32645	38015	
4078	0	33014	32647	37998	
4079	0	33008	32647	37979	
4080	0	33016	32642	37974	
4081	0	33016	32647	37983	
4082	0	33020	32647	37959	
4083	0	33008	32647	37959	
4084	0	33018	32657	37962	
4085	0	33022	32660	37979	
4086	0	33016	32664	37976	
4087	0	33000	32671	37975	
4088	0	33000	32664	37974	
4089	0	33008	32658	37987	
4090	0	32996	32668	37983	
4091	0	33008	32671	37965	
4092	0	33008	32662	37980	
4093	0	33013	32659	37968	
4094	0	33024	32659	37958	
4095	0	33028	32676	37984	
4096	0	33008	32679	37962	
4097	0	33009	32671	37990	
4098	0	33010	32666	37996	
4099	0	33008	32659	37974	
4100	0	33012	32660	37959	
4101	0	33008	32656	37959	
4102	0	33016	32647	37957	
4103	0	33004	32647	37970	
4104	0	32994	32647	37975	
4105	0	32997	32647	37974	
4106	0	33000	32646	37970	
4107	0	32986	32655	37968	
4108	0	33000	32654	37975	
4109	0	32997	32653	37981	
4110	0	33000	32647	37987	
4111	0	32988	32668	37970	
4112	0	32996	32647	37964	
4113	0	32996	32647	37940	
4114	0	33008	32647	37935	
4115	0	33006	32642	37926	
4116	0	33000	32644	37938	
4117	0	33004	32647	37968	
4118	0	33008	32663	37954	
4119	0	33008	32656	37942	
4120	0	33000	32642	37951	
4121	0	32992	32647	37969	
4122	0	33004	32644	37970	
4123	0	32997	32647	37979	
4124	0	32992	32647	37987	
4125	0	32992	32647	37987	
4126	0	32990	32667	37999	
4127	0	32992	32669	37971	
4128	0	33005	32646	37972	
4129	0	32998	32647	37983	
4130	0	33000	32647	37984	
4131	0	33000	32655	37964	
4132	0	33002	32647	37949	
4133	0	32996	32647	37972	
4134	0	33004	32646	37980	
4135	0	33008	32643	37959	
4136	0	33010	32647	37959	
4137	0	33016	32646	37956	
4138	0	33000	32639	37942	
4139	0	32990	32647	37959	
4140	0	33000	32642	37956	
4141	0	32994	32639	37959	
4142	0	32989	32645	37948	
4143	0	32984	32658	37938	
4144	0	32980	32668	37954	
4145	0	32992	32655	37959	
4146	0	32988	32663	37946	
4147	0	32986	32647	37951	
4148	0	32994	32640	37968	
4149	0	33008	32659	37964	
4150	0	33018	32655	37984	
4151	0	33020	32646	37968	
4152	0	33012	32665	37971	
4153	0	32997	32657	37983	
4154	0	33000	32655	37986	
4155	0	32996	32647	37994	
4156	0	32988	32645	37958	
4157	0	32988	32658	37950	
4158	0	32982	32647	37963	
4159	0	32985	32647	37952	
4160	0	32988	32671	37959	
4161	0	33002	32660	37942	
4162	0	32997	32674	37927	
4163	0	33002	32662	37929	
4164	0	33016	32671	37938	
4165	0	33000	32664	37932	
4166	0	33016	32647	37950	
4167	0	33020	32647	37948	
4168	0	33012	32647	37956	
4169	0	33012	32661	37958	
4170	0	33002	32662	37968	
4171	0	33012	32670	37975	
4172	0	33004	32659	37980	
4173	0	33008	32662	37967	
4174	0	32999	32671	37949	
4175	0	33000	32674	37948	
4176	0	33008	32675	37950	
4177	0	33016	32658	37947	
4178	0	33008	32670	37954	
4179	0	33024	32674	37959	
4180	0	33015	32665	37982	
4181	0	33000	32647	37965	
4182	0	33016	32654	37958	
4183	0	33016	32646	37987	
4184	0	33004	32654	37968	
4185	0	33008	32664	37975	
4186	0	33016	32647	37988	
4187	0	33012	32647	37967	
4188	0	33010	32659	37982	
4189	0	33004	32655	37959	
4190	0	32996	32671	37966	
4191	0	32996	32660	37954	
4192	0	33000	32647	37939	
4193	0	33003	32662	37934	
4194	0	33012	32659	37935	
4195	0	33017	32647	37959	
4196	0	33004	32644	37986	
4197	0	32998	32647	37979	
4198	0	32988	32667	37981	
4199	0	32996	32647	37991	
4200	0	32994	32652	37967	
4201	0	32996	32663	37974	
4202	0	32996	32647	37973	
4203	0	32984	32655	37952	
4204	0	32982	32647	37951	
4205	0	32980	32660	37972	
4206	0	32984	32669	37957	
4207	0	32992	32652	37959	
4208	0	32992	32663	37973	
4209	0	32996	32658	37972	
4210	0	32988	32674	37974	
4211	0	32999	32671	37974	
4212	0	32996	32671	37967	
4213	0	32986	32670	37983	
4214	0	32980	32690	37966	
4215	0	32976	32682	37983	
4216	0	32994	32666	37959	
4217	0	33004	32666	37976	
4218	0	33002	32667	37981	
4219	0	33008	32665	37978	
4220	0	33004	32669	37977	
4221	0	32988	32675	37990	
4222	0	32998	32679	37983	
4223	0	32984	32676	37976	
4224	0	32984	32684	37984	
4225	0	32989	32670	37974	
4226	0	32988	32669	37978	
4227	0	32993	32665	37956	
4228	0	32998	32674	37933	
4229	0	32996	32670	37951	
4230	0	32992	32672	37959	
4231	0	33002	32676	37963	
4232	0	32998	32676	37958	
4233	0	32988	32672	37982	
4234	0	32988	32690	37984	
4235	0	33005	32672	37980	
4236	0	32996	32675	37971	
4237	0	33004	32679	37951	
4238	0	32996	32682	37952	
4239	0	32989	32687	37960	
4240	0	32984	32676	37956	
4241	0	33004	32662	37957	
4242	0	33012	32666	37967	
4243	0	33026	32662	37988	
4244	0	33028	32674	37962	
4245	0	33019	32677	37971	
4246	0	33012	32662	37983	
4247	0	33013	32658	37982	
4248	0	33020	32664	37970	
4249	0	33022	32670	37951	
4250	0	33018	32671	37949	
4251	0	33004	32663	37963	
4252	0	33008	32658	37970	
4253	0	33021	32661	37964	
4254	0	33000	32667	37981	
4255	0	32996	32656	37974	
4256	0	32985	32659	37952	
4257	0	32984	32672	37975	
4258	0	32984	32654	37954	
4259	0	33002	32634	37957	
4260	0	32976	32647	37949	
4261	0	32986	32647	37953	
4262	0	32976	32661	37959	
4263	0	33000	32647	37982	
4264	0	33009	32663	37975	
4265	0	33026	32663	37975	
4266	0	33008	32671	37983	
4267	0	32984	32695	37988	
4268	0	32976	32691	37991	
4269	0	32970	32680	37994	
4270	0	32960	32683	38009	
4271	0	32964	32673	38023	
4272	0	32956	32684	38032	
4273	0	32952	32672	38005	
4274	0	32952	32661	37995	
4275	0	32937	32654	37983	
4276	0	32933	32643	37983	
4277	0	32932	32636	37959	
4278	0	32916	32631	37970	
4279	0	32928	32667	37964	
4280	0	32984	32662	37943	
4281	0	32996	32663	37953	
4282	0	33008	32644	37930	
4283	0	33028	32628	37940	
4284	0	33021	32616	37935	
4285	0	33017	32610	37966	
4286	0	33016	32607	37956	
4287	0	32996	32599	37972	
4288	0	32993	32615	37970	
4289	0	33052	32607	37934	
4290	0	33058	32620	37929	
4291	0	32960	32652	37966	
4292	0	32932	32647	37987	
4293	0	32952	32637	37964	
4294	0	33001	32638	37970	
4295	0	33040	32647	38000	
4296	0	33024	32646	37996	
4297	0	32966	32636	37975	
4298	0	32952	32658	37991	
4299	0	32933	32674	37995	
4300	0	32936	32680	37980	
4301	0	32941	32679	37981	
4302	0	32944	32680	37965	
4303	0	32976	32675	37954	
4304	0	32988	32671	37959	
4305	0	33010	32654	37957	
4306	0	33024	32663	37958	
4307	0	33012	32666	37970	
4308	0	33014	32647	37983	
4309	0	33010	32647	37988	
4310	0	32985	32654	37983	
4311	0	32992	32665	37998	
4312	0	32984	32656	37999	
4313	0	32978	32666	37959	
4314	0	32968	32647	37967	
4315	0	32976	32637	37965	
4316	0	32980	32635	37985	
4317	0	32996	32639	37992	
4318	0	33000	32636	37982	
4319	0	33005	32631	37970	
4320	0	33000	32619	37959	
4321	0	32982	32628	37972	
4322	0	32980	32642	37978	
4323	0	32962	32659	37982	
4324	0	32972	32647	37967	
4325	0	32986	32645	37954	
4326	0	32988	32636	37967	
4327	0	32997	32626	37964	
4328	0	32996	32615	37974	
4329	0	33004	32612	37936	
4330	0	33000	32623	37949	
4331	0	32993	32598	37958	
4332	0	32989	32606	37926	
4333	0	32986	32607	37939	
4334	0	32976	32631	37946	
4335	0	32988	32635	37944	
4336	0	33000	32628	37942	
4337	0	33001	32630	37937	
4338	0	32992	32643	37942	
4339	0	32992	32637	37957	
4340	0	32992	32634	37956	
4341	0	32993	32619	37957	
4342	0	33004	32622	37966	
4343	0	33005	32631	37966	
4344	0	33000	32633	37959	
4345	0	32988	32638	37974	
4346	0	32980	32638	37970	
4347	0	32985	32639	37971	
4348	0	32996	32637	37981	
4349	0	32984	32655	37975	
4350	0	32972	32663	37957	
4351	0	32976	32663	37974	
4352	0	32972	32662	37959	
4353	0	32976	32663	37943	
4354	0	32967	32663	37945	
4355	0	32960	32674	37948	
4356	0	32952	32656	37994	
4357	0	32940	32674	38008	
4358	0	32948	32680	38010	
4359	0	32976	32717	37985	
4360	0	33000	32711	37986	
4361	0	33012	32707	37954	
4362	0	33004	32671	37981	
4363	0	32980	32630	38013	
4364	0	32980	32603	38023	
4365	0	32988	32599	38007	
4366	0	32986	32615	37987	
4367	0	33004	32630	37945	
4368	0	33020	32637	37929	
4369	0	33018	32647	37915	
4370	0	33006	32646	37916	
4371	0	33019	32638	37932	
4372	0	33014	32633	37955	
4373	0	32998	32641	37980	
4374	0	32992	32647	37990	
4375	0	32997	32679	37996	
4376	0	33016	32690	37946	
4377	0	33016	32655	37959	
4378	0	32992	32647	37970	
4379	0	32958	32638	37993	
4380	0	32902	32621	38016	
4381	0	32950	32623	37976	
4382	0	32976	32625	37951	
4383	0	32952	32632	37959	
4384	0	33003	32644	37919	
4385	0	33038	32670	37930	
4386	0	32989	32680	37983	
4387	0	32964	32675	38023	
4388	0	32972	32658	38075	
4389	0	32948	32642	38118	
4390	0	33010	32632	38039	
4391	0	33060	32645	37956	
4392	0	33048	32676	37945	
4393	0	33005	32694	37959	
4394	0	32982	32694	37992	
4395	0	32966	32667	38002	
4396	0	32966	32655	38014	
4397	0	32976	32655	38009	
4398	0	32960	32668	38007	
4399	0	32952	32676	37968	
4400	0	32967	32667	37967	
4401	0	32964	32672	37951	
4402	0	32982	32676	37959	
4403	0	32999	32668	37975	
4404	0	33004	32654	37974	
4405	0	32992	32636	37987	
4406	0	32992	32639	38010	
4407	0	32976	32626	38023	
4408	0	32966	32633	38019	
4409	0	32956	32647	38014	
4410	0	32941	32647	38016	
4411	0	32940	32661	38010	
4412	0	32932	32643	38014	
4413	0	32924	32643	38023	
4414	0	32876	32627	38039	
4415	0	32932	32605	37988	
4416	0	33042	32607	37895	
4417	0	33080	32631	37859	
4418	0	33068	32662	37862	
4419	0	33040	32670	37928	
4420	0	33000	32667	37982	
4421	0	32972	32647	38000	
4422	0	32940	32647	38006	
4423	0	32942	32643	37994	
4424	0	32964	32647	37965	
4425	0	32966	32640	37913	
4426	0	32960	32623	37895	
4427	0	32972	32634	37895	
4428	0	32968	32627	37918	
4429	0	32964	32642	37934	
4430	0	32968	32657	37959	
4431	0	32996	32698	37948	
4432	0	33021	32694	37957	
4433	0	32996	32672	37967	
4434	0	32984	32662	38007	
4435	0	32980	32645	38022	
4436	0	32992	32640	38015	
4437	0	33000	32658	37990	
4438	0	33008	32695	37952	
4439	0	33008	32701	37947	
4440	0	32997	32705	37927	
4441	0	33010	32724	37945	
4442	0	33008	32711	37940	
4443	0	33008	32699	37972	
4444	0	32996	32706	37998	
4445	0	32953	32706	38012	
4446	0	32930	32710	38020	
4447	0	32898	32724	38015	
4448	0	32898	32736	38010	
4449	0	32896	32736	37985	
4450	0	32902	32743	37959	
4451	0	32888	32745	37959	
4452	0	32890	32765	37959	
4453	0	32952	32767	37965	
4454	0	32984	32707	37990	
4455	0	33008	32645	38002	
4456	0	33032	32626	38022	
4457	0	33049	32628	38006	
4458	0	33028	32655	37996	
4459	0	33008	32710	37981	
4460	0	32992	32739	37972	
4461	0	32983	32775	37959	
4462	0	32997	32795	37980	
4463	0	33001	32791	38006	
4464	0	33026	32797	38016	
4465	0	33043	32775	38039	
4466	0	33044	32795	38061	
4467	0	33058	32799	38087	
4468	0	33040	32799	38079	
4469	0	33005	32775	38070	
4470	0	32984	32759	38066	
4471	0	32972	32751	38082	
4472	0	32968	32743	38076	
4473	0	32976	32734	38070	
4474	0	32976	32721	38042	
4475	0	32980	32735	38023	
4476	0	32972	32751	38023	
4477	0	32976	32736	38023	
4478	0	32976	32735	38050	
4479	0	32984	32743	38047	
4480	0	33005	32734	38051	
4481	0	33013	32723	38058	
4482	0	33042	32702	38063	
4483	0	33048	32683	38086	
4484	0	33056	32690	38100	
4485	0	33052	32711	38121	
4486	0	33064	32720	38130	
4487	0	33070	32739	38143	
4488	0	33084	32725	38151	
4489	0	33074	32711	38138	
4490	0	33036	32708	38146	
4491	0	32996	32706	38151	
4492	0	32984	32703	38166	
4493	0	32988	32711	38135	
4494	0	32986	32723	38136	
4495	0	33016	32727	38160	
4496	0	33024	32717	38214	
4497	0	33005	32718	38250	
4498	0	33001	32711	38294	
4499	0	33032	32701	38362	
4500	0	33032	32727	38405	
4501	0	33061	32709	38391	
4502	0	33081	32658	38380	
4503	0	33112	32615	38361	
4504	0	33146	32565	38338	
4505	0	33184	32531	38361	
4506	0	33176	32543	38349	
4507	0	33106	32614	38387	
4508	0	32984	32711	38407	
4509	0	32824	32847	38434	
4510	0	32808	32945	38502	
4511	0	32864	32879	38524	
4512	0	32900	32745	38599	
4513	0	32985	32666	38599	
4514	0	32990	32599	38641	
4515	0	32860	32577	38591	
4516	0	32893	32629	38519	
4517	0	33036	32706	38434	
4518	0	33101	32775	38468	
4519	0	32936	32775	38524	
4520	0	32900	32744	38563	
4521	0	32934	32743	38524	
4522	0	32938	32767	38508	
4523	0	32872	32743	38502	
4524	0	32836	32725	38392	
4525	0	32824	32767	38308	
4526	0	32892	32735	38300	
4527	0	33032	32699	38405	
4528	0	32948	32706	38509	
4529	0	32932	32700	38548	
4530	0	33032	32733	38566	
4531	0	33144	32751	38631	
4532	0	33237	32794	38688	
4533	0	35438	32895	39488	
4534	0	34610	33010	39339	
4535	0	32438	32737	38663	
4536	0	32608	32669	38046	
4537	0	32704	32912	38054	
4538	0	32396	33031	38370	
4539	0	32140	32903	38590	
4540	0	32148	32760	38742	
4541	0	32698	32771	38658	
4542	0	33332	32119	39238	
4543	0	33309	31749	39574	
4544	0	33244	31687	39720	
4545	0	33268	31813	39703	
4546	0	33216	31991	39645	
4547	0	33120	32211	39531	
4548	0	32988	32423	39384	
4549	0	32843	32607	39239	
4550	0	32704	32714	39130	
4551	0	32588	32799	39060	
4552	0	32509	32838	39011	
4553	0	32472	32845	38943	
4554	0	32448	32851	38888	
4555	0	32452	32879	38802	
4556	0	32428	32915	38698	
4557	0	32422	32967	38624	
4558	0	32392	33031	38553	
4559	0	32314	33144	38448	
4560	0	32176	33277	38358	
4561	0	32092	33494	38232	
4562	0	32052	33542	38144	
4563	0	32012	33503	38072	
4564	0	32002	33434	38036	
4565	0	32004	33383	38013	
4566	0	32021	33328	38023	
4567	0	32024	33279	38023	
4568	0	32033	33223	38012	
4569	0	32056	33182	38039	
4570	0	32088	33127	38068	
4571	0	32116	33079	38119	
4572	0	32164	33004	38173	
4573	0	32228	32966	38215	
4574	0	32272	32924	38278	
4575	0	32263	32873	38343	
4576	0	32263	32839	38385	
4577	0	32268	32818	38407	
4578	0	32280	32796	38447	
4579	0	32302	32790	38447	
4580	0	32322	32774	38459	
4581	0	32348	32775	38471	
4582	0	32402	32795	38486	
4583	0	32454	32808	38505	
4584	0	32530	32834	38516	
4585	0	32640	32839	38535	
4586	0	32775	32847	38530	
4587	0	32920	32855	38528	
4588	0	33060	32839	38495	
4589	0	33220	32799	38477	
4590	0	33366	32748	38444	
4591	0	33464	32698	38429	
4592	0	33543	32647	38457	
4593	0	33589	32594	38451	
4594	0	33551	32604	38407	
4595	0	33420	32798	38368	
4596	0	33412	32984	38355	
4597	0	33422	32879	38327	
4598	0	33426	32700	38311	
4599	0	33454	32546	38310	
4600	0	33480	32478	38279	
4601	0	33460	32507	38267	
4602	0	33414	32599	38224	
4603	0	33352	32704	38191	
4604	0	33292	32791	38122	
4605	0	33250	32831	38055	
4606	0	33236	32831	38007	
4607	0	33221	32772	37985	
4608	0	33178	32739	37972	
4609	0	33180	32711	37988	
4610	0	33152	32683	37980	
4611	0	33168	32665	37975	
4612	0	33176	32647	37980	
4613	0	33188	32647	37998	
4614	0	33192	32629	37994	
4615	0	33208	32632	37967	
4616	0	33224	32631	37963	
4617	0	33252	32630	37997	
4618	0	33260	32610	38023	
4619	0	33270	32622	38019	
4620	0	33269	32640	38003	
4621	0	33286	32664	37964	
4622	0	33305	32687	37955	
4623	0	33318	32678	37970	
4624	0	33286	32696	37959	
4625	0	33244	32722	37946	
4626	0	33184	32728	37959	
4627	0	33118	32743	38002	
4628	0	33064	32758	38036	
4629	0	33001	32749	38105	
4630	0	32960	32750	38151	
4631	0	32918	32748	38211	
4632	0	32892	32758	38230	
4633	0	32860	32775	38226	
4634	0	32876	32791	38255	
4635	0	32900	32839	38299	
